Raman Shift,Processed Intensity
331.095,11.230491904761955
333.909,20.166865
336.721,18.19671357142855
339.531,10.608517619047621
342.339,12.000035714285708
345.145,-6.816381428571429
347.949,-4.646419523809532
350.751,-13.34268904761906
353.55,-17.32837142857143
356.348,-25.26388857142857
359.144,-4.046766190476161
361.937,39.664480000000054
364.729,52.59321380952387
367.518,95.1781400000001
370.306,163.04969047619062
373.091,261.83894285714314
375.874,370.6071380952384
378.656,436.3212095238097
381.435,384.61594000000014
384.212,275.98428523809525
386.988,123.4445942857143
389.761,41.063714761904784
392.532,-4.756400952380945
395.301,-22.041197619047608
398.068,-5.719411904761907
400.833,-5.242413333333355
403.596,-36.34564809523811
406.358,-31.953622857142868
409.117,-20.08461857142857
411.874,-2.8030447619047436
414.629,22.447185714285716
417.382,16.033080952380942
420.133,-7.962695238095232
422.882,6.115257142857196
425.629,56.11423809523818
428.374,119.93032380952394
431.117,232.50838571428588
433.858,277.3182476190477
436.597,284.6880476190478
439.334,267.89957142857156
442.069,211.1875238095239
444.802,153.83552380952395
447.533,161.3660000000001
450.262,171.68342857142875
452.989,225.21671428571443
455.714,267.0627523809525
458.438,239.88965714285723
461.159,193.46217142857148
463.878,128.59296190476195
466.595,69.71455238095244
469.31,66.40289523809531
472.024,75.1394190476191
474.735,93.40566666666675
477.444,118.35061904761912
480.152,130.02833333333342
482.857,137.96916190476196
485.561,123.99025714285719
488.262,124.05160952380962
490.962,144.39915238095247
493.659,134.18390000000008
496.355,128.17621904761913
499.048,154.7651476190477
501.74,142.57885238095247
504.43,130.67388571428577
507.118,121.10686190476197
509.804,108.74379523809533
512.488,157.07038571428586
515.17,218.8574142857144
517.85,243.49497142857152
520.528,208.32566666666673
523.204,180.12066666666675
525.878,150.79328571428582
528.551,165.82928571428582
531.221,168.04666666666674
533.89,165.50165714285723
536.556,115.77425238095243
539.221,97.39669523809528
541.883,72.61491904761908
544.544,49.77055714285718
547.203,45.63297619047625
549.86,80.78108095238102
552.515,99.74586666666674
555.168,122.3916714285715
557.819,154.91545714285724
560.469,169.18085714285723
563.116,172.71733333333347
565.761,181.29247619047632
568.405,180.53100000000006
571.047,157.91442857142866
573.687,158.4472380952382
576.324,158.61047619047628
578.96,169.55038095238103
581.594,172.89004761904772
584.227,180.2997904761906
586.857,154.68724285714296
589.485,147.57862857142865
592.112,140.64323333333346
594.737,142.54962857142863
597.359,151.06133809523817
599.98,158.75140000000007
602.599,121.1441095238096
605.216,128.7162380952382
607.831,117.2774333333334
610.445,124.16133333333343
613.056,126.41469047619054
615.666,130.51322857142867
618.274,125.59837142857154
620.88,157.95469523809535
623.484,182.24707619047635
626.086,245.42588571428587
628.686,271.2029047619049
631.284,291.0042857142859
633.881,291.7319047619049
636.476,293.6683333333335
639.068,289.57209523809536
641.659,283.2490476190478
644.249,251.7904285714287
646.836,219.2878380952382
649.421,172.0703000000001
652.005,140.65713809523817
654.587,122.66291428571432
657.166,69.60694761904765
659.745,30.579666666666686
662.321,19.48138571428573
664.895,17.97378571428575
667.468,38.194980952380995
670.038,65.14017619047621
672.607,45.66164761904765
675.174,45.99280476190481
677.739,79.2240571428572
680.303,103.73136190476197
682.864,129.1291714285715
685.424,133.4124952380953
687.982,106.62417619047623
690.538,86.47386666666672
693.092,85.24249523809527
695.645,70.9728428571429
698.195,52.61282380952382
700.744,21.490952380952383
703.291,-4.3020619047618975
705.836,1.848261904761932
708.38,27.080338095238133
710.921,43.81829523809527
713.461,53.15302380952383
715.999,49.270780952380974
718.535,53.310028571428624
721.069,79.64764285714291
723.602,85.75567619047622
726.133,86.82060000000007
728.662,96.88593809523816
731.189,84.37628571428579
733.714,95.09697619047627
736.238,118.85382857142864
738.759,105.45275714285721
741.279,101.93774761904768
743.798,95.16226190476195
746.314,90.36097619047626
748.829,100.00630952380958
751.342,93.28538571428577
753.853,86.48086666666671
756.362,84.68480952380959
758.869,89.5131952380953
761.375,71.53466190476193
763.879,73.50832857142862
766.381,66.47927142857148
768.882,89.20661428571437
771.38,105.83103809523817
773.877,139.30277142857148
776.372,117.14343809523817
778.866,124.92283809523816
781.357,106.25813333333338
783.847,101.33789523809529
786.335,86.25602380952388
788.821,106.58247619047627
791.306,129.64935238095248
793.789,133.4557571428572
796.27,137.42913333333343
798.749,157.23548095238104
801.227,171.8261809523811
803.702,192.91494761904772
806.176,217.97744761904772
808.649,217.25138095238106
811.119,235.35561904761917
813.588,247.05176190476206
816.055,245.10180952380964
818.521,215.69633333333346
820.984,195.74000000000012
823.446,194.70966666666678
825.906,198.27209523809537
828.365,201.1421904761906
830.821,200.89214285714294
833.276,172.56990476190487
835.729,149.98571428571438
838.181,130.33123809523818
840.631,122.98790476190484
843.079,111.48119047619055
845.525,124.05014285714293
847.97,138.7434761904763
850.412,156.37209523809534
852.854,154.03271428571438
855.293,167.58366666666677
857.731,147.2648571428572
860.167,146.17304619047627
862.601,106.92890690476194
865.034,86.05817571428577
867.465,59.229390714285756
869.894,59.349085238095284
872.321,72.46685452380959
874.747,99.87041285714292
877.171,114.0859095238096
879.594,142.63929047619058
882.014,160.96119047619055
884.433,158.67314285714298
886.851,187.1104761904763
889.266,174.56133333333344
891.68,201.40942857142872
894.092,196.7522380952382
896.503,187.92580952380965
898.912,168.45666666666676
901.319,166.15657142857148
903.724,150.3137142857144
906.128,168.5025238095239
908.53,178.582761904762
910.931,169.08119047619059
913.329,165.80985714285723
915.726,156.20014285714294
918.122,158.73107619047627
920.516,137.26288571428577
922.908,135.7030571428572
925.298,121.91154285714293
927.687,112.98648571428578
930.074,123.26431428571436
932.459,136.08122857142862
934.843,119.77341428571438
937.225,117.1054952380953
939.605,125.60451904761912
941.984,100.84484761904767
944.361,81.25800952380956
946.736,75.6086571428572
949.11,52.04273809523813
951.482,59.84878095238101
953.853,83.64901428571433
956.222,100.35105714285723
958.589,103.86244285714292
960.954,121.4718571428572
963.318,110.0393476190477
965.68,104.94863809523817
968.041,114.44032857142864
970.4,128.66040476190483
972.757,127.08769047619055
975.113,99.15372380952383
977.467,63.480285714285735
979.819,23.212919047619074
982.17,27.83015238095242
984.519,40.09669047619052
986.866,59.30080000000004
989.212,64.92120952380958
991.556,80.29363333333339
993.899,96.32530000000006
996.24,104.73268571428576
998.579,104.85143809523817
1000.92,116.87414761904769
1003.25,105.8980047619048
1005.59,98.25828000000006
1007.92,71.33783476190477
1010.25,40.85255523809527
1012.58,27.28037000000004
1014.91,52.81312666666671
1017.24,62.83305857142862
1019.56,90.96047523809528
1021.88,92.62491428571437
1024.2,100.77984761904769
1026.52,109.18813333333343
1028.84,152.99313333333345
1031.16,180.38614285714297
1033.48,196.17714285714297
1035.79,193.60471428571438
1038.1,167.57380952380964
1040.41,165.46600000000015
1042.72,211.3283809523811
1045.03,214.59000000000012
1047.33,206.63138095238105
1049.64,179.9764761904763
1051.94,149.81538095238105
1054.24,165.48114285714297
1056.54,191.54434285714294
1058.84,161.14779523809528
1061.13,163.52863809523816
1063.43,159.49591904761914
1065.72,164.66792380952393
1068.01,197.61503333333343
1070.3,212.1456761904763
1072.59,169.30661904761917
1074.87,175.90604761904774
1077.16,186.99076190476202
1079.44,220.3687619047621
1081.72,273.61038095238115
1084.0,311.38052380952405
1086.28,348.05904761904793
1088.56,455.4059047619051
1090.84,595.7058571428577
1093.11,734.0044761904766
1095.38,771.109666666667
1097.65,692.6860952380956
1099.92,551.4463333333335
1102.19,441.24547619047644
1104.46,386.605904761905
1106.72,380.8585714285717
1108.98,386.8586666666669
1111.24,429.8423333333336
1113.5,476.66442857142886
1115.76,512.8941904761908
1118.02,536.9106666666671
1120.28,557.3301904761909
1122.53,551.7221428571431
1124.78,540.9416190476193
1127.03,490.17647619047636
1129.28,399.3290952380954
1131.53,315.9210000000002
1133.77,256.18752380952395
1136.02,204.60252380952394
1138.26,195.92552380952395
1140.5,200.43933333333348
1142.74,221.52280952380968
1144.98,233.41142857142867
1147.22,215.6740476190477
1149.45,200.16533333333345
1151.69,208.07300000000012
1153.92,216.77500000000015
1156.15,224.5071904761906
1158.38,207.74305714285723
1160.61,154.48003333333344
1162.83,131.76306666666676
1165.06,118.44653809523817
1167.28,122.33726666666675
1169.5,110.48051904761908
1171.72,105.39726666666672
1173.94,96.46577142857149
1176.16,93.01679047619054
1178.37,91.95248095238101
1180.58,104.12737142857146
1182.8,78.91982857142861
1185.01,58.18423333333337
1187.22,60.25131428571432
1189.42,54.499595238095274
1191.63,41.688419047619064
1193.84,36.81526666666667
1196.04,22.49670476190478
1198.24,31.82552857142862
1200.44,46.79945238095242
1202.64,58.320971428571454
1204.84,63.81652190476193
1207.03,45.426869523809536
1209.23,32.19765333333337
1211.42,51.079420952380985
1213.61,63.78482952380956
1215.8,48.3123123809524
1217.99,42.946250476190485
1220.18,17.495028571428588
1222.36,22.243180952380996
1224.55,51.04728095238101
1226.73,88.7638952380953
1228.91,97.82135238095243
1231.09,95.12411428571433
1233.27,80.19596190476196
1235.44,97.3704095238096
1237.62,95.17170952380958
1239.79,103.1717333333334
1241.96,123.60935714285722
1244.13,141.10479047619057
1246.3,153.61120476190487
1248.47,186.3682761904763
1250.64,175.5675714285715
1252.8,179.3058571428573
1254.96,184.63228571428584
1257.13,227.35866666666683
1259.29,252.29604761904778
1261.44,292.97038095238116
1263.6,292.0504761904764
1265.76,312.77700000000016
1267.91,296.58071428571446
1270.06,302.750142857143
1272.22,281.9544761904764
1274.37,265.95823809523824
1276.51,232.28804761904777
1278.66,226.42328571428584
1280.81,193.6524761904763
1282.95,182.3122380952382
1285.09,158.26285714285723
1287.23,148.07919047619058
1289.37,146.43090476190486
1291.51,167.94061904761918
1293.65,189.9450000000001
1295.78,196.066761904762
1297.92,179.4998095238096
1300.05,162.72442857142866
1302.18,141.79166666666677
1304.31,148.18119047619058
1306.44,155.46823809523818
1308.57,164.51342857142868
1310.69,175.55871428571442
1312.82,200.989142857143
1314.94,226.23685714285727
1317.06,239.4960952380954
1319.18,250.0566190476192
1321.3,256.0649523809525
1323.41,252.04880952380972
1325.53,289.4405714285717
1327.64,328.2438095238098
1329.75,357.2720000000003
1331.87,387.814523809524
1333.98,392.3512380952383
1336.08,365.69519047619065
1338.19,347.37385714285733
1340.3,325.05747619047634
1342.4,310.22628571428584
1344.5,272.26433333333347
1346.6,241.88947619047633
1348.7,196.72390476190486
1350.8,172.1042380952382
1352.9,152.31933333333342
1354.99,145.7062857142858
1357.09,159.98185714285728
1359.18,186.81614285714298
1361.27,213.5449523809525
1363.36,219.69519047619056
1365.45,207.5550000000001
1367.54,175.88938095238106
1369.62,173.46204761904778
1371.7,192.65676190476205
1373.79,239.1423333333335
1375.87,291.96852380952396
1377.95,320.7564285714288
1380.03,307.6032380952383
1382.1,273.41523809523824
1384.18,249.67042857142872
1386.25,215.894142857143
1388.33,199.27782857142864
1390.4,137.58469523809526
1392.47,81.3394047619048
1394.54,55.685833333333385
1396.6,56.529338095238145
1398.67,56.727647619047666
1400.74,76.61426666666671
1402.8,72.61789523809529
1404.86,68.88138095238101
1406.92,77.3569047619048
1408.98,83.52023333333337
1411.04,58.847057142857174
1413.09,58.860323809523855
1415.15,62.65452380952385
1417.2,70.94287142857148
1419.25,74.34322857142861
1421.3,74.42562380952386
1423.35,65.33134761904768
1425.4,82.8680333333334
1427.45,100.93888095238103
1429.49,99.06570952380956
1431.54,71.38929523809526
1433.58,48.47879523809528
1435.62,55.09366190476196
1437.66,65.37427619047622
1439.7,70.03244285714288
1441.74,65.73215238095241
1443.77,47.66110476190479
1445.81,37.816376190476234
1447.84,63.575947619047675
1449.87,85.98428571428579
1451.9,93.03852380952387
1453.93,100.54483809523816
1455.96,100.02380476190481
1457.98,104.2817238095239
1460.01,129.02943333333343
1462.03,154.69193333333345
1464.05,178.8376666666668
1466.07,234.70095238095254
1468.09,280.0400476190478
1470.11,312.7086190476192
1472.13,328.2268571428573
1474.14,329.16247619047635
1476.16,327.9407142857145
1478.17,330.0817142857145
1480.18,288.6767619047621
1482.19,236.3891904761906
1484.2,184.0725238095239
1486.21,151.2949333333334
1488.21,113.57655238095242
1490.22,81.34248571428576
1492.22,73.44595238095243
1494.22,80.97907619047626
1496.22,91.93834761904768
1498.22,99.27317619047622
1500.22,73.31334285714289
1502.22,58.57953428571433
1504.21,49.9731683809524
1506.21,34.919920047619065
1508.2,19.178674380952383
1510.19,4.365598523809534
1512.18,4.90640676190479
1514.17,36.03652766666669
1516.16,39.41999980952382
1518.14,38.578128571428586
1520.13,15.07997
1522.11,4.018497142857171
1524.09,23.24872047619052
1526.07,60.959087619047665
1528.05,81.10009857142862
1530.03,100.67001047619051
1532.01,88.04816190476194
1533.98,76.32829523809528
1535.96,59.46145238095241
1537.93,56.779685714285755
1539.9,45.8532904761905
1541.87,44.20509523809528
1543.84,64.83409047619054
1545.81,75.025280952381
1547.78,89.25420000000007
1549.74,133.66310000000007
1551.7,136.63241428571433
1553.67,128.25699523809533
1555.63,137.91753809523814
1557.59,107.23285238095245
1559.55,107.53635714285724
1561.5,139.9231380952382
1563.46,155.2978761904763
1565.41,164.66093809523818
1567.37,154.77453333333338
1569.32,129.7815238095239
1571.27,121.30195238095246
1573.22,130.85971428571438
1575.17,137.40776190476197
1577.11,134.32804761904768
1579.06,122.90671428571436
1581.0,126.33490476190484
1582.95,122.13742857142866
1584.89,131.17200000000008
1586.83,151.91609523809532
1588.77,160.5612380952382
1590.7,175.82252380952391
1592.64,182.84423809523818
1594.58,169.79400000000004
1596.51,162.8161428571431
1598.44,175.5786666666673
