Raman Shift,Processed Intensity
331.095,1.9831573809523122
333.909,1.4739499999999919
336.721,13.969653571428589
339.531,29.758758095238118
342.339,30.39143190476191
345.145,25.965755238095262
347.949,25.628300476190468
350.751,1.764452380952378
353.55,-11.33488333333333
356.348,7.9554142857142915
359.144,-5.310080952380954
361.937,-8.885371428571426
364.729,10.04789047619051
367.518,35.07128095238103
370.306,96.67185714285728
373.091,236.33798095238114
375.874,331.65446666666685
378.656,384.0169333333335
381.435,342.3454857142858
384.212,230.84752857142863
386.988,120.2551571428572
389.761,53.54008095238098
392.532,18.484900000000028
395.301,20.111733333333323
398.068,-18.69920952380953
400.833,-15.54227619047618
403.596,-0.7723952380952461
406.358,-0.02875238095237931
409.117,-3.187228571428588
411.874,-23.9794285714286
414.629,-34.56406666666666
417.382,-28.669799999999995
420.133,18.1186571428572
422.882,45.69454761904766
425.629,105.57120476190487
428.374,161.83497142857158
431.117,241.95391428571446
433.858,295.58792857142873
436.597,329.6359523809525
439.334,284.1411904761906
442.069,244.19500000000014
444.802,203.65219047619058
447.533,196.89157142857158
450.262,197.96023809523825
452.989,240.19114285714303
455.714,269.5852857142858
458.438,262.7626666666668
461.159,230.20190476190487
463.878,191.90561904761913
466.595,142.02031428571442
469.31,125.02562380952388
472.024,108.0690095238096
474.735,97.44128095238102
477.444,102.10020000000007
480.152,114.19476666666675
482.857,153.63617142857152
485.561,169.62119047619058
488.262,193.82342857142868
490.962,185.964761904762
493.659,195.57638095238104
496.355,157.04738095238102
499.048,135.62395238095246
501.74,101.98078571428577
504.43,94.2690952380953
507.118,85.97369047619058
509.804,139.24614285714298
512.488,177.7618809523811
515.17,237.38680000000014
517.85,236.17725238095244
520.528,190.47533809523816
523.204,139.19503333333338
525.878,105.77333809523816
528.551,86.5526333333334
531.221,109.35101428571436
533.89,117.22461904761911
536.556,112.94376190476198
539.221,123.89818095238101
541.883,124.81000476190482
544.544,106.25890000000004
547.203,98.8239190476191
549.86,105.41763333333341
552.515,106.42837619047627
555.168,139.2921476190477
557.819,168.39689523809534
560.469,178.6062380952382
563.116,202.64104761904775
565.761,199.74580952380964
568.405,209.40276190476203
571.047,225.0934476190477
573.687,201.58532857142868
576.324,158.26399047619054
578.96,130.89629047619053
581.594,102.96299047619058
584.227,143.5632714285715
586.857,152.41491428571433
589.485,141.14055238095244
592.112,135.21920000000006
594.737,131.65350476190486
597.359,144.87460952380962
599.98,160.26527619047627
602.599,146.25590476190484
605.216,131.89538095238103
607.831,141.04166666666674
610.445,145.60014285714294
613.056,158.1424761904763
615.666,160.62119047619055
618.274,128.3691190476191
620.88,102.19466666666675
623.484,102.43040476190484
626.086,129.07476190476203
628.686,177.22140476190492
631.284,231.63038095238107
633.881,233.29933333333346
636.476,225.6064285714287
639.068,217.07286666666676
641.659,185.98091428571436
644.249,158.37478095238106
646.836,128.58427619047626
649.421,111.79627619047625
652.005,94.48277619047626
654.587,87.59185238095242
657.166,67.8333047619048
659.745,43.7261361904762
662.321,11.980079047619059
664.895,11.685543809523825
667.468,16.599344761904785
670.038,28.383062857142896
672.607,63.84105523809528
675.174,71.01564095238099
677.739,75.33029047619053
680.303,95.35099523809528
682.864,96.64370857142862
685.424,79.39351571428574
687.982,59.214131428571434
690.538,19.33826047619048
693.092,7.094169523809553
695.645,28.381263333333358
698.195,32.52766095238096
700.744,38.24257619047621
703.291,17.282947619047604
705.836,-10.832309523809524
708.38,-12.822161904761892
710.921,11.213563333333354
713.461,12.460969285714306
715.999,44.86819571428573
718.535,43.00258071428573
721.069,29.66972904761908
723.602,64.38977880952388
726.133,77.63516809523813
728.662,74.83097619047624
731.189,86.1643142857143
733.714,64.87000000000002
736.238,45.42112380952387
738.759,69.5767047619048
741.279,61.52421047619051
743.798,44.022796190476214
746.314,43.49848285714289
748.829,54.853522857142906
751.342,69.18054952380959
753.853,90.76292952380958
756.362,100.5032104761905
758.869,69.1611666666667
761.375,60.44920952380957
763.879,68.74644761904766
766.381,48.86044285714289
768.882,53.12282857142861
771.38,66.24631904761908
773.877,45.13409523809528
776.372,71.68973333333341
778.866,97.19746666666671
781.357,88.37037142857149
783.847,89.35016666666672
786.335,91.89793333333337
788.821,73.6791095238096
791.306,106.88358095238104
793.789,134.17727619047628
796.27,125.94070476190483
798.749,139.55400000000012
801.227,153.20761904761915
803.702,156.47238095238106
806.176,190.1099523809525
808.649,208.4057142857144
811.119,198.4551904761906
813.588,186.87714285714293
816.055,167.57666666666677
818.521,140.8398095238096
820.984,162.4287142857144
823.446,139.20080952380957
825.906,127.6330952380953
828.365,100.63076190476197
830.821,94.3848095238096
833.276,98.08650476190483
835.729,126.97487619047625
838.181,104.95570000000005
840.631,97.6966666666667
843.079,67.57974285714289
845.525,68.22523809523815
847.97,77.20575238095243
850.412,79.90373238095242
852.854,63.082466190476204
855.293,29.55300333333333
857.731,13.793318571428607
860.167,28.09074523809527
862.601,38.780278571428596
865.034,45.62575666666669
867.465,52.34335523809527
869.894,47.697023809523856
872.321,71.35572380952385
874.747,89.32135238095243
877.171,99.78669523809529
879.594,105.42070952380959
882.014,98.70187142857148
884.433,100.15650952380958
886.851,105.69156666666674
889.266,127.69045238095248
891.68,120.72737142857149
894.092,126.04280000000008
896.503,134.54436666666678
898.912,142.94902857142867
901.319,163.0208238095239
903.724,179.95307619047628
906.128,136.12951428571435
908.53,130.36221904761913
910.931,140.27334285714295
913.329,151.96080952380964
915.726,153.33191428571436
918.122,156.6274095238096
920.516,140.2789523809525
922.908,127.38434285714294
925.298,114.42259047619054
927.687,111.06312857142862
930.074,78.92767619047623
932.459,79.78060476190483
934.843,90.24413333333338
937.225,108.89212476190482
939.605,100.87002952380958
941.984,84.98995428571432
944.361,71.6356085714286
946.736,75.33311619047625
949.11,78.18031571428577
951.482,74.70350261904761
953.853,41.80976523809527
956.222,30.025291190476228
958.589,37.49536523809529
960.954,75.22227309523817
963.318,104.44609095238101
965.68,108.54991428571435
968.041,110.20248095238102
970.4,106.5010085714286
972.757,66.87596333333336
975.113,55.47226123809527
977.467,33.76761004761906
979.819,14.763731523809538
982.17,11.795557095238106
984.519,14.15026295238096
986.866,6.876886714285745
989.212,34.16720028571432
991.556,64.546160952381
993.899,71.681580952381
996.24,85.95516190476195
998.579,96.1775666666667
1000.92,92.73044285714292
1003.25,90.47158571428577
1005.59,88.87773809523814
1007.92,72.85417619047624
1010.25,70.73437142857148
1012.58,77.85247142857148
1014.91,91.77956666666672
1017.24,108.70652857142863
1019.56,110.72858095238101
1021.88,97.94087619047625
1024.2,85.9147952380953
1026.52,86.69801904761913
1028.84,125.81327142857154
1031.16,170.16555238095248
1033.48,196.84950476190488
1035.79,218.34066666666683
1038.1,249.59100000000018
1040.41,265.8381904761906
1042.72,271.0334285714287
1045.03,261.17609523809534
1047.33,229.0274285714287
1049.64,197.20533333333347
1051.94,179.08980952380963
1054.24,180.34676190476205
1056.54,181.689142857143
1058.84,196.06785714285726
1061.13,192.72033333333343
1063.43,183.4547142857144
1065.72,176.93619047619057
1068.01,190.6877142857144
1070.3,189.6122857142858
1072.59,196.8514285714287
1074.87,200.45119047619062
1077.16,215.31500000000017
1079.44,250.1552380952383
1081.72,305.92304761904785
1084.0,347.37852380952404
1086.28,414.13933333333364
1088.56,494.67990476190516
1090.84,587.0464761904766
1093.11,693.2367142857147
1095.38,718.5822857142861
1097.65,650.2242380952383
1099.92,580.2561904761908
1102.19,496.15271428571464
1104.46,445.81685714285743
1106.72,449.81761904761936
1108.98,425.96300000000025
1111.24,438.96509523809556
1113.5,491.2985238095241
1115.76,528.1042380952384
1118.02,581.9993809523813
1120.28,610.8867142857146
1122.53,581.1454285714289
1124.78,538.8686190476194
1127.03,479.1499523809526
1129.28,399.13014285714314
1131.53,332.093142857143
1133.77,295.6560000000002
1136.02,246.15004761904777
1138.26,230.4308571428573
1140.5,236.54428571428585
1142.74,251.44076190476204
1144.98,252.213523809524
1147.22,281.0989523809526
1149.45,310.66642857142875
1151.69,314.8194285714287
1153.92,277.2226190476192
1156.15,242.01723809523816
1158.38,191.24889523809532
1160.61,146.2022190476191
1162.83,127.92287619047625
1165.06,103.69532380952388
1167.28,97.3749333333334
1169.5,95.43610476190483
1171.72,104.40133333333338
1173.94,102.9357952380953
1176.16,90.13332380952386
1178.37,85.37361428571432
1180.58,73.36973333333336
1182.8,55.596400000000045
1185.01,58.81457142857147
1187.22,53.88004285714289
1189.42,47.50604285714289
1191.63,38.453419047619064
1193.84,34.34023809523813
1196.04,53.546485714285765
1198.24,68.5475047619048
1200.44,77.05674952380957
1202.64,64.8830661904762
1204.84,41.74011333333336
1207.03,44.77021952380956
1209.23,46.8300942857143
1211.42,19.347970952380958
1213.61,19.5141161904762
1215.8,10.471342857142876
1217.99,33.45778190476196
1220.18,53.61651285714288
1222.36,53.94787809523812
1224.55,46.54761571428575
1226.73,45.55922095238098
1228.91,51.74535190476195
1231.09,54.86881142857144
1233.27,45.50202095238099
1235.44,50.40806571428576
1237.62,70.82624952380958
1239.79,93.42451047619055
1241.96,101.87103904761909
1244.13,101.07205714285722
1246.3,93.31502857142863
1248.47,108.17310476190487
1250.64,135.55270952380963
1252.8,180.83686666666677
1254.96,219.59917142857154
1257.13,249.93669523809533
1259.29,242.61357142857156
1261.44,251.06033333333346
1263.6,235.61257142857158
1265.76,223.749142857143
1267.91,234.1866761904763
1270.06,203.26081904761915
1272.22,161.4981142857144
1274.37,157.23413333333343
1276.51,153.28120952380965
1278.66,176.64224761904777
1280.81,202.8911333333334
1282.95,184.22107142857152
1285.09,126.25407619047624
1287.23,95.27841428571435
1289.37,90.10641904761914
1291.51,126.07470952380962
1293.65,144.47166666666675
1295.78,159.44301904761915
1297.92,146.5632380952382
1300.05,150.35885714285723
1302.18,146.92785714285725
1304.31,147.22590476190484
1306.44,137.0655714285715
1308.57,129.5450952380953
1310.69,148.38161904761918
1312.82,177.2922380952382
1314.94,199.94647619047632
1317.06,228.87104761904777
1319.18,238.25957142857158
1321.3,224.35266666666678
1323.41,224.39147619047634
1325.53,228.5691904761906
1327.64,254.79357142857162
1329.75,310.1149523809526
1331.87,337.9168095238097
1333.98,339.6303333333335
1336.08,326.5443333333335
1338.19,319.6608571428573
1340.3,301.4112380952383
1342.4,284.36947619047635
1344.5,231.1090000000001
1346.6,190.3468857142858
1348.7,146.03776666666676
1350.8,130.56462857142864
1352.9,110.59613809523816
1354.99,122.84891428571437
1357.09,127.13429047619059
1359.18,171.16879047619057
1361.27,191.95409523809536
1363.36,213.87295238095248
1365.45,209.49795238095248
1367.54,192.0215238095239
1369.62,178.06400000000014
1371.7,208.8651904761906
1373.79,244.23552380952398
1375.87,279.9380952380954
1377.95,295.16433333333345
1380.03,281.24861904761923
1382.1,274.09652380952394
1384.18,267.6613809523811
1386.25,236.03833333333344
1388.33,193.18047619047627
1390.4,149.706961904762
1392.47,111.61798571428578
1394.54,113.86625714285721
1396.6,95.6420904761905
1398.67,73.18307142857148
1400.74,67.1555190476191
1402.8,93.89216666666675
1404.86,103.10655238095248
1406.92,136.75025238095245
1408.98,124.06022380952385
1411.04,95.41622380952387
1413.09,89.3885095238096
1415.15,106.4994333333334
1417.2,105.36638571428578
1419.25,145.74986190476199
1421.3,150.26681904761912
1423.35,137.6296952380953
1425.4,126.40806190476196
1427.45,113.02802857142862
1429.49,81.15437619047626
1431.54,83.30874761904767
1433.58,75.86930952380958
1435.62,93.02453809523816
1437.66,96.20023809523816
1439.7,101.15570000000005
1441.74,96.31680952380957
1443.77,85.585680952381
1445.81,68.24510000000005
1447.84,82.53055714285719
1449.87,81.82004761904767
1451.9,76.49170476190481
1453.93,83.49469523809529
1455.96,91.39779523809531
1457.98,106.95964285714295
1460.01,153.36788095238106
1462.03,180.61966666666677
1464.05,211.23552380952395
1466.07,248.30742857142872
1468.09,250.68966666666682
1470.11,279.90300000000013
1472.13,302.9922857142859
1474.14,290.81166666666684
1476.16,301.88190476190493
1478.17,314.2473333333335
1480.18,279.9529047619049
1482.19,273.0908000000001
1484.2,228.32488571428576
1486.21,154.55716190476198
1488.21,114.40413333333338
1490.22,96.91059047619054
1492.22,84.59784285714291
1494.22,89.79633333333338
1496.22,89.21804761904767
1498.22,64.47959047619051
1500.22,62.38820952380958
1502.22,75.2750571428572
1504.21,52.66168095238097
1506.21,42.97463809523813
1508.2,45.354838095238115
1510.19,43.562362857142894
1512.18,48.30973952380954
1514.17,48.64296904761905
1516.16,17.512916666666676
1518.14,13.203877619047637
1520.13,18.23834714285717
1522.11,34.18648714285717
1524.09,44.380479047619076
1526.07,64.62882000000003
1528.05,57.64481047619051
1530.03,44.09427333333336
1532.01,48.452475238095275
1533.98,51.814006666666714
1535.96,76.41649619047627
1537.93,107.73548666666673
1539.9,105.53241904761909
1541.87,83.8069047619048
1543.84,88.98715238095244
1545.81,90.16832380952387
1547.78,96.73130000000006
1549.74,114.86627142857151
1551.7,145.8115476190477
1553.67,144.80520952380962
1555.63,141.60941428571437
1557.59,138.08143809523816
1559.55,123.55490476190485
1561.5,120.50638095238102
1563.46,136.79338095238103
1565.41,134.8925714285715
1567.37,125.56657142857152
1569.32,118.67300000000007
1571.27,119.21247619047628
1573.22,132.89990476190485
1575.17,144.16433333333342
1577.11,151.53052380952388
1579.06,152.61871428571436
1581.0,124.5726190476191
1582.95,128.63085714285722
1584.89,154.74695238095245
1586.83,154.25514285714294
1588.77,146.5374761904763
1590.7,144.54771428571436
1592.64,115.7150476190477
1594.58,123.39773809523825
1596.51,138.28773809523824
1598.44,153.386380952381
