Raman Shift,Processed Intensity
331.095,44.328191428571195
333.909,-3.630507857142966
336.721,-6.49687071428577
339.531,13.685132857142882
342.339,22.371256666666675
345.145,31.589075238095248
347.949,10.295705238095225
350.751,-14.169924761904781
353.55,-40.94415285714287
356.348,-27.06711714285714
359.144,-20.482638095238073
361.937,13.723728571428605
364.729,55.80075714285722
367.518,99.71273333333346
370.306,179.42521904761924
373.091,329.9522285714288
375.874,406.3565809523812
378.656,435.17876190476215
381.435,399.62713333333346
384.212,272.6253857142858
386.988,150.09866666666673
389.761,95.40164761904764
392.532,17.747552380952392
395.301,-12.36313333333333
398.068,-21.761909523809546
400.833,-41.42200000000001
403.596,-34.98173333333333
406.358,-11.411358571428577
409.117,-5.536839523809523
411.874,-4.563772857142866
414.629,-15.791616190476201
417.382,-7.708983333333309
420.133,12.720601904761939
422.882,52.20134666666674
425.629,110.39154904761914
428.374,161.75948476190487
431.117,228.25116666666682
433.858,272.90856190476205
436.597,270.3941904761906
439.334,241.89476190476202
442.069,200.5030952380953
444.802,156.78838095238106
447.533,158.13090476190484
450.262,169.76838095238108
452.989,210.5586666666668
455.714,234.74085714285724
458.438,243.22157142857156
461.159,202.7173571428572
463.878,150.8503333333334
466.595,129.4333952380953
469.31,100.137180952381
472.024,87.10881428571435
474.735,102.97243809523816
477.444,83.54267142857151
480.152,93.58689523809532
482.857,117.44439523809531
485.561,126.8830000000001
488.262,148.67106190476198
490.962,151.05339523809533
493.659,128.60807619047625
496.355,105.53284285714291
499.048,98.59675238095247
501.74,98.90223809523816
504.43,114.17114285714293
507.118,100.36336190476194
509.804,111.72438095238104
512.488,138.4525904761906
515.17,184.93637142857153
517.85,195.32639523809536
520.528,207.82039047619057
523.204,174.80715238095246
525.878,130.8179714285715
528.551,91.38430952380958
531.221,91.84674285714294
533.89,120.35542380952391
536.556,138.9650333333334
539.221,131.3970285714286
541.883,96.8963285714286
544.544,67.8030714285715
547.203,84.36155714285724
549.86,126.86392857142864
552.515,130.7927571428572
555.168,119.48704761904769
557.819,129.2862238095239
560.469,124.43371904761915
563.116,152.8870142857144
565.761,161.03196666666673
568.405,163.34980952380963
571.047,148.55878571428582
573.687,153.71138095238103
576.324,127.71585714285723
578.96,133.9570952380953
581.594,122.43809523809531
584.227,125.16223809523817
586.857,117.27471428571437
589.485,111.1593333333334
592.112,110.91347619047627
594.737,114.11033333333341
597.359,125.08461904761913
599.98,133.69495238095246
602.599,146.7516476190477
605.216,138.39852857142864
607.831,113.20748571428575
610.445,91.32114761904766
613.056,80.97730476190482
615.666,82.7470714285715
618.274,95.39130476190485
620.88,115.00425714285723
623.484,125.67986666666675
626.086,160.0354380952382
628.686,203.450142857143
631.284,236.16004761904776
633.881,252.82923809523822
636.476,248.59819047619058
639.068,225.98757142857153
641.659,191.75614285714298
644.249,169.99609523809534
646.836,152.94193333333342
649.421,125.2088714285715
652.005,105.60275714285721
654.587,87.92875714285718
657.166,78.659180952381
659.745,63.551785714285735
662.321,40.64989047619048
664.895,7.901276190476198
667.468,8.920523809523837
670.038,26.893552380952435
672.607,68.95865238095243
675.174,85.20643809523814
677.739,103.72760000000005
680.303,111.56496761904766
682.864,91.71389380952385
685.424,80.5506304761905
687.982,53.737144285714294
690.538,22.69732571428574
693.092,26.188474761904782
695.645,38.77724857142858
698.195,18.84000476190478
700.744,29.181661904761924
703.291,28.654776190476202
705.836,23.44533333333336
708.38,44.73936190476194
710.921,48.008657142857146
713.461,21.39178095238097
715.999,35.31310000000004
718.535,55.054171428571465
721.069,64.46814285714291
723.602,96.6462666666667
726.133,77.63228571428571
728.662,52.08909523809529
731.189,54.29870952380956
733.714,78.40060476190482
736.238,82.9148571428572
738.759,102.02874761904768
741.279,105.50068571428577
743.798,98.85130000000004
746.314,83.50611428571433
748.829,76.12898571428575
751.342,78.19317619047627
753.853,81.93414761904768
756.362,114.68248095238103
758.869,129.67375238095244
761.375,133.3816571428572
763.879,125.2804571428572
766.381,116.55852857142862
768.882,105.02327619047627
771.38,115.81583809523815
773.877,76.83920000000002
776.372,74.4726190476191
778.866,104.7625714285715
781.357,108.0887952380953
783.847,113.73600000000005
786.335,115.51263809523813
788.821,93.51329523809531
791.306,95.5468333333334
793.789,122.32696190476196
796.27,123.52020476190484
798.749,143.12626666666677
801.227,151.05001428571438
803.702,183.1008000000001
806.176,188.18361904761915
808.649,195.0131904761906
811.119,198.20904761904774
813.588,196.91457142857152
816.055,177.8925238095239
818.521,160.5245714285715
820.984,145.52575238095247
823.446,123.27820476190483
825.906,131.16402857142864
828.365,121.70827142857149
830.821,124.00717142857151
833.276,118.58630000000008
835.729,133.2088476190477
838.181,131.8290476190477
840.631,158.49614285714296
843.079,156.25966666666676
845.525,142.54964761904768
847.97,112.13009523809528
850.412,85.2887428571429
852.854,78.5038190476191
855.293,73.11079047619052
857.731,64.96908095238099
860.167,61.0331523809524
862.601,51.067366666666686
865.034,33.121657142857174
867.465,45.10306190476193
869.894,40.299890476190505
872.321,43.04790000000004
874.747,71.68312857142864
877.171,111.39846190476199
879.594,119.67273333333343
882.014,139.4609000000001
884.433,139.00364285714292
886.851,115.82762857142865
889.266,136.6978142857144
891.68,156.42607619047627
894.092,133.34847619047625
896.503,144.5155238095239
898.912,154.4058095238096
901.319,161.16533333333345
903.724,170.41590476190484
906.128,156.73152380952388
908.53,134.305761904762
910.931,125.33195238095244
913.329,127.0030476190477
915.726,136.36947619047626
918.122,130.76690476190484
920.516,101.24583333333338
922.908,107.19018095238101
925.298,88.69772857142863
927.687,91.05702857142865
930.074,95.6037952380953
932.459,120.86438095238103
934.843,111.69843333333341
937.225,117.82264285714292
939.605,104.85849047619052
941.984,94.90372857142864
944.361,95.19883333333341
946.736,106.74611904761909
949.11,80.40477619047623
951.482,64.2246952380953
953.853,71.06483333333338
956.222,66.02273333333338
958.589,100.2907857142858
960.954,126.4422095238096
963.318,140.05051428571437
965.68,131.8793190476191
968.041,116.4061590476191
970.4,67.29949152380955
972.757,31.179587238095255
975.113,14.571662571428599
977.467,34.62008419047621
979.819,27.70684733333335
982.17,26.452071047619057
984.519,25.856815809523827
986.866,32.30274285714291
989.212,63.88594761904769
991.556,117.60735714285723
993.899,132.80059047619054
996.24,142.56133333333344
998.579,132.98535238095246
1000.92,113.54894761904768
1003.25,94.39513333333339
1005.59,98.09584285714291
1007.92,99.26960000000007
1010.25,101.96394285714292
1012.58,92.0358190476191
1014.91,92.00892857142864
1017.24,114.35895238095247
1019.56,147.75232857142865
1021.88,160.2358476190477
1024.2,139.90410476190482
1026.52,126.85173333333341
1028.84,133.17320000000012
1031.16,180.7250285714287
1033.48,226.07764761904775
1035.79,237.13476190476203
1038.1,240.5145714285716
1040.41,260.0252857142859
1042.72,280.0940952380954
1045.03,276.5297142857145
1047.33,281.5687142857144
1049.64,245.73400000000012
1051.94,203.92885714285728
1054.24,201.19923809523823
1056.54,217.30557142857154
1058.84,198.57966666666678
1061.13,225.4486666666668
1063.43,222.53033333333346
1065.72,205.58461904761919
1068.01,237.27666666666684
1070.3,239.271142857143
1072.59,219.75671428571445
1074.87,234.39857142857159
1077.16,243.05209523809538
1079.44,272.57261904761924
1081.72,329.48233333333354
1084.0,372.11261904761926
1086.28,415.3185714285717
1088.56,501.098285714286
1090.84,641.4499047619051
1093.11,754.3240000000004
1095.38,799.8614761904767
1097.65,752.6320000000003
1099.92,639.2050000000004
1102.19,499.24523809523834
1104.46,433.89366666666695
1106.72,417.81495238095266
1108.98,415.48319047619077
1111.24,450.7535714285717
1113.5,502.4817619047622
1115.76,540.2373333333337
1118.02,581.685047619048
1120.28,617.5370476190478
1122.53,579.220285714286
1124.78,530.2564285714288
1127.03,471.26295238095264
1129.28,398.6668095238097
1131.53,324.89480952380967
1133.77,262.4690000000001
1136.02,213.19728571428584
1138.26,194.55409523809539
1140.5,213.87100000000015
1142.74,227.09900000000013
1144.98,243.9987142857144
1147.22,259.6639047619049
1149.45,285.045142857143
1151.69,293.42671428571447
1153.92,288.18847619047636
1156.15,266.9958571428573
1158.38,227.60947619047627
1160.61,187.6949523809525
1162.83,162.67938095238105
1165.06,141.5141047619049
1167.28,131.53179523809533
1169.5,120.25535238095243
1171.72,109.11196666666675
1173.94,112.00620952380962
1176.16,122.36560476190486
1178.37,120.14202380952385
1180.58,89.71585238095241
1182.8,56.18186666666669
1185.01,32.53942380952383
1187.22,27.359955238095264
1189.42,32.404843333333346
1191.63,12.293129523809524
1193.84,10.310461428571454
1196.04,31.218734285714334
1198.24,73.01804523809531
1200.44,96.13730714285717
1202.64,73.81489428571429
1204.84,48.57508142857145
1207.03,30.418370476190496
1209.23,24.392879523809555
1211.42,30.40406285714286
1213.61,34.309931428571446
1215.8,14.968448571428599
1217.99,33.23774095238098
1220.18,45.26165142857146
1222.36,51.041275238095274
1224.55,57.33966190476195
1226.73,69.20567142857146
1228.91,56.450080952380986
1231.09,62.93151904761908
1233.27,70.12744761904766
1235.44,62.086933333333384
1237.62,91.90688571428578
1239.79,116.87427619047625
1241.96,113.84804285714291
1244.13,128.59215238095246
1246.3,123.91736666666672
1248.47,112.7780476190477
1250.64,119.50940476190485
1252.8,141.5892857142858
1254.96,151.87685714285726
1257.13,203.3743333333335
1259.29,253.94033333333348
1261.44,283.9104285714287
1263.6,284.61995238095255
1265.76,288.8807142857144
1267.91,267.0757142857144
1270.06,237.58804761904776
1272.22,217.51500000000013
1274.37,185.28752380952392
1276.51,161.90761904761914
1278.66,152.75861904761913
1280.81,146.84266666666673
1282.95,126.59047619047627
1285.09,119.62347619047628
1287.23,122.94390476190485
1289.37,127.55419047619057
1291.51,137.0757714285715
1293.65,136.5107714285715
1295.78,132.8140952380953
1297.92,119.32117619047625
1300.05,107.6055666666667
1302.18,91.57465238095244
1304.31,96.08781428571434
1306.44,100.71879523809531
1308.57,119.51756666666675
1310.69,162.15289523809537
1312.82,197.0557142857144
1314.94,206.32352380952392
1317.06,212.14900000000011
1319.18,225.820142857143
1321.3,213.33923809523822
1323.41,223.42266666666683
1325.53,238.45342857142873
1327.64,270.2434761904764
1329.75,302.6041904761907
1331.87,360.82333333333355
1333.98,355.9029523809526
1336.08,344.3213809523811
1338.19,326.55671428571446
1340.3,296.0870476190477
1342.4,244.48590476190486
1344.5,213.80252380952393
1346.6,173.80038095238103
1348.7,171.7672380952382
1350.8,173.2764761904763
1352.9,160.61519047619058
1354.99,165.4994285714287
1357.09,166.0737142857144
1359.18,184.7201904761906
1361.27,185.82123809523816
1363.36,156.42628571428577
1365.45,136.67914285714295
1367.54,150.62861904761917
1369.62,181.80009523809537
1371.7,231.24209523809537
1373.79,267.9556190476192
1375.87,279.8945714285716
1377.95,309.3449047619049
1380.03,315.40314285714305
1382.1,308.4508571428573
1384.18,264.91734285714296
1386.25,199.32681904761913
1388.33,147.34661904761913
1390.4,116.2150952380953
1392.47,88.07584285714289
1394.54,76.64325714285717
1396.6,49.774795238095244
1398.67,20.946538095238132
1400.74,36.3966047619048
1402.8,62.1247952380953
1404.86,80.60720476190481
1406.92,90.224480952381
1408.98,83.83333333333337
1411.04,65.48083333333338
1413.09,76.50000000000006
1415.15,99.12789047619053
1417.2,113.93522380952389
1419.25,127.77809047619056
1421.3,129.08402380952387
1423.35,102.89949047619054
1425.4,86.55672380952385
1427.45,74.81626190476196
1429.49,71.81942380952385
1431.54,80.65978571428576
1433.58,68.47853809523812
1435.62,55.36904285714289
1437.66,47.5198428571429
1439.7,58.45265714285719
1441.74,57.54626666666671
1443.77,69.08407142857146
1445.81,63.68269523809527
1447.84,67.8158047619048
1449.87,59.67123333333336
1451.9,52.34149523809526
1453.93,49.20497619047623
1455.96,54.21103333333339
1457.98,93.54708571428581
1460.01,118.97235238095246
1462.03,146.67397142857152
1464.05,172.60136190476203
1466.07,201.8469809523811
1468.09,218.02638095238112
1470.11,265.3743809523811
1472.13,265.0310952380954
1474.14,294.46938095238113
1476.16,313.01919047619066
1478.17,318.5347619047621
1480.18,296.06019047619066
1482.19,253.16371428571438
1484.2,167.2234952380953
1486.21,107.47466190476197
1488.21,87.19948571428579
1490.22,83.7285571428572
1492.22,88.82064571428576
1494.22,77.28235714285715
1496.22,40.82526952380953
1498.22,20.541871428571454
1500.22,20.76273380952382
1502.22,7.771047619047626
1504.21,9.659593809523814
1506.21,-0.907395238095233
1508.2,21.067995714285757
1510.19,44.96442428571431
1512.18,44.01796476190477
1514.17,32.27435380952382
1516.16,11.446191428571423
1518.14,-11.753826190476174
1520.13,4.577791428571446
1522.11,33.05863904761908
1524.09,48.30666000000003
1526.07,54.13039333333335
1528.05,49.338495238095256
1530.03,36.739771428571444
1532.01,20.619347619047637
1533.98,16.69103809523811
1535.96,25.00212190476192
1537.93,16.361931428571445
1539.9,28.436996190476222
1541.87,47.51307809523812
1543.84,53.39982952380956
1545.81,58.811745714285756
1547.78,65.51105523809525
1549.74,52.974366666666704
1551.7,74.15460000000006
1553.67,87.14758571428577
1555.63,99.09685714285722
1557.59,105.95554761904768
1559.55,95.05798095238102
1561.5,98.64310952380961
1563.46,127.2832857142858
1565.41,135.1224714285715
1567.37,131.59034761904766
1569.32,104.68809047619052
1571.27,78.56012857142862
1573.22,85.63601428571437
1575.17,94.15513809523816
1577.11,81.26189523809526
1579.06,92.71937142857149
1581.0,90.71978571428578
1582.95,96.2170857142858
1584.89,119.45065238095243
1586.83,101.4698571428572
1588.77,77.03833809523816
1590.7,92.58587142857147
1592.64,74.40001428571432
1594.58,72.10124523809532
1596.51,79.4293452380954
1598.44,99.88594761904781
