Raman Shift,Processed Intensity
331.095,40.416569999999574
333.909,-51.67808285714292
336.721,-41.823074285714206
339.531,20.103625714285762
342.339,56.86667523809527
345.145,70.18340095238096
347.949,68.48632571428573
350.751,18.20875238095236
353.55,-26.310443809523804
356.348,-8.969709523809515
359.144,-1.0949390476190182
361.937,31.465134285714374
364.729,116.29126476190486
367.518,142.87006000000008
370.306,200.4510333333335
373.091,290.5706952380954
375.874,360.4810476190478
378.656,398.43495238095255
381.435,376.16309523809537
384.212,281.7779314285715
386.988,175.63123428571433
389.761,87.40965142857146
392.532,18.08686
395.301,-16.695735238095246
398.068,-52.628100952380976
400.833,-42.06590857142857
403.596,-32.553697142857146
406.358,10.36553333333335
409.117,6.769238095238091
411.874,17.593519047619054
414.629,23.632976190476214
417.382,35.25506190476193
420.133,44.3048190476191
422.882,80.0095571428572
425.629,109.64526190476202
428.374,163.91806666666685
431.117,247.7256714285716
433.858,280.966323809524
436.597,292.39728571428583
439.334,256.01452380952395
442.069,206.38600000000008
444.802,153.3192857142858
447.533,163.2419523809525
450.262,182.62933333333348
452.989,240.958142857143
455.714,276.32490476190486
458.438,252.68338095238107
461.159,208.32187619047627
463.878,158.24356666666674
466.595,131.40427619047628
469.31,128.2367952380953
472.024,121.36497142857148
474.735,102.60334761904768
477.444,88.19576190476197
480.152,79.9576476190477
482.857,122.13340000000011
485.561,169.68247619047628
488.262,178.70686666666674
490.962,174.02377142857148
493.659,147.7358095238096
496.355,132.04133333333343
499.048,127.23390476190484
501.74,119.27400000000006
504.43,118.83666666666676
507.118,148.69228571428582
509.804,179.13476190476203
512.488,208.2207142857144
515.17,224.81576190476204
517.85,208.8807142857144
520.528,190.56719047619058
523.204,186.26441904761916
525.878,131.69502380952386
528.551,78.48672857142863
531.221,87.93338571428579
533.89,101.80510000000008
536.556,114.72897142857151
539.221,143.4750428571429
541.883,131.95545238095244
544.544,105.1302095238096
547.203,117.43512857142863
549.86,115.30620000000005
552.515,100.70228571428578
555.168,117.96395238095248
557.819,150.57338095238103
560.469,152.91766666666678
563.116,170.00290476190486
565.761,174.35880952380964
568.405,179.847142857143
571.047,202.2832380952382
573.687,205.00465714285724
576.324,157.06339523809532
578.96,134.60674285714293
581.594,118.5907476190477
584.227,145.01845714285724
586.857,173.75085238095247
589.485,160.40930476190482
592.112,132.52029523809531
594.737,135.65746666666675
597.359,122.01276666666676
599.98,150.4922476190477
602.599,145.43076190476197
605.216,125.59088571428579
607.831,109.2588952380953
610.445,117.14916190476197
613.056,112.45177619047627
615.666,103.11870952380957
618.274,96.95864761904768
620.88,90.35169047619054
623.484,108.29606666666677
626.086,162.02836666666678
628.686,237.02243809523821
631.284,259.32371428571446
633.881,301.0726190476192
636.476,284.8854285714287
639.068,259.52080952380965
641.659,232.4041142857144
644.249,188.05537619047627
646.836,148.99465714285725
649.421,141.45641428571435
652.005,122.67426666666674
654.587,99.64401904761908
657.166,66.40867657142857
659.745,13.201904190476201
662.321,-10.50474876190475
664.895,-1.2873632380952085
667.468,34.42051790476195
670.038,57.947347047619076
672.607,65.95490514285719
675.174,58.05723333333336
677.739,58.24950952380958
680.303,68.05043809523815
682.864,94.59786190476197
685.424,102.36300952380957
687.982,73.19810000000001
690.538,47.336266666666695
693.092,42.77278857142859
695.645,32.45511904761908
698.195,27.997587619047632
700.744,26.776507142857138
703.291,-2.2603128571428526
705.836,-3.260226190476183
708.38,-5.846686190476193
710.921,7.785533809523821
713.461,5.2513066666666735
715.999,20.07033809523812
718.535,32.19103380952384
721.069,47.609521904761934
723.602,47.988682380952426
726.133,62.515308571428605
728.662,61.94774285714291
731.189,88.711180952381
733.714,100.13543333333338
736.238,96.0744047619048
738.759,92.7628904761905
741.279,84.53121428571433
743.798,72.80497142857148
746.314,63.05750952380955
748.829,60.61932857142861
751.342,63.773480952381014
753.853,78.37420000000006
756.362,94.22856190476196
758.869,102.81030000000005
761.375,84.59324761904767
763.879,84.86106190476195
766.381,71.65921428571431
768.882,49.414080952380985
771.38,61.07610952380958
773.877,63.45293809523813
776.372,62.11421428571434
778.866,80.86799523809528
781.357,82.61730952380958
783.847,83.0273714285715
786.335,103.04911904761912
788.821,103.06225714285722
791.306,105.87519523809533
793.789,128.9155238095239
796.27,164.65850476190485
798.749,175.48409523809534
801.227,189.9154761904763
803.702,204.52328571428586
806.176,200.8784761904763
808.649,204.88528571428583
811.119,195.0673333333334
813.588,159.13847619047627
816.055,144.81304761904772
818.521,131.6145238095239
820.984,139.49551714285724
823.446,113.64672428571433
825.906,91.02106761904767
828.365,87.19021380952387
830.821,101.77359142857152
833.276,119.29548619047627
835.729,148.23304095238097
838.181,128.06323809523815
840.631,130.16819047619055
843.079,128.40600000000006
845.525,135.8725238095239
847.97,133.75964761904768
850.412,110.8783952380953
852.854,76.70623333333337
855.293,39.62570476190479
857.731,45.92417904761909
860.167,48.26958619047621
862.601,60.66389142857147
865.034,53.53743285714286
867.465,44.130158095238116
869.894,35.15834333333339
872.321,69.33820761904767
874.747,91.62429047619055
877.171,131.06625238095245
879.594,108.47594761904766
882.014,99.37936190476196
884.433,87.73144761904767
886.851,81.58196190476198
889.266,113.93340952380963
891.68,142.64536190476198
894.092,170.57738095238108
896.503,195.73200000000014
898.912,185.15971428571436
901.319,172.14882857142868
903.724,150.9402333333334
906.128,89.34622857142863
908.53,92.94085238095244
910.931,85.15542857142863
913.329,82.0403714285715
915.726,93.36051428571433
918.122,95.26156666666671
920.516,60.07979047619052
922.908,66.62760476190482
925.298,62.24130000000005
927.687,92.7334476190477
930.074,90.77358571428576
932.459,94.4599190476191
934.843,85.17637142857147
937.225,83.97343809523814
939.605,67.18752380952387
941.984,86.01228571428575
944.361,87.02180000000004
946.736,86.790580952381
949.11,93.70259047619052
951.482,75.47505238095239
953.853,56.0633047619048
956.222,51.32755714285718
958.589,64.03240952380956
960.954,85.13322857142863
963.318,105.58526380952387
965.68,83.58179238095242
968.041,61.030408571428595
970.4,47.02917904761908
972.757,42.9618228571429
975.113,72.73580057142863
977.467,81.25858580952384
979.819,57.532814476190495
982.17,22.132518000000005
984.519,-4.130183142857142
986.866,-11.300401809523787
989.212,3.8147524761904927
991.556,25.694080952380993
993.899,63.14915666666673
996.24,94.42065428571435
998.579,105.9391571428572
1000.92,104.51627619047623
1003.25,98.77313238095243
1005.59,72.99735619047622
1007.92,52.66660761904764
1010.25,29.497115238095247
1012.58,22.871121904761935
1014.91,39.646951428571484
1017.24,71.30220380952386
1019.56,77.12343809523814
1021.88,72.11142857142862
1024.2,73.45727142857149
1026.52,101.39950000000007
1028.84,126.70021428571435
1031.16,143.54996666666676
1033.48,164.04405714285724
1035.79,160.46776190476203
1038.1,178.34471428571442
1040.41,200.67438095238109
1042.72,202.2182857142858
1045.03,197.35642857142867
1047.33,181.18309523809532
1049.64,154.7924761904763
1051.94,157.5644761904763
1054.24,152.3072380952382
1056.54,183.87638095238106
1058.84,192.55633333333344
1061.13,168.154761904762
1063.43,145.5272857142858
1065.72,161.10057142857153
1068.01,163.20600000000013
1070.3,192.60338095238106
1072.59,199.71947619047629
1074.87,191.40914285714297
1077.16,197.62228571428588
1079.44,217.1658571428573
1081.72,261.2280476190478
1084.0,307.9968571428574
1086.28,373.89814285714317
1088.56,493.4533333333337
1090.84,640.7072857142861
1093.11,727.7046190476195
1095.38,769.0140952380957
1097.65,707.2519047619052
1099.92,621.1768095238099
1102.19,528.0242380952384
1104.46,453.8387619047621
1106.72,405.90266666666696
1108.98,403.7368095238098
1111.24,435.1477142857146
1113.5,510.6564285714288
1115.76,546.8310000000004
1118.02,571.9540952380955
1120.28,549.1651904761908
1122.53,532.175285714286
1124.78,498.88614285714317
1127.03,451.8186190476192
1129.28,377.58809523809543
1131.53,323.66795238095256
1133.77,248.38819047619063
1136.02,221.26947619047635
1138.26,209.6421904761906
1140.5,219.21761904761917
1142.74,237.087523809524
1144.98,261.8207619047621
1147.22,280.5091904761906
1149.45,296.2927619047621
1151.69,266.6447142857144
1153.92,225.276761904762
1156.15,181.09052380952392
1158.38,154.1310000000001
1160.61,148.49061904761916
1162.83,160.21438095238105
1165.06,143.44245238095246
1167.28,126.98193333333339
1169.5,88.496980952381
1171.72,94.7947714285715
1173.94,109.82529523809532
1176.16,107.11032857142861
1178.37,97.98093809523814
1180.58,77.67325714285717
1182.8,50.28053809523815
1185.01,56.80111904761908
1187.22,67.6615142857143
1189.42,55.47936190476193
1191.63,39.53883809523811
1193.84,25.648123809523828
1196.04,29.853638095238118
1198.24,46.059066666666695
1200.44,32.50164761904762
1202.64,17.7997
1204.84,-0.14253809523809036
1207.03,1.579366666666699
1209.23,26.203428571428606
1211.42,46.01540952380954
1213.61,46.825142857142886
1215.8,55.29973333333337
1217.99,62.20170952380956
1220.18,83.53189047619053
1222.36,86.86260952380955
1224.55,68.86163333333337
1226.73,43.24455714285716
1228.91,49.060180952381
1231.09,62.50071904761911
1233.27,89.56783809523816
1235.44,90.35850000000005
1237.62,98.16053333333339
1239.79,98.21401428571436
1241.96,107.28269047619054
1244.13,109.32144761904766
1246.3,102.76115238095244
1248.47,93.46166190476197
1250.64,97.13981904761913
1252.8,119.70309047619057
1254.96,148.34453809523822
1257.13,191.21000000000015
1259.29,225.30271428571444
1261.44,271.6734761904763
1263.6,269.9440952380954
1265.76,247.7369523809525
1267.91,230.8172000000001
1270.06,199.85485238095248
1272.22,145.6631000000001
1274.37,127.95941428571435
1276.51,117.84255714285723
1278.66,125.17352857142866
1280.81,147.2893857142858
1282.95,140.43163333333337
1285.09,107.55638571428578
1287.23,84.76242380952385
1289.37,78.48243333333339
1291.51,94.62493809523816
1293.65,113.09855714285722
1295.78,125.95448571428581
1297.92,131.81594285714294
1300.05,127.06752380952389
1302.18,120.04686666666673
1304.31,108.42412857142864
1306.44,106.72716190476199
1308.57,132.91191904761916
1310.69,150.7921142857144
1312.82,162.7047000000001
1314.94,178.46329523809533
1317.06,183.309761904762
1319.18,196.48604761904772
1321.3,212.51942857142868
1323.41,219.36614285714296
1325.53,216.50595238095252
1327.64,246.84728571428587
1329.75,294.06042857142876
1331.87,309.9584285714287
1333.98,309.40180952380973
1336.08,307.39428571428584
1338.19,293.98671428571447
1340.3,276.03957142857155
1342.4,243.50838095238106
1344.5,174.3010952380953
1346.6,147.0399142857144
1348.7,116.96598571428578
1350.8,118.22482857142865
1352.9,121.7238714285715
1354.99,121.51363809523818
1357.09,120.97755714285725
1359.18,154.78519047619056
1361.27,132.03399047619055
1363.36,125.77393333333342
1365.45,126.05462857142865
1367.54,134.7353142857144
1369.62,158.48441904761916
1371.7,194.39913333333345
1373.79,207.52880952380966
1375.87,235.63680952380966
1377.95,253.86752380952396
1380.03,258.079142857143
1382.1,233.36800000000014
1384.18,193.9257142857144
1386.25,167.27694285714293
1388.33,139.70772857142865
1390.4,104.83780476190482
1392.47,81.0482285714286
1394.54,49.19625523809526
1396.6,22.091595714285745
1398.67,18.924386666666678
1400.74,18.265599523809545
1402.8,30.54319619047623
1404.86,42.89924809523813
1406.92,56.90417904761908
1408.98,61.89017142857146
1411.04,43.8558523809524
1413.09,46.13300952380956
1415.15,51.00564285714289
1417.2,42.47181428571433
1419.25,65.91047142857148
1421.3,93.65267619047626
1423.35,86.41024761904767
1425.4,104.99007142857148
1427.45,92.24662380952384
1429.49,58.51037619047623
1431.54,58.82586190476195
1433.58,64.0472047619048
1435.62,47.40919761904766
1437.66,39.955995238095255
1439.7,37.20795476190479
1441.74,24.685242857142885
1443.77,46.14588333333338
1445.81,64.06240000000003
1447.84,68.52610000000003
1449.87,45.6282285714286
1451.9,59.60266666666671
1453.93,61.159728571428616
1455.96,71.81907142857149
1457.98,88.48124285714292
1460.01,111.66565714285721
1462.03,114.27299047619057
1464.05,156.1081523809525
1466.07,189.35740952380962
1468.09,201.87385714285728
1470.11,234.41504761904775
1472.13,245.26185714285725
1474.14,272.45814285714306
1476.16,311.6658571428573
1478.17,328.5952857142859
1480.18,290.67085714285724
1482.19,248.55520952380962
1484.2,155.0057571428572
1486.21,109.11404761904768
1488.21,88.73310952380957
1490.22,73.24029047619052
1492.22,56.72681428571432
1494.22,47.28450952380953
1496.22,28.814445714285736
1498.22,17.741743333333346
1500.22,22.444120000000016
1502.22,24.013618571428594
1504.21,33.1138723809524
1506.21,19.40866714285715
1508.2,29.419079047619064
1510.19,30.2854104761905
1512.18,33.6243604761905
1514.17,28.14797238095239
1516.16,16.330440952380943
1518.14,-4.734866666666653
1520.13,5.331316190476213
1522.11,28.95608000000003
1524.09,47.32857761904764
1526.07,42.63812761904764
1528.05,45.359933333333366
1530.03,43.588400000000014
1532.01,46.79905714285718
1533.98,53.13423809523812
1535.96,44.49835714285716
1537.93,24.081628571428602
1539.9,52.217442857142906
1541.87,67.14377142857148
1543.84,92.67030952380958
1545.81,98.3211666666667
1547.78,75.4777428571429
1549.74,60.52148095238101
1551.7,73.45321428571434
1553.67,72.98777142857149
1555.63,91.07863809523815
1557.59,96.10745714285721
1559.55,95.3133095238096
1561.5,129.79261904761913
1563.46,151.68947619047628
1565.41,156.14828571428578
1567.37,157.2656571428572
1569.32,131.8999190476191
1571.27,101.861980952381
1573.22,112.48674761904769
1575.17,129.29978095238104
1577.11,126.11255238095244
1579.06,127.35503809523814
1581.0,107.21964761904768
1582.95,97.32697142857151
1584.89,113.34563809523817
1586.83,121.70607619047625
1588.77,123.31504285714294
1590.7,134.1742095238096
1592.64,125.80952380952391
1594.58,130.53228571428588
1596.51,131.13028571428592
1598.44,122.10552380952396
