Raman Shift,Processed Intensity
331.095,56.87879447578416
333.909,-1.2204099550690444
336.721,-31.29438874911648
339.531,-27.50980290881853
342.339,47.466697891760305
345.145,105.92086192353736
347.949,180.13846011420037
350.751,201.92910123620686
353.55,209.57861852334236
356.348,190.70621819205462
359.144,211.59781843896553
361.937,205.1108170098296
364.729,221.19790638752647
367.518,229.0975556467397
370.306,310.3816351657724
373.091,402.9554222907559
375.874,506.0099879522386
378.656,514.9269642341478
381.435,471.421407180861
384.212,341.7322786518848
386.988,206.33673770034966
389.761,125.18824147531132
392.532,48.573693743096555
395.301,18.303926741996747
398.068,9.666087798853368
400.833,-2.1954026257735677
403.596,1.0068690123230226
406.358,-13.915731633178893
409.117,-46.675499437318194
411.874,-43.222668999340385
414.629,-48.07874306924214
417.382,-17.336493708868147
420.133,15.768602288245802
422.882,18.04882618211286
425.629,81.41182071483627
428.374,158.24152874528227
431.117,217.01722929865446
433.858,273.02782008733766
436.597,321.80038574602577
439.334,318.38590892399543
442.069,332.644981377377
444.802,344.6763722042815
447.533,333.4360722704141
450.262,324.83252911085856
452.989,375.48854849853524
455.714,375.2174817269438
458.438,383.16607955958307
461.159,364.52877475078776
463.878,340.16672647133464
466.595,295.65543616261084
469.31,278.99903005745955
472.024,257.9635893200757
474.735,272.50571828113016
477.444,264.15349362527877
480.152,282.57788976913935
482.857,299.5451566202278
485.561,308.53586400256336
488.262,335.6020413203655
490.962,365.89098388842694
493.659,387.3595354529489
496.355,426.29789452191017
499.048,449.28199212400114
501.74,462.8401552818491
504.43,510.11977048523386
507.118,549.7444233547822
509.804,611.0043716389891
512.488,693.3327324969505
515.17,796.4007174001267
517.85,881.9271527484079
520.528,962.6784766766395
523.204,1001.1830215754508
525.878,1005.7786299454078
528.551,1002.2793178702132
531.221,1038.1181289660976
533.89,1068.3947502359779
536.556,1073.6374136378809
539.221,1087.6124167010166
541.883,1106.4193574275473
544.544,1105.6816072896017
547.203,1115.4034508929572
549.86,1075.1129399264378
552.515,1085.861889968442
555.168,1073.8925439601576
557.819,1094.161378535904
560.469,1110.9105294011088
563.116,1171.7154071864657
565.761,1196.2465990163873
568.405,1282.5555796012673
571.047,1262.1223270916403
573.687,1244.2838913133019
576.324,1202.5677239071856
578.96,1192.405960850203
581.594,1157.2306573570127
584.227,1120.2833084960898
586.857,1078.7100840915082
589.485,1048.847539815196
592.112,1021.2702330411016
594.737,1005.9811958422142
597.359,969.8405032256783
599.98,936.3747937488706
602.599,946.9677425164195
605.216,973.7648198915276
607.831,1008.5780502072807
610.445,1085.886008573204
613.056,1131.643341491343
615.666,1199.0426684247427
618.274,1295.9907690801933
620.88,1432.060961167192
623.484,1558.8264305378284
626.086,1705.479275612398
628.686,1802.830504185964
631.284,1879.8338397587231
633.881,1894.395242152089
636.476,1900.2776662200258
639.068,1834.3867729413155
641.659,1711.9137833689829
644.249,1526.1926182940056
646.836,1287.3189426709164
649.421,1050.3406386148563
652.005,832.686373636699
654.587,648.5941688781977
657.166,514.4447292518703
659.745,406.19001167614124
662.321,317.8294123580981
664.895,240.93357312386888
667.468,157.59675917756795
670.038,116.34161781263037
672.607,103.7382228374222
675.174,92.59454757228104
677.739,68.48027117988886
680.303,44.583918328991786
682.864,39.52237981048802
685.424,64.05520201459785
687.982,83.32269071347037
690.538,90.89354289544463
693.092,64.38390717075163
695.645,46.45739655815987
698.195,13.825101271625044
700.744,3.8646491259833056
703.291,-3.379781676402672
705.836,15.421599338547367
708.38,7.741352459084737
710.921,23.1948221021712
713.461,29.82586699904823
715.999,52.440210232885875
718.535,51.224503562138125
721.069,66.36539174390145
723.602,55.81143400012343
726.133,64.65407310286264
728.662,54.365747316691795
731.189,28.65704996014756
733.714,-5.618491985199853
736.238,-39.321544027581695
738.759,-51.83647127025006
741.279,-34.45227408811388
743.798,-24.17209944954857
746.314,-30.951329383849043
748.829,-16.221387324109855
751.342,-21.746880212166616
753.853,-28.577981848177387
756.362,-17.43138766877155
758.869,-5.499840953770217
761.375,-27.023563794816255
763.879,-20.09978330209742
766.381,-13.492257811071795
768.882,-15.774136422523497
771.38,-29.804151875947355
773.877,-19.012337232460595
776.372,-14.828599700565519
778.866,8.174419823797962
781.357,54.85277293148056
783.847,108.68167749340591
786.335,112.13646764431905
788.821,103.59735329035539
791.306,105.87322723565012
793.789,126.77309135657606
796.27,208.39176849026126
798.749,299.01466194216437
801.227,380.0225149936464
803.702,430.7485513619222
806.176,475.7641870885777
808.649,493.83140909476333
811.119,517.6646775459003
813.588,500.8833044068706
816.055,443.297165330536
818.521,413.62098297483453
820.984,389.7600388912999
823.446,345.8101711278657
825.906,327.5339623078612
828.365,299.932165804247
830.821,235.5770366757547
833.276,197.46947212683472
835.729,189.2294853009496
838.181,173.47715526434013
840.631,186.07071984693812
843.079,183.86847800709074
845.525,139.06212076771203
847.97,75.46244310481688
850.412,79.54696059795651
852.854,76.2218117949385
855.293,82.82175581464003
857.731,90.58636042601097
860.167,67.75523774612657
862.601,47.806137081092174
865.034,50.978752052660184
867.465,58.22709915342648
869.894,42.88618201630402
872.321,37.433893779236996
874.747,38.11006230705971
877.171,53.249781127639835
879.594,50.378645129925644
882.014,63.45084340485141
884.433,67.99201399100434
886.851,75.9563843345793
889.266,101.72676889218587
891.68,106.20980482889672
894.092,116.07404485915094
896.503,110.08328818289988
898.912,105.95372094555592
901.319,120.40153288842544
903.724,154.28577209437435
906.128,167.22739020968925
908.53,195.8473352849851
910.931,184.81416842563272
913.329,153.12977568029646
915.726,154.510318024689
918.122,146.29099086915107
920.516,156.52125975670128
922.908,161.10771510870404
925.298,154.48073649435037
927.687,133.07068070965806
930.074,130.02216509456753
932.459,110.76549370717521
934.843,141.8737977836904
937.225,135.9201761983818
939.605,132.9538835425824
941.984,124.54794677510836
944.361,123.22773425364221
946.736,122.04238190896945
949.11,157.27907656206503
951.482,144.60591066976053
953.853,136.881403737068
956.222,141.15449991998616
958.589,146.85504181877627
960.954,113.36519665219862
963.318,146.16231100317464
965.68,157.77128937397765
968.041,156.24078226523443
970.4,131.52413615969
972.757,93.52701017263439
975.113,46.20261174994448
977.467,32.64693236613698
979.819,13.622554650987922
982.17,18.46341189710847
984.519,-5.020452432479715
986.866,2.552352377374973
989.212,13.32504132497911
991.556,38.72646351584649
993.899,43.56634082758319
996.24,66.13050794153105
998.579,69.08567618393499
1000.92,71.00324498615828
1003.25,46.883113344900494
1005.59,68.53463413955797
1007.92,53.71947321148582
1010.25,36.67542082421255
1012.58,35.402107885558735
1014.91,41.80386502689521
1017.24,37.21353406335584
1019.56,65.29723183499891
1021.88,66.24482833368052
1024.2,64.1509010204029
1026.52,54.15759390457083
1028.84,78.8831909089597
1031.16,83.27926066325881
1033.48,110.10684891666529
1035.79,107.4126709504701
1038.1,129.7195897049353
1040.41,144.02661771569205
1042.72,181.1422523834774
1045.03,217.0654302914836
1047.33,205.79505295128092
1049.64,173.61570302492828
1051.94,180.00240816613905
1054.24,188.90635724239928
1056.54,213.13585465232268
1058.84,218.35632226205462
1061.13,183.47125372262735
1063.43,144.00316878730814
1065.72,126.14123429562164
1068.01,125.78888515736935
1070.3,163.18287390807836
1072.59,187.08374883587499
1074.87,209.34728448931833
1077.16,187.68638837570074
1079.44,178.52824575459522
1081.72,181.53813109806174
1084.0,222.95274336038028
1086.28,301.10401743825923
1088.56,396.8000784881831
1090.84,490.0395295771011
1093.11,587.9638345712099
1095.38,613.3811295961627
1097.65,600.0519392591914
1099.92,523.3082262045518
1102.19,415.148631145169
1104.46,364.38133194190027
1106.72,347.05261696851267
1108.98,355.6373632385639
1111.24,424.18189548466535
1113.5,461.7801785710785
1115.76,462.4309622872661
1118.02,515.9901642366797
1120.28,525.4565860588921
1122.53,528.9242963183813
1124.78,521.4397752980867
1127.03,471.7162026500964
1129.28,401.5144117130096
1131.53,363.21432001976837
1133.77,307.9577883769157
1136.02,257.3152894676614
1138.26,245.04781455018042
1140.5,277.3449706321028
1142.74,317.4916490735816
1144.98,374.77278942845305
1147.22,405.7114766187333
1149.45,408.4498952519682
1151.69,393.46361727192266
1153.92,389.13303246640567
1156.15,352.64811230843225
1158.38,332.05603094024445
1160.61,303.023071871615
1162.83,276.215582297197
1165.06,227.49045122339567
1167.28,178.75225426190764
1169.5,127.47706508992474
1171.72,121.56960024367436
1173.94,122.02988772148387
1176.16,95.0961260630304
1178.37,60.62563866668893
1180.58,35.952018583072686
1182.8,29.647035213330355
1185.01,31.6158743407791
1187.22,33.19237816253417
1189.42,9.8057138925667
1191.63,-6.495814778097383
1193.84,0.9076152073951107
1196.04,-6.364079340035005
1198.24,-18.548028464425897
1200.44,-27.500311481019025
1202.64,-15.886431520868655
1204.84,28.0091601891761
1207.03,78.09258443931344
1209.23,65.46052853290234
1211.42,68.87643407674159
1213.61,49.29430381896441
1215.8,53.00155610598608
1217.99,60.52378410135384
1220.18,94.71999119507586
1222.36,85.02068355579922
1224.55,102.28501030203734
1226.73,111.84837986387879
1228.91,106.33198110658941
1231.09,79.88087588279564
1233.27,81.78304396561703
1235.44,89.08842798179694
1237.62,128.94226405912718
1239.79,190.3469839024399
1241.96,248.16221210769572
1244.13,301.05714442845124
1246.3,364.9867355661386
1248.47,465.0012202936723
1250.64,598.4842060076362
1252.8,743.6288605185514
1254.96,893.0093379363946
1257.13,1067.4855378894429
1259.29,1225.2983409335989
1261.44,1374.0696058664753
1263.6,1474.0402622795696
1265.76,1472.2131650152126
1267.91,1377.019758147311
1270.06,1305.5105484859102
1272.22,1210.021769557941
1274.37,1109.1277598736874
1276.51,984.6885792884814
1278.66,846.4690539358367
1280.81,697.948297351048
1282.95,619.4625649281238
1285.09,576.1576321862472
1287.23,558.7030777981386
1289.37,539.3398999517538
1291.51,548.5471803310288
1293.65,558.1373195251992
1295.78,577.8274629143057
1297.92,620.7633075070801
1300.05,649.4714802074059
1302.18,667.9071541760065
1304.31,727.4064270969038
1306.44,762.7339375391055
1308.57,790.5590527468707
1310.69,810.8844373823513
1312.82,790.0460508396659
1314.94,797.2845731303935
1317.06,822.4120688643131
1319.18,824.7167464682339
1321.3,844.6296221667305
1323.41,841.5340411057373
1325.53,802.8609127618527
1327.64,777.2315653992653
1329.75,729.8863148123885
1331.87,660.6844616399301
1333.98,620.6280982027663
1336.08,597.243058198964
1338.19,568.0074854464212
1340.3,518.6851645302668
1342.4,462.2302800216971
1344.5,355.35884236347715
1346.6,284.5486851840119
1348.7,237.8013673733185
1350.8,211.7374084923365
1352.9,179.4058098965195
1354.99,183.2840520499019
1357.09,168.5161870772631
1359.18,185.57950274485597
1361.27,192.7130912030441
1363.36,190.39403677655082
1365.45,174.0040799451881
1367.54,168.9248527531588
1369.62,177.63311421835556
1371.7,194.08170002737575
1373.79,199.03285318291546
1375.87,244.91536417497377
1377.95,258.11028258062765
1380.03,250.47472390190455
1382.1,247.38948592746056
1384.18,197.9971412847392
1386.25,156.82108237308557
1388.33,128.38456629685288
1390.4,98.87737884613375
1392.47,46.9653556203441
1394.54,36.69514124704483
1396.6,4.732281934097955
1398.67,13.027889450386738
1400.74,7.199590820835056
1402.8,29.436288061490814
1404.86,17.831490728491644
1406.92,40.47855400580579
1408.98,54.327824530224234
1411.04,80.80569283768591
1413.09,114.52888390483781
1415.15,152.2568429286955
1417.2,183.22507348725412
1419.25,239.3356185572477
1421.3,268.49039867475926
1423.35,297.0197881910717
1425.4,319.9683343856573
1427.45,325.8090480077399
1429.49,324.205312865472
1431.54,306.2013668436889
1433.58,255.55564006451823
1435.62,199.26456923846695
1437.66,184.75307868217465
1439.7,188.73172800283328
1441.74,200.2919550207023
1443.77,205.5251282154279
1445.81,205.80826583903445
1447.84,176.85165979081557
1449.87,166.60364234937038
1451.9,160.29821004748896
1453.93,156.93121897561855
1455.96,205.308008656752
1457.98,280.5672163975055
1460.01,379.27602021062967
1462.03,478.00157221370864
1464.05,579.6919558373811
1466.07,692.5333335097555
1468.09,863.6642371979674
1470.11,1125.127954187829
1472.13,1381.8249128634798
1474.14,1610.6555446775117
1476.16,1796.7107651687134
1478.17,1917.08150259886
1480.18,1962.7158456371317
1482.19,1969.5619053302373
1484.2,1830.567819929684
1486.21,1588.5865216238114
1488.21,1290.42336041267
1490.22,1017.7884898876787
1492.22,756.1063958684063
1494.22,561.3730440869895
1496.22,415.584456443966
1498.22,290.4986205974519
1500.22,186.8735900284994
1502.22,164.27701267789166
1504.21,123.60994529722188
1506.21,92.05923922854618
1508.2,64.14516427926992
1510.19,46.57855640656203
1512.18,22.35606063986006
1514.17,43.617278765283345
1516.16,11.78763129576214
1518.14,-5.659732939786863
1520.13,-30.203931969186442
1522.11,-16.990631564015075
1524.09,-4.117755285415569
1526.07,17.221659253434154
1528.05,13.215649925182106
1530.03,14.195233487278756
1532.01,-9.794167209523266
1533.98,-10.564153155530676
1535.96,23.597601835910154
1537.93,25.879729693998115
1539.9,47.70906935945982
1541.87,61.70304424400615
1543.84,65.0506111183588
1545.81,73.36939947647147
1547.78,103.70570804260342
1549.74,99.4868822307767
1551.7,105.23559636613959
1553.67,122.61746923966666
1555.63,156.10772728190818
1557.59,209.8483439272129
1559.55,238.98136945414421
1561.5,249.93464177827605
1563.46,255.85035438784075
1565.41,251.96600523176903
1567.37,230.99534560771872
1569.32,240.3188528596363
1571.27,201.50753640864468
1573.22,165.56102949822298
1575.17,159.9552047489076
1577.11,150.4040754272778
1579.06,120.81217290541758
1581.0,98.98882888228377
1582.95,97.6481718907869
1584.89,101.07579047153718
1586.83,123.22396777516474
1588.77,121.18786854558812
1590.7,98.3007737223395
1592.64,59.70550551907354
1594.58,57.973471549697024
1596.51,54.31894704973547
1598.44,35.07526185960046
