Raman Shift,Processed Intensity
331.095,171.055953358612
333.909,77.80923268050037
336.721,73.26909685999271
339.531,113.10222966712718
342.339,114.16582526915045
345.145,127.29331961958769
347.949,139.91345518062553
350.751,167.78839326455864
353.55,213.20420732761113
356.348,278.44709054947725
359.144,305.08908722238357
361.937,319.6071574734751
364.729,300.6689086538854
367.518,315.79927910875085
370.306,343.42817432818356
373.091,427.4619126220646
375.874,536.4260993662651
378.656,551.8942155345726
381.435,521.1066824211093
384.212,425.780402553215
386.988,286.0611577471914
389.761,165.80934049737834
392.532,103.17139965094248
395.301,9.722714654094943
398.068,-29.103815915963878
400.833,-31.541566771485122
403.596,-37.29969163643409
406.358,-19.182155868052632
409.117,-16.040105777436565
411.874,-68.67662291920533
414.629,-101.08481374145413
417.382,-114.16209140496221
420.133,-60.42446533702332
422.882,27.231538305063168
425.629,83.19551395416147
428.374,118.90504525007236
431.117,172.22662404668472
433.858,214.6937122762738
436.597,253.9352800042825
439.334,280.96148634123756
442.069,256.4969794022909
444.802,194.9332438857955
447.533,158.42380579475184
450.262,159.64610382491492
452.989,170.3728845624173
455.714,217.234073871874
458.438,253.81198161781322
461.159,249.54603019563956
463.878,173.78034020545556
466.595,124.43036374493931
469.31,80.98285103554008
472.024,78.16248371534994
474.735,135.59850813197545
477.444,154.6818530446585
480.152,126.70796959964082
482.857,113.97205225789685
485.561,91.24521210381954
488.262,107.39350729676198
490.962,131.56840209400434
493.659,158.96866378349432
496.355,179.98322281491664
499.048,183.76260435933136
501.74,169.40940748786443
504.43,176.31164149323968
507.118,222.7617764970305
509.804,287.9091273902377
512.488,370.331285392926
515.17,486.0817400900419
517.85,532.2613109910512
520.528,590.4943409943339
523.204,622.262032708727
525.878,581.9024514417324
528.551,577.0390996162978
531.221,611.5333007114082
533.89,628.3889641550581
536.556,647.8478264077053
539.221,623.1513587123809
541.883,614.6836272257597
544.544,600.3522483873198
547.203,573.8741061932542
549.86,577.584878994202
552.515,577.0580901024923
555.168,577.4860631612942
557.819,629.1084965613841
560.469,668.8315140483992
563.116,690.8943343777009
565.761,688.0597504930565
568.405,700.137942038647
571.047,671.0340973948942
573.687,651.2722261904682
576.324,679.7570670523965
578.96,672.4407572609243
581.594,646.89426430914
584.227,642.8788174625997
586.857,603.9649583665696
589.485,580.1992107008891
592.112,567.4374165014865
594.737,551.7256915295297
597.359,539.6337615929478
599.98,527.6359179155743
602.599,548.7300677443923
605.216,576.5329754329641
607.831,583.8040749534366
610.445,622.3502347894955
613.056,628.7400466388472
615.666,667.2085903061825
618.274,756.4193414532765
620.88,828.8927460157629
623.484,938.7205089056092
626.086,1025.3751208088402
628.686,1092.5193849832513
631.284,1197.7207059609
633.881,1279.546330631536
636.476,1270.2776369450953
639.068,1218.9101368998881
641.659,1095.8677652450801
644.249,930.9076443736521
646.836,784.1677063582069
649.421,660.9286007010683
652.005,508.327983036761
654.587,368.6462324059212
657.166,268.4493113863459
659.745,133.96972146214466
662.321,68.01126791669276
664.895,28.23477710654106
667.468,10.72952802103373
670.038,33.3942076514536
672.607,52.508345422308594
675.174,32.01803444743109
677.739,43.25022756924909
680.303,16.436557207580336
682.864,-2.619984446496346
685.424,1.5502061918014078
687.982,-16.86902165939273
690.538,-21.265272512946467
693.092,6.926219991383732
695.645,10.93689211849778
698.195,2.8077182695142255
700.744,4.246365628041531
703.291,-14.515650095298497
705.836,-9.19914196764148
708.38,10.332285575008882
710.921,48.215105977339135
713.461,51.44302459030632
715.999,39.771751744339326
718.535,35.814252013009536
721.069,19.70742204813132
723.602,13.112101748198711
726.133,41.40356161728914
728.662,36.814371076357475
731.189,41.196314393573175
733.714,53.210878043228604
736.238,44.472119017021214
738.759,39.16572361153885
741.279,1.429970977640096
743.798,-14.168065234913684
746.314,-16.442029518554136
748.829,-5.586273339463787
751.342,-17.84251206523777
753.853,-36.92838831713516
756.362,-47.70413056042025
758.869,-17.410642072496103
761.375,-14.24092706764668
763.879,13.850382938298935
766.381,16.14702481142399
768.882,25.790145666758917
771.38,64.82591616388481
773.877,82.68171523111323
776.372,86.35660050394836
778.866,103.37368352546241
781.357,125.63726685142228
783.847,125.19474306018424
786.335,133.1889699530568
788.821,112.23921718324004
791.306,133.34592240857341
793.789,179.6049712538072
796.27,228.44578679668098
798.749,256.29799048258155
801.227,297.3056820868144
803.702,315.6131482483099
806.176,347.9362852890388
808.649,385.32449822391027
811.119,386.8749807230495
813.588,373.0660426931206
816.055,371.61424738246
818.521,335.3315484862096
820.984,310.0776653466787
823.446,267.85531529658533
825.906,248.1911602880068
828.365,234.46913447372367
830.821,238.93043845521993
833.276,213.72115257831365
835.729,193.65413594306779
838.181,138.7328301756054
840.631,135.86553939040232
843.079,135.10351967639485
845.525,131.78383048785008
847.97,112.29123365428222
850.412,77.5343781046588
852.854,73.18388935350549
855.293,97.0533161298763
857.731,131.48007700631752
860.167,120.03974036117029
862.601,80.26030434086533
865.034,26.05076253650782
867.465,13.748717279513357
869.894,29.78704055628714
872.321,50.741487303851954
874.747,67.28307199843539
877.171,81.41615952975667
879.594,88.19274655151685
882.014,90.61721902235945
884.433,95.55110974683134
886.851,94.28452258301036
889.266,104.39327093584416
891.68,127.2626829171561
894.092,129.5161684104146
896.503,146.01521470693524
898.912,162.14509642779376
901.319,175.0053473505036
903.724,191.12404175950064
906.128,207.60064722520497
908.53,212.2964964306923
910.931,194.40621137933044
913.329,188.5053180785983
915.726,157.8835755096195
918.122,131.54497126337378
920.516,106.1124790816591
922.908,93.25662592186973
925.298,96.50501140273514
927.687,127.05182725004852
930.074,162.32928150431007
932.459,147.3885465378885
934.843,122.47118326266332
937.225,89.05675581385435
939.605,93.81520813861744
941.984,107.36876439416164
944.361,115.10144839348868
946.736,108.87336495589466
949.11,89.06831459079808
951.482,80.06997961014599
953.853,68.21430071700979
956.222,70.6942345465618
958.589,34.750225492768095
960.954,47.24162991603066
963.318,70.78956892226802
965.68,103.205495427703
968.041,106.87214217603082
970.4,105.41018404129704
972.757,61.106805092683544
975.113,41.725218040243135
977.467,32.361802728260045
979.819,31.92229224764742
982.17,27.836054286444096
984.519,26.913229623163033
986.866,5.011394429671327
989.212,9.702225359156273
991.556,24.890548281635347
993.899,36.71910182007491
996.24,37.5685399729025
998.579,30.390770566923493
1000.92,20.994674662615807
1003.25,27.617540245145165
1005.59,54.97268639156141
1007.92,45.82089907606337
1010.25,2.5894860228834204
1012.58,-28.72295415511894
1014.91,-9.403667579761304
1017.24,-11.930499512176311
1019.56,22.266205321084726
1021.88,31.708368088198085
1024.2,29.727320917283123
1026.52,41.46381133978184
1028.84,63.34419721002973
1031.16,65.74711781531005
1033.48,82.19397450970769
1035.79,95.96798277653625
1038.1,134.63798619552244
1040.41,161.43941326713752
1042.72,187.98856757025737
1045.03,191.09215601506003
1047.33,190.41395995306834
1049.64,168.1415062871904
1051.94,153.2241671531906
1054.24,128.70649769639385
1056.54,133.49014527696727
1058.84,127.00052057996027
1061.13,147.90108777296928
1063.43,153.80765466380285
1065.72,170.6693295248058
1068.01,164.33995410766238
1070.3,152.2923938010524
1072.59,137.04711350259572
1074.87,156.98170587174764
1077.16,181.99756243983825
1079.44,223.3294018629647
1081.72,264.2595600796458
1084.0,307.21323284942787
1086.28,341.9013373391065
1088.56,405.32051656609383
1090.84,475.3245724132098
1093.11,561.5292319768116
1095.38,614.5502472482581
1097.65,592.6224471763221
1099.92,513.5997421105567
1102.19,422.6694139589513
1104.46,374.0664063455795
1106.72,365.882852863499
1108.98,355.49665294669467
1111.24,362.5238572658343
1113.5,372.866291219264
1115.76,416.6163212811448
1118.02,474.9616213495872
1120.28,530.5661295709822
1122.53,512.3795765928919
1124.78,502.6851090550467
1127.03,471.1469130803364
1129.28,413.1435520515183
1131.53,363.57749486411785
1133.77,310.1608346555122
1136.02,238.2724361054468
1138.26,231.6246065460773
1140.5,287.31071945296003
1142.74,329.9004569836634
1144.98,384.7731477544753
1147.22,382.7844379504472
1149.45,383.3139148163839
1151.69,361.8365396716465
1153.92,355.0178904487684
1156.15,329.7617851844468
1158.38,296.01981027244483
1160.61,252.21989633554222
1162.83,220.36156076415045
1165.06,187.96829311206443
1167.28,154.4685119207884
1169.5,108.90985487719877
1171.72,64.14965944738651
1173.94,50.66449112955979
1176.16,32.597766945035346
1178.37,52.569283691138935
1180.58,49.00855571791362
1182.8,33.82148603816245
1185.01,4.771323151772776
1187.22,-11.521334510907764
1189.42,-56.14996271712789
1191.63,-54.636392215138585
1193.84,-36.168900242636255
1196.04,-14.316498688752063
1198.24,29.304390785016494
1200.44,37.17278153845291
1202.64,40.24406048014953
1204.84,19.90235516645589
1207.03,6.579567567094273
1209.23,-17.958925502555303
1211.42,-9.042855644558813
1213.61,-9.668502605393314
1215.8,15.977483134065324
1217.99,46.27997110082492
1220.18,57.195335788362854
1222.36,77.63239563700472
1224.55,91.02382820477874
1226.73,98.42139486208112
1228.91,80.11497501014946
1231.09,67.15636220429633
1233.27,35.406869800953245
1235.44,39.96588898567188
1237.62,50.07563727731144
1239.79,104.83543444680299
1241.96,144.05883963391034
1244.13,190.2736506372496
1246.3,235.00761749002027
1248.47,289.9789179405011
1250.64,364.3818710277851
1252.8,481.696460181327
1254.96,597.3073801300106
1257.13,727.3611790493178
1259.29,817.9091149942049
1261.44,917.478583760558
1263.6,963.2159753180795
1265.76,957.0295302431662
1267.91,912.208386627984
1270.06,855.6606746085831
1272.22,760.0087537501577
1274.37,704.2082599561088
1276.51,618.8814380914084
1278.66,531.4599984154759
1280.81,461.23273491981695
1282.95,446.05981033233365
1285.09,409.8013268359125
1287.23,369.60303964416335
1289.37,331.8011181961979
1291.51,327.2078597323675
1293.65,333.06406953666897
1295.78,374.2295364172435
1297.92,419.46874628211526
1300.05,442.022310000644
1302.18,455.74981983640805
1304.31,477.65365826103744
1306.44,478.1170924823439
1308.57,471.18998802005785
1310.69,469.5888079958611
1312.82,486.7442314710329
1314.94,489.03924797457034
1317.06,526.3329663170264
1319.18,554.0558519757781
1321.3,590.4002025755242
1323.41,580.0344328926033
1325.53,571.9125979545454
1327.64,509.3696304253365
1329.75,475.073720847824
1331.87,431.8358407432652
1333.98,418.8954561870719
1336.08,376.15862233693747
1338.19,398.62655415143854
1340.3,350.9670542514982
1342.4,328.03832173422666
1344.5,272.46038003438434
1346.6,212.2817428810829
1348.7,128.97941358781532
1350.8,127.07793196154103
1352.9,104.91127835462498
1354.99,123.81334914535228
1357.09,110.02271793272052
1359.18,111.25406339789924
1361.27,107.93626383236256
1363.36,127.30763452315841
1365.45,137.74926037627188
1367.54,153.21356663522897
1369.62,146.9862229330331
1371.7,165.92423782029755
1373.79,200.02738662670345
1375.87,212.53344884627018
1377.95,202.10868361786174
1380.03,190.89544806284334
1382.1,156.0360060989276
1384.18,138.2439563016378
1386.25,126.13756452768257
1388.33,111.5254774906955
1390.4,82.93053157507029
1392.47,62.20879974503168
1394.54,28.978162263238573
1396.6,-11.191217828715025
1398.67,-22.348323991704092
1400.74,-22.49461725445053
1402.8,-10.155463720062926
1404.86,15.238911689293218
1406.92,31.6391357151374
1408.98,16.0909675911837
1411.04,11.11624811177785
1413.09,4.04623284938134
1415.15,8.831117500488517
1417.2,58.42099294867967
1419.25,108.52775312826861
1421.3,135.14890855872818
1423.35,165.56759035530126
1425.4,151.3525542396169
1427.45,135.59627978840308
1429.49,139.24830777743227
1431.54,129.54381562070625
1433.58,121.3369547144041
1435.62,124.81514016178335
1437.66,104.83238811713204
1439.7,109.52836741543206
1441.74,88.75697501155037
1443.77,81.46729237181125
1445.81,101.75120853222984
1447.84,100.17675744245571
1449.87,111.21669340495214
1451.9,111.58182841894518
1453.93,99.5067504767444
1455.96,127.03554186007341
1457.98,187.78368791258322
1460.01,221.6523667647507
1462.03,277.8760723921032
1464.05,342.4988091020166
1466.07,426.2312384014631
1468.09,531.8792544361852
1470.11,683.3439880013013
1472.13,870.6218105519099
1474.14,1039.37576678512
1476.16,1218.173673888747
1478.17,1361.4405065042995
1480.18,1398.8869721661447
1482.19,1348.1285629311592
1484.2,1248.2569879607568
1486.21,1057.17351086482
1488.21,845.8270489503984
1490.22,674.6903677084986
1492.22,536.5219895865957
1494.22,390.41381704685364
1496.22,297.5054222910094
1498.22,224.12690841382823
1500.22,138.89415150893547
1502.22,92.80404277465345
1504.21,47.90115919126242
1506.21,6.277767531598329
1508.2,-6.116647818830188
1510.19,2.667476291610228
1512.18,9.770261981751446
1514.17,18.474774681232248
1516.16,5.587979170056315
1518.14,-4.130685334225973
1520.13,-14.207396756009985
1522.11,-23.644422693501156
1524.09,-19.539164796952264
1526.07,-5.179395077689605
1528.05,5.766267238986984
1530.03,5.105495894227033
1532.01,-0.5444122728922594
1533.98,-6.423206616578
1535.96,9.562791393310818
1537.93,21.745447908239385
1539.9,29.551956737328055
1541.87,33.885788907495
1543.84,47.650499366457325
1545.81,55.1782955904946
1547.78,65.37289190649994
1549.74,85.56664952831579
1551.7,110.52057373592834
1553.67,143.56716819751796
1555.63,164.13424167246535
1557.59,162.07823852388265
1559.55,153.3032835168533
1561.5,151.80879804524852
1563.46,164.59425921568413
1565.41,192.0401494076698
1567.37,200.52700107184864
1569.32,204.9115843853856
1571.27,173.6697615740195
1573.22,149.51553171030855
1575.17,125.92483741663182
1577.11,113.99270490152912
1579.06,105.09990780556109
1581.0,87.15105961860195
1582.95,59.43175371617599
1584.89,66.08475101484214
1586.83,66.44331048472009
1588.77,59.697852995351695
1590.7,46.229291828231
1592.64,21.08522033219174
1594.58,3.0037186264189586
1596.51,0.9371603034542204
1598.44,24.218876275058165
