Raman Shift,Processed Intensity
331.095,191.21465660945933
333.909,67.56948296935525
336.721,45.05973319097757
339.531,81.01875971228901
342.339,121.4466198471655
345.145,126.74819012814532
347.949,111.39985207773498
350.751,111.25903512258083
353.55,97.61185474573767
356.348,133.26836968656062
359.144,138.13402961679003
361.937,115.40017043567741
364.729,145.30593813654514
367.518,203.1383079114462
370.306,273.041627065345
373.091,352.01763412078435
375.874,410.2111922082631
378.656,388.4817367423311
381.435,391.26043738340377
384.212,309.74069333290345
386.988,201.54481910459526
389.761,77.77168267686238
392.532,-5.384227783584265
395.301,-89.3470705313257
398.068,-75.44534542327528
400.833,-76.24520869548678
403.596,-40.931416646858
406.358,-11.926372812409682
409.117,-15.509183515042423
411.874,-36.672813028227665
414.629,-56.64790665143801
417.382,-63.80756779952662
420.133,-54.00071047578513
422.882,9.162201050932708
425.629,59.97578639873018
428.374,133.4968534117338
431.117,194.06817013214595
433.858,285.8422428415993
436.597,311.9717607691732
439.334,320.9905169898975
442.069,305.9086150375274
444.802,290.35529456494487
447.533,294.150328433132
450.262,302.44684837158457
452.989,315.8741706387159
455.714,361.204431206083
458.438,369.7811257044955
461.159,339.23336365585374
463.878,310.5234560383101
466.595,222.04212189905047
469.31,168.6084568718411
472.024,187.5175207421953
474.735,174.49268691729594
477.444,199.3046754642287
480.152,235.29534805296953
482.857,222.33009191711108
485.561,227.03591810029002
488.262,234.65860732166857
490.962,236.11033203189072
493.659,266.4458498975969
496.355,273.48155442881216
499.048,288.8907160825079
501.74,321.0606281280807
504.43,362.4259429890253
507.118,429.04010382269234
509.804,503.1467761000531
512.488,577.6084220425955
515.17,638.5729702973363
517.85,677.854771326095
520.528,721.8869813662168
523.204,749.1977559150905
525.878,787.1245384527715
528.551,825.4331110693674
531.221,826.3652165209905
533.89,818.1623707618955
536.556,827.1134850004364
539.221,816.50724965978
541.883,838.3940421481475
544.544,837.3002155814324
547.203,828.0376256010481
549.86,821.9417286203548
552.515,861.823965785361
555.168,871.3050993163833
557.819,911.2437869449482
560.469,944.6889658744999
563.116,1010.3560462649175
565.761,1080.48405709799
568.405,1158.549934900018
571.047,1185.0304315120338
573.687,1200.8783075743058
576.324,1211.236621248941
578.96,1256.9149217043919
581.594,1282.7702045047236
584.227,1294.564057475065
586.857,1287.819806567063
589.485,1229.1082331528964
592.112,1119.9523389383548
594.737,1031.7797299235194
597.359,933.3035717920211
599.98,866.0940214907823
602.599,840.7210873811719
605.216,805.3260608187416
607.831,775.0024715424743
610.445,766.7008525878509
613.056,804.1335051999154
615.666,865.536406603484
618.274,991.6692130114561
620.88,1146.910500728357
623.484,1279.9720548729265
626.086,1378.4226819102414
628.686,1459.8786888504937
631.284,1520.6229338763505
633.881,1543.9381626845957
636.476,1533.20224958968
639.068,1462.4596291034686
641.659,1346.2308227530725
644.249,1157.3219658986832
646.836,979.4438583609285
649.421,786.3548245720367
652.005,597.5750022984244
654.587,449.14825041091854
657.166,328.7373899883055
659.745,229.52896923040043
662.321,163.37612360922094
664.895,123.03667411539209
667.468,80.64932074265016
670.038,37.82888359138633
672.607,3.4282106388554894
675.174,13.871522168985393
677.739,24.67823531703334
680.303,29.843931836471256
682.864,24.12608922611298
685.424,-0.003518925440403109
687.982,-45.073086207655706
690.538,-41.801224662351615
693.092,-43.192177963103404
695.645,-24.34532517747084
698.195,-28.978974724020645
700.744,-11.382734372221876
703.291,-29.51274093015536
705.836,-12.70594058028837
708.38,-16.918179904889712
710.921,0.990080980136554
713.461,1.3013873322433938
715.999,22.869859349144917
718.535,48.83547602142062
721.069,62.38597803274661
723.602,67.37591351726314
726.133,66.89806476932381
728.662,59.426303524671766
731.189,22.38701767018665
733.714,4.349585572675096
736.238,-15.068863878049342
738.759,-2.2986912260907957
741.279,-6.008224501615587
743.798,-1.8656658444429013
746.314,-26.967664794289703
748.829,-25.79170110483483
751.342,-8.862753272069313
753.853,6.15146150877672
756.362,1.0119140529754986
758.869,16.574927991276127
761.375,1.9350350510744647
763.879,-11.527407757654146
766.381,-5.955743813571189
768.882,-31.921780650425262
771.38,-26.7591251520721
773.877,0.5320526810787669
776.372,19.856446441802746
778.866,2.880754311516739
781.357,33.176534341444494
783.847,18.363059733791488
786.335,56.15493602767765
788.821,103.7430516184022
791.306,147.98505208623283
793.789,173.73867166805712
796.27,228.909350443314
798.749,262.64070866279326
801.227,353.2669258393339
803.702,422.4555960290013
806.176,455.4458212074919
808.649,476.1434475036972
811.119,440.31153952848854
813.588,388.8560927987537
816.055,380.25460330428405
818.521,365.3655894556223
820.984,349.85716165096846
823.446,331.9213061287978
825.906,270.22626405857454
828.365,228.29748206003887
830.821,201.46999129392316
833.276,180.07888179076326
835.729,170.69739582733473
838.181,136.32740225547104
840.631,105.58987083087777
843.079,101.48677511338474
845.525,102.9249001290932
847.97,94.7634595563377
850.412,92.05218910212261
852.854,66.07896368808179
855.293,49.226938445967335
857.731,38.54597542742022
860.167,55.1812131708848
862.601,60.99211245899369
865.034,45.028644933105625
867.465,26.769386469738038
869.894,12.835801033196276
872.321,-13.626808805133805
874.747,-4.330256109394213
877.171,14.10890951146257
879.594,28.35987485023861
882.014,58.28232132612902
884.433,83.25975463793247
886.851,70.81854870297957
889.266,84.34222769129792
891.68,85.83336710740014
894.092,86.48501868159428
896.503,116.6330876422387
898.912,123.32775760705249
901.319,108.09539166489458
903.724,122.84329060040113
906.128,113.28826064243208
908.53,144.28994311727502
910.931,168.18414410185414
913.329,147.40187836264954
915.726,129.707460913668
918.122,109.9127890506013
920.516,76.59162438498242
922.908,115.8891129735864
925.298,134.28368640020017
927.687,134.58705809550042
930.074,145.99183870454817
932.459,142.30962764475726
934.843,130.7805332352891
937.225,157.54935949312016
939.605,156.85607864338
941.984,140.41677982018223
944.361,139.18557014839553
946.736,99.16409487304645
949.11,88.16343844109383
951.482,112.9469779641638
953.853,103.8494271574757
956.222,110.20540408829106
958.589,137.8732370196028
960.954,89.66353215858044
963.318,78.38678902407173
965.68,104.32958724267633
968.041,107.30220191623835
970.4,111.21002851315393
972.757,111.48215061681162
975.113,60.49990767403847
977.467,27.073081791168534
979.819,14.392275006298632
982.17,5.07652465678234
984.519,-1.3981261004100816
986.866,-5.412913419525239
989.212,4.031743586486982
991.556,32.22100571797
993.899,67.24942360738328
996.24,93.73522425135616
998.579,102.34412464626962
1000.92,78.26552637622126
1003.25,67.83156734384625
1005.59,65.99331635828321
1007.92,99.70172962789957
1010.25,93.33622630063724
1012.58,102.13326400435903
1014.91,82.51967629195838
1017.24,70.30315294360594
1019.56,74.05319645948157
1021.88,104.48207855250075
1024.2,117.68293949819167
1026.52,157.84407796075334
1028.84,172.48705034293062
1031.16,179.99048442160006
1033.48,189.73294060241165
1035.79,188.18815412679965
1038.1,203.2583725170964
1040.41,219.4172168311668
1042.72,206.47159053608493
1045.03,194.65692171514615
1047.33,190.73240527487928
1049.64,181.17148324730078
1051.94,178.8285155683575
1054.24,191.46259371351266
1056.54,193.11849719047245
1058.84,208.22193574620314
1061.13,196.8652677644177
1063.43,189.85512342496827
1065.72,193.90288500609495
1068.01,223.29135766286208
1070.3,231.30334496750856
1072.59,241.50736730692597
1074.87,216.9005231372896
1077.16,225.00373119106803
1079.44,246.67125839831783
1081.72,285.42405733179476
1084.0,320.21167508063445
1086.28,355.6979716478427
1088.56,427.2135050144491
1090.84,519.6126781084233
1093.11,606.4166000593025
1095.38,678.6702331671113
1097.65,651.3233493950872
1099.92,566.4210106719404
1102.19,491.10357300361875
1104.46,413.8924048708054
1106.72,394.30893895973395
1108.98,440.58896198824505
1111.24,432.01595215088696
1113.5,467.92108323067964
1115.76,495.54037156802815
1118.02,523.7765849343934
1120.28,584.3421037869166
1122.53,635.2827349039969
1124.78,609.8824774018169
1127.03,568.234955417536
1129.28,476.10056507819786
1131.53,394.6207643267808
1133.77,337.5561722720604
1136.02,299.6199066337131
1138.26,298.2871116636054
1140.5,316.8425813051854
1142.74,346.95219187667703
1144.98,392.6629061828578
1147.22,439.35515857920655
1149.45,468.6476209884395
1151.69,479.1591117741839
1153.92,427.6514569956082
1156.15,356.9818754715732
1158.38,279.7220305114497
1160.61,212.39612926498876
1162.83,165.81426016742103
1165.06,128.64382562265405
1167.28,125.64764135314044
1169.5,107.82679765449893
1171.72,99.65875874537596
1173.94,85.09736687920895
1176.16,74.7157035988489
1178.37,65.80133194356267
1180.58,43.642014846515394
1182.8,-0.6171378963254028
1185.01,-17.83080837156581
1187.22,-19.28203786519498
1189.42,-47.77746090908067
1191.63,-35.12349355930655
1193.84,-37.840618918098926
1196.04,-22.211011093412253
1198.24,-6.2785438229389
1200.44,4.770244508395763
1202.64,-9.870054568070373
1204.84,7.090550501249027
1207.03,3.9421980765000626
1209.23,2.9751571798358327
1211.42,1.7179073141251138
1213.61,37.41331392458005
1215.8,57.828137499865306
1217.99,91.11016189803058
1220.18,88.02627505339888
1222.36,66.10531158821595
1224.55,35.7332763766758
1226.73,40.15333001371164
1228.91,37.7514885695025
1231.09,59.342326946696176
1233.27,80.54992437087935
1235.44,76.90309940592078
1237.62,83.16874020740534
1239.79,96.54227763321751
1241.96,119.69530121126104
1244.13,156.2041274881335
1246.3,219.45455885399497
1248.47,291.7371185579075
1250.64,400.53276191365853
1252.8,521.9414446484357
1254.96,674.9678341086496
1257.13,837.187972846704
1259.29,1017.7016564934781
1261.44,1176.370525916529
1263.6,1271.2466355687625
1265.76,1280.4772123133039
1267.91,1214.4951285340771
1270.06,1090.256994294014
1272.22,961.1479161599168
1274.37,835.9814941225618
1276.51,731.1902947072865
1278.66,626.397276465522
1280.81,532.4634059425227
1282.95,479.63051174032717
1285.09,410.1879481045264
1287.23,353.47259184437075
1289.37,314.0116963957296
1291.51,282.42765064596165
1293.65,302.43797585402103
1295.78,358.8553225705689
1297.92,386.44461041522027
1300.05,425.63731071094185
1302.18,456.05525292797256
1304.31,484.6534787467954
1306.44,535.4821437401499
1308.57,612.067466674094
1310.69,669.3164883328814
1312.82,715.7551636771564
1314.94,774.718834954549
1317.06,831.3046095721554
1319.18,859.7999284452212
1321.3,909.0635152982011
1323.41,884.43013548963
1325.53,817.9486881703308
1327.64,757.9536317749507
1329.75,680.493552370641
1331.87,591.1883034343077
1333.98,549.9909075346297
1336.08,481.3780294426467
1338.19,398.30235400425863
1340.3,320.954487822238
1342.4,242.7153371287277
1344.5,185.15610470535898
1346.6,156.22876299384052
1348.7,137.98033673036366
1350.8,104.79099510380956
1352.9,79.94547724729728
1354.99,58.06166058686449
1357.09,50.99531966634618
1359.18,75.9353611627173
1361.27,73.45144576381699
1363.36,81.35113907307277
1365.45,78.67991965707438
1367.54,68.62594899791998
1369.62,78.99627001698173
1371.7,125.4072913129612
1373.79,137.90384282851437
1375.87,151.91156485021338
1377.95,157.8083446275466
1380.03,173.9243244204954
1382.1,167.97048097568427
1384.18,174.80053833585453
1386.25,148.74430922077863
1388.33,101.08389355102668
1390.4,62.52987697173444
1392.47,48.98324366208817
1394.54,30.535384382901384
1396.6,13.134771190862239
1398.67,1.253632152772525
1400.74,-11.4929898924604
1402.8,-26.299605792500415
1404.86,-21.88455317202761
1406.92,-23.870937395077817
1408.98,-29.929480080729945
1411.04,6.554820547288273
1413.09,43.72078869497659
1415.15,83.80250019201753
1417.2,136.0340456903857
1419.25,193.64953195819726
1421.3,266.3592736497442
1423.35,305.49265174219863
1425.4,308.1409719723151
1427.45,282.586037558852
1429.49,233.3953885916535
1431.54,174.61277951597253
1433.58,146.472466140611
1435.62,140.589683122241
1437.66,152.7701690687777
1439.7,190.2482630713257
1441.74,188.54404885517465
1443.77,154.17764178793027
1445.81,145.47871398289408
1447.84,148.11030511671993
1449.87,141.259299913743
1451.9,156.20785801125612
1453.93,156.28579620574146
1455.96,184.5848754610031
1457.98,252.1016593448726
1460.01,322.9756105611534
1462.03,401.44147319584727
1464.05,481.6387978205223
1466.07,613.2786094528296
1468.09,752.1195993265408
1470.11,951.9205071377744
1472.13,1187.8210747197952
1474.14,1409.9610949559064
1476.16,1613.670889263772
1478.17,1766.1379755559337
1480.18,1783.3118314384144
1482.19,1718.9038955045723
1484.2,1583.1494733908482
1486.21,1372.9982152610955
1488.21,1159.161736148041
1490.22,898.9231410566674
1492.22,666.4227405437714
1494.22,446.94376629752173
1496.22,310.1504676694085
1498.22,191.32620820618058
1500.22,127.4210859913162
1502.22,61.718601605532285
1504.21,22.930897515871948
1506.21,13.817806988591428
1508.2,39.37733157348248
1510.19,17.559928112003035
1512.18,10.458986221597115
1514.17,-13.451075172363971
1516.16,-23.695758923689027
1518.14,1.104274580060519
1520.13,16.66177981044825
1522.11,7.451496043118823
1524.09,0.37681265238347805
1526.07,-15.1349941656199
1528.05,-11.847047730758277
1530.03,13.477604726131176
1532.01,24.26646611556521
1533.98,32.518538520273296
1535.96,38.61384365462709
1537.93,28.408657609781358
1539.9,19.616459884527785
1541.87,22.80793003519875
1543.84,14.649039563660608
1545.81,5.6153342815014184
1547.78,12.039550007545131
1549.74,43.683037789179025
1551.7,80.2119515944537
1553.67,111.19724673455266
1555.63,130.44801161958912
1557.59,132.77337094297945
1559.55,152.74438886581015
1561.5,182.9321626773958
1563.46,199.62210693203042
1565.41,201.2425233000199
1567.37,193.84078946633554
1569.32,162.4643099340301
1571.27,141.97003825621982
1573.22,108.88161831569255
1575.17,92.19890655689323
1577.11,81.54082755124796
1579.06,72.28822956248314
1581.0,65.29816868337866
1582.95,69.18962154395058
1584.89,48.010150400582916
1586.83,58.56923489183146
1588.77,62.29541331803421
1590.7,59.23628106378396
1592.64,57.106108068012645
1594.58,51.69059915122102
1596.51,38.91832100937313
1598.44,15.789272064933584
