Raman Shift,Processed Intensity
331.095,80.99728296285593
333.909,83.96804630336828
336.721,76.33419441388014
339.531,65.09573539393932
342.339,65.99078878027649
345.145,71.66226031303177
347.949,38.110230987675095
350.751,30.811012773603125
353.55,40.8600138565439
356.348,39.20984197620783
359.144,65.86078871631662
361.937,77.86083760416204
364.729,41.25805316254082
367.518,15.86249377121976
370.306,47.62717214744771
373.091,126.07663487408763
375.874,215.211732403945
378.656,262.84296049267596
381.435,254.16189686977305
384.212,163.3126379095711
386.988,86.82037815937883
389.761,43.92475177237202
392.532,-1.5630165356965335
395.301,-45.831531958362575
398.068,-46.06922149887896
400.833,-35.22623079092682
403.596,-2.538230437142829
406.358,-13.812131895042512
409.117,0.9548596616173199
411.874,-46.66285539585533
414.629,-47.56689711444915
417.382,-29.13491277801222
420.133,-10.220588599105213
422.882,-11.058428291210475
425.629,26.640989146480933
428.374,21.214798212274218
431.117,43.90496787944312
433.858,78.33447288715752
436.597,102.45965766191148
439.334,103.76069988893914
442.069,100.95588360744705
444.802,77.66825325821537
447.533,77.09226773119553
450.262,99.08902584168436
452.989,142.80530133031198
455.714,170.7211492916017
458.438,166.93560784062583
461.159,137.8333521606155
463.878,100.94182474104991
466.595,66.55027037764648
469.31,62.043056886629074
472.024,101.756805342809
474.735,106.83752703314349
477.444,123.66919526371203
480.152,129.2546981190685
482.857,139.21583884065421
485.561,136.7457171575743
488.262,155.51349156976767
490.962,137.997713059739
493.659,126.24823023286854
496.355,109.88618969581375
499.048,127.9135602444203
501.74,136.28456181354932
504.43,151.47709442690257
507.118,159.1594052421001
509.804,171.19008892908596
512.488,187.28475471520142
515.17,241.20650295406358
517.85,269.67068740873447
520.528,288.2496775348782
523.204,284.5633350496355
525.878,288.8504428814481
528.551,273.01632459607526
531.221,254.77570191786253
533.89,257.1288855843359
536.556,288.40939477223947
539.221,326.47443366642574
541.883,395.9906061239881
544.544,404.57677319553613
547.203,375.185005884558
549.86,383.81487124011574
552.515,411.51343273526027
555.168,402.5657268359196
557.819,410.0661919507379
560.469,414.8710497618781
563.116,388.3125913177287
565.761,356.72298693512266
568.405,365.481905625385
571.047,346.34984880607635
573.687,307.56338877465214
576.324,318.40659765830696
578.96,289.92533350667463
581.594,257.92724067024255
584.227,263.4103216073381
586.857,258.0391277387321
589.485,233.33523601653087
592.112,197.153439778785
594.737,163.0150824612374
597.359,110.29853416621518
599.98,67.76300156486195
602.599,36.310433037451276
605.216,30.366471432762864
607.831,-1.500497934449868
610.445,23.03970437144426
613.056,12.98382091202211
615.666,19.61421194040122
618.274,14.784578961896841
620.88,17.634261040715046
623.484,-2.4593716740228047
626.086,-1.4999514982191613
628.686,-28.776859269260513
631.284,-24.198542081513096
633.881,-14.67345022196423
636.476,2.794737214797806
639.068,30.05950327413484
641.659,47.355311162192265
644.249,58.48808921592763
646.836,69.50190634932733
649.421,45.440885594862266
652.005,-5.936501402680733
654.587,-20.538377987599233
657.166,-29.606120380390166
659.745,11.57136478722623
662.321,55.895741798281506
664.895,54.84020129207374
667.468,53.401845434806546
670.038,29.29216832833481
672.607,17.41325070461744
675.174,-3.237473951256561
677.739,-14.091024706614462
680.303,-10.673535629601247
682.864,8.012795722382634
685.424,27.53732981724397
687.982,81.1838436802409
690.538,94.0457703784009
693.092,84.40715279065262
695.645,63.07597833034606
698.195,7.1937041439505265
700.744,-32.85997959499764
703.291,-29.80048163004676
705.836,-0.29545037010802844
708.38,41.939986767497885
710.921,54.905123831341825
713.461,64.3136720186053
715.999,55.688993453039075
718.535,81.31647782005484
721.069,98.81496662087693
723.602,127.517701236216
726.133,111.47231860898637
728.662,108.77418026036003
731.189,77.56636797248939
733.714,57.75396518550133
736.238,19.623100299259022
738.759,33.650466165593116
741.279,36.50331577102315
743.798,67.4204103004181
746.314,65.1167767244774
748.829,47.73608443482817
751.342,20.231593307697494
753.853,69.03281605329221
756.362,75.99789485089605
758.869,91.84216846016852
761.375,101.7095964752848
763.879,88.74418357908871
766.381,61.089975225810576
768.882,80.84343427616841
771.38,88.76772239436968
773.877,84.19745763559285
776.372,83.03871012870513
778.866,82.00709299707614
781.357,28.389662803198462
783.847,8.044915231399045
786.335,37.92659029436254
788.821,41.65509658727251
791.306,56.94607921158331
793.789,78.32470198451665
796.27,75.60183441048093
798.749,87.92166722391312
801.227,119.61885174163808
803.702,96.17087731047059
806.176,118.1504487548159
808.649,108.13024477665658
811.119,103.87339064125581
813.588,103.09535943428773
816.055,96.41634950945263
818.521,52.64699526941513
820.984,59.21693508960561
823.446,61.84147448012072
825.906,58.37872543808908
828.365,72.92484103815423
830.821,52.909250022941706
833.276,34.14227234590953
835.729,24.91035376183345
838.181,21.976062322040434
840.631,37.10189439346641
843.079,41.33598793095916
845.525,21.678790331167875
847.97,33.36877390546488
850.412,35.16815135288016
852.854,40.79145054506398
855.293,28.619803596969632
857.731,16.177140699440315
860.167,-11.29837795297226
862.601,3.6694507181937297
865.034,-2.681312824090128
867.465,32.12544357315528
869.894,10.899126047117534
872.321,-3.2175613527442692
874.747,-13.034327022349771
877.171,-6.408524877585933
879.594,-5.149911563211845
882.014,32.07459501637504
884.433,21.693299376066534
886.851,10.372587799711255
889.266,7.302644832634087
891.68,28.626026917018407
894.092,73.48528468362883
896.503,109.40391930805617
898.912,120.85781505744171
901.319,132.5609575514909
903.724,97.084485356811
906.128,93.61859872411105
908.53,113.59161118255133
910.931,108.05090589598785
913.329,96.4724634477925
915.726,94.47515153042696
918.122,59.29691939693066
920.516,73.69956374097819
922.908,110.30206600550218
925.298,126.10440588180745
927.687,118.8208986181885
930.074,119.92781804284095
932.459,106.33006720580943
934.843,106.17070616379851
937.225,111.0214321459357
939.605,107.35877400524578
941.984,106.32600095584212
944.361,87.20931702440839
946.736,75.3426269302463
949.11,64.2027781558063
951.482,71.504803017207
953.853,56.77335121095621
956.222,53.771265217805194
958.589,32.928155706605594
960.954,31.29278646198054
963.318,39.29498312150963
965.68,62.55516096054271
968.041,40.64623362938892
970.4,35.188855223839255
972.757,23.32761473664368
975.113,2.4453257470813696
977.467,-11.027445794230516
979.819,-11.802853780529404
982.17,-44.02148201340742
984.519,-49.299960146734975
986.866,-44.82619987559656
989.212,-47.26415947893065
991.556,-9.46813727843164
993.899,28.3743588378361
996.24,40.21878461248434
998.579,35.35401736708127
1000.92,4.354718712327212
1003.25,-8.109159884624205
1005.59,-8.034300104278373
1007.92,15.392155900564376
1010.25,29.697348780711764
1012.58,4.027444445315723
1014.91,-14.423812403761076
1017.24,30.584886816560356
1019.56,32.770971497994196
1021.88,47.56607109255765
1024.2,70.163621253987
1026.52,56.89980661272375
1028.84,79.01546069067399
1031.16,112.03701343502144
1033.48,134.1574387520336
1035.79,110.37910680277719
1038.1,128.89473153692506
1040.41,118.37308013133634
1042.72,127.10182528577889
1045.03,132.89230228055203
1047.33,150.98426603410599
1049.64,135.56969577971677
1051.94,138.55469498025286
1054.24,139.13091505246757
1056.54,117.0136457579506
1058.84,86.10847702265437
1061.13,78.98748456594285
1063.43,99.17493933916603
1065.72,116.00444553566331
1068.01,140.7618007910396
1070.3,157.97071352629473
1072.59,134.3451869576288
1074.87,123.78952215385334
1077.16,123.5887972842861
1079.44,110.36125162855205
1081.72,136.9154314911416
1084.0,208.86924087788293
1086.28,250.55470645811374
1088.56,300.77988538401223
1090.84,363.59077310992643
1093.11,381.12844930694246
1095.38,405.86717615840325
1097.65,420.1382109411411
1099.92,375.51076146385594
1102.19,329.2205605531094
1104.46,280.6460595869403
1106.72,218.78462202847913
1108.98,193.44300267385734
1111.24,214.66592213821104
1113.5,223.9741651512045
1115.76,240.17410742399397
1118.02,258.35771870665576
1120.28,292.2358991789497
1122.53,307.8051491744227
1124.78,315.3951912854641
1127.03,307.0975448493118
1129.28,245.8131480531133
1131.53,201.25236099136373
1133.77,146.1254449138196
1136.02,81.33304147341642
1138.26,49.68046149799375
1140.5,55.972926142975666
1142.74,85.77747471070825
1144.98,147.7086870051071
1147.22,160.33345892758916
1149.45,139.5995875968033
1151.69,132.40721361122496
1153.92,129.3707395022252
1156.15,127.43789104428424
1158.38,130.5087785651972
1160.61,94.67400587533348
1162.83,70.30992205403572
1165.06,63.12625418839889
1167.28,70.642311540626
1169.5,46.09176114394904
1171.72,43.56549863665168
1173.94,32.91642385798559
1176.16,29.47374025362069
1178.37,21.75725428108308
1180.58,26.3345352497754
1182.8,-12.464779032271053
1185.01,-27.072769665898704
1187.22,-45.111783338736586
1189.42,-75.10869455977627
1191.63,-60.066313529786385
1193.84,-18.272893919127
1196.04,11.078827656207977
1198.24,24.510681142160138
1200.44,20.211444027064772
1202.64,16.989223432213294
1204.84,8.271457250037201
1207.03,3.1525343299099404
1209.23,5.012843235380387
1211.42,-26.290749599443643
1213.61,-37.758230921193444
1215.8,-15.579771206621444
1217.99,-2.4690578860358983
1220.18,-9.18710861874979
1222.36,-9.399419476400908
1224.55,-17.009303850205924
1226.73,-3.538851330632042
1228.91,18.680588657385215
1231.09,56.27030245328115
1233.27,72.9946788333109
1235.44,66.99929473061957
1237.62,97.28709619340225
1239.79,78.09934124783285
1241.96,53.2013046657562
1244.13,46.644173208561824
1246.3,34.33646468058987
1248.47,18.32973269681588
1250.64,32.675700021963166
1252.8,-1.1927985665611232
1254.96,-7.938016272894856
1257.13,-7.1744466578866195
1259.29,-19.135499943497052
1261.44,-2.5782753550047346
1263.6,9.502142004433608
1265.76,57.39647757646799
1267.91,72.30030160606248
1270.06,47.74258816017846
1272.22,28.53808367026386
1274.37,29.311104046167657
1276.51,32.733617504341964
1278.66,72.76332739604868
1280.81,91.50080265460747
1282.95,58.66565586169372
1285.09,69.97748321840254
1287.23,78.53680451630316
1289.37,90.7298126323094
1291.51,90.32359921402985
1293.65,109.65661846035482
1295.78,77.11486518775519
1297.92,50.274719563254166
1300.05,29.855315646918825
1302.18,16.051862315306153
1304.31,19.630868946810097
1306.44,31.12061219732277
1308.57,33.95398535155164
1310.69,46.61134965761812
1312.82,63.525293551725554
1314.94,88.17587148422126
1317.06,116.0429856027963
1319.18,117.55876743568524
1321.3,121.58376909867366
1323.41,159.64505926401353
1325.53,177.03146198647937
1327.64,196.7935574341891
1329.75,199.31511119085008
1331.87,194.8368845103896
1333.98,167.7899683811056
1336.08,155.12911758981954
1338.19,144.04703716696758
1340.3,142.64104978407386
1342.4,138.86547743693973
1344.5,150.3887850335941
1346.6,137.30786683938504
1348.7,105.1480472077892
1350.8,88.76784321598507
1352.9,79.40658444328346
1354.99,74.0653660828907
1357.09,91.3641925298657
1359.18,112.30388287383812
1361.27,106.7898811536279
1363.36,115.48939994520151
1365.45,127.879040140102
1367.54,135.1971726286506
1369.62,153.63441522123367
1371.7,166.71458576007308
1373.79,186.19946475480492
1375.87,239.56498658948203
1377.95,275.6202878724307
1380.03,278.60294626229734
1382.1,280.08374310362706
1384.18,252.49047368147922
1386.25,209.96509080939177
1388.33,190.22084841732794
1390.4,161.30420704440303
1392.47,151.118644093503
1394.54,136.3770355144802
1396.6,134.83975177306502
1398.67,108.21942048644132
1400.74,106.56187953501194
1402.8,93.57951112654837
1404.86,86.17505205081761
1406.92,31.774927743740136
1408.98,13.948300637249758
1411.04,-5.307214824171297
1413.09,1.6725469966017954
1415.15,9.075451150250956
1417.2,12.089257394938613
1419.25,4.568291852057882
1421.3,16.223929111411962
1423.35,-6.470638719028102
1425.4,-20.04229916361919
1427.45,-18.87515297936079
1429.49,-9.305743657890162
1431.54,38.32933005157838
1433.58,94.16960919740814
1435.62,120.25934967911053
1437.66,134.0713353961628
1439.7,132.50688187301103
1441.74,117.99107797931629
1443.77,92.42517050734068
1445.81,80.13894874933658
1447.84,81.27170050351128
1449.87,105.67697760379065
1451.9,148.3511709733964
1453.93,166.5763713927156
1455.96,148.3013255052606
1457.98,142.76048706172355
1460.01,146.33116340212405
1462.03,163.34304289034367
1464.05,188.41153187246186
1466.07,181.1996630636695
1468.09,155.1800039351799
1470.11,150.20608891066445
1472.13,138.7028991817324
1474.14,138.90496157102893
1476.16,139.7134950143793
1478.17,131.64879513816868
1480.18,102.04071407482115
1482.19,88.45723551637093
1484.2,59.37114500613893
1486.21,40.350509754208815
1488.21,23.011063214820297
1490.22,20.635256330418088
1492.22,-1.0182150338177962
1494.22,11.42845067788653
1496.22,13.543592908329174
1498.22,-1.7234313000178645
1500.22,-11.994623588613194
1502.22,-6.177623971085495
1504.21,-7.703800219361256
1506.21,0.47175677030372754
1508.2,0.346427462042584
1510.19,-3.891837853566358
1512.18,-26.721658641088425
1514.17,-21.33583985733594
1516.16,-15.546130939226032
1518.14,11.502488663925305
1520.13,31.522283685098728
1522.11,48.32085469967001
1524.09,34.89637379715987
1526.07,49.67567739584433
1528.05,51.41902572402614
1530.03,67.93438611084161
1532.01,59.55362103895936
1533.98,38.9896285782429
1535.96,33.907768533693115
1537.93,39.592526688625185
1539.9,64.6141790478473
1541.87,67.924027509408
1543.84,80.42582601253616
1545.81,84.97577811415749
1547.78,98.81110599398357
1549.74,111.93100041197317
1551.7,133.28709447532992
1553.67,112.1167945483437
1555.63,101.08613497175679
1557.59,84.38501373451186
1559.55,82.15576147883007
1561.5,104.77885336243457
1563.46,124.96814473029508
1565.41,133.05658297684818
1567.37,125.90096702727169
1569.32,91.88194491398622
1571.27,74.14210659126024
1573.22,72.87169579743136
1575.17,76.02289334570423
1577.11,79.73838612923532
1579.06,96.73231707859918
1581.0,92.86171130973571
1582.95,112.69790227189378
1584.89,133.71700551462868
1586.83,104.82372578812488
1588.77,68.68468795304557
1590.7,39.72843455705083
1592.64,1.5263757922655259
1594.58,1.4356442146495283
1596.51,8.575282796707143
1598.44,12.611956943936548
