Raman Shift,Processed Intensity
331.095,35.55331488222282
333.909,22.402980467722045
336.721,3.8764594136077903
339.531,-11.192911397900389
342.339,-12.114645129670407
345.145,20.92080332115347
347.949,57.43727896728069
350.751,62.4824540897057
353.55,40.77068892946136
356.348,22.444939998439168
359.144,-5.494664943148109
361.937,-20.667013814052552
364.729,-11.024292377370784
367.518,-2.042456882116767
370.306,63.18353139044848
373.091,160.98732872334858
375.874,243.75026013185516
378.656,273.04418005525804
381.435,254.9648092391203
384.212,175.13173828418712
386.988,146.21224071911638
389.761,86.82603845414724
392.532,64.54530533001889
395.301,37.75181352402569
398.068,10.827413289415745
400.833,0.9635603138299302
403.596,24.25655736346198
406.358,12.469463691144938
409.117,4.984480735117813
411.874,-32.863709801258665
414.629,-33.50222563464649
417.382,-20.97712020612471
420.133,-36.52480844498086
422.882,3.427932193488232
425.629,35.21633928030997
428.374,89.27099107882987
431.117,144.78446591599368
433.858,179.80657658933342
436.597,160.00627144060854
439.334,169.8144878104099
442.069,171.37652930227796
444.802,180.17110971348575
447.533,158.1532064896346
450.262,155.37310465543624
452.989,170.40496455503717
455.714,211.10872292566864
458.438,254.58247016176892
461.159,251.4005418648212
463.878,225.51827705985033
466.595,202.6053478404965
469.31,176.33146996646929
472.024,147.03306584194888
474.735,159.76087987493338
477.444,148.8514033604024
480.152,162.87925174442853
482.857,206.84763712639233
485.561,222.33122171357627
488.262,222.42849508527752
490.962,238.8570085997726
493.659,216.23908599176866
496.355,217.3399149222355
499.048,209.01992424252603
501.74,227.04430411563408
504.43,246.84490708984504
507.118,267.04405393428306
509.804,263.31167280780073
512.488,297.5081527135753
515.17,302.54148266799257
517.85,335.8910575361947
520.528,336.46481720097063
523.204,348.6468619221105
525.878,366.48792483861826
528.551,367.1815587566366
531.221,373.1117515087981
533.89,379.18625559929524
536.556,332.02706070608883
539.221,314.4941995164627
541.883,330.5905059435181
544.544,375.84256381885234
547.203,438.3007032042897
549.86,492.49137765599244
552.515,492.2266843457205
555.168,445.2234079916175
557.819,419.6744457413806
560.469,436.4392796744696
563.116,415.04397311384264
565.761,400.2049764614935
568.405,381.5910282720897
571.047,374.1088658504136
573.687,346.71274537263025
576.324,337.2139620075395
578.96,281.09037003784033
581.594,235.34352202900482
584.227,218.92723656957287
586.857,262.12854696382965
589.485,247.520078495917
592.112,240.5314733129835
594.737,172.06843435595601
597.359,89.08415024269743
599.98,60.10310110353976
602.599,74.88772155968445
605.216,69.81934941588997
607.831,82.66012673411751
610.445,91.83871043097088
613.056,56.545506684671636
615.666,62.78028629439723
618.274,52.875990515821286
620.88,30.451108325224595
623.484,35.409672731214414
626.086,36.32220946740699
628.686,36.4257364147752
631.284,45.004718972531464
633.881,20.962505258296915
636.476,18.726094641617692
639.068,-0.8967127701548634
641.659,2.3779307334220903
644.249,27.881359721905937
646.836,40.468596689747756
649.421,63.5659819429402
652.005,74.74261300948183
654.587,59.85321262126354
657.166,59.800044315012656
659.745,30.675780414179826
662.321,19.620655725109373
664.895,25.58438313796887
667.468,22.278545418155318
670.038,19.748034616753557
672.607,8.228205766696647
675.174,-19.426540849634875
677.739,-14.93322505187598
680.303,-26.72313223965648
682.864,-20.5608514030514
685.424,-23.449028982422078
687.982,-3.7236017785894546
690.538,-0.053793937779119005
693.092,26.224550244668535
695.645,46.53753790354449
698.195,61.54941822521732
700.744,33.97210640240064
703.291,27.946136160354854
705.836,12.183517044995824
708.38,16.301067901476472
710.921,14.772797971806995
713.461,56.644192754384676
715.999,59.53221414923655
718.535,73.05387203184137
721.069,88.49289106504693
723.602,101.7520917966981
726.133,69.59148604298116
728.662,83.24732465271654
731.189,72.24162146213257
733.714,53.667867725815995
736.238,37.667222738150485
738.759,19.428513978553838
741.279,13.188237256718821
743.798,18.897223524517358
746.314,39.744448545050545
748.829,45.776080656929935
751.342,41.514528538562445
753.853,55.434631829566115
756.362,76.82080413315407
758.869,73.76703316136764
761.375,63.74830945174199
763.879,56.76348365539707
766.381,72.24002858702943
768.882,99.12927746538844
771.38,99.00166215374975
773.877,91.14195140039828
776.372,72.16829860291227
778.866,67.65128957244951
781.357,81.78060934564382
783.847,78.17456613935565
786.335,59.88009149590471
788.821,67.46797852354075
791.306,71.27097727977662
793.789,70.95522348804616
796.27,112.47261963532219
798.749,146.5370255935427
801.227,153.90997305055544
803.702,164.40066565534516
806.176,152.58026487755296
808.649,125.92474729555533
811.119,119.57680950359872
813.588,89.96491587607261
816.055,59.136632046071554
818.521,46.6157679077628
820.984,57.21190157114779
823.446,56.35371284062967
825.906,54.37469764593743
828.365,68.5607872349533
830.821,41.95987212845421
833.276,47.00084988436629
835.729,69.16029190964082
838.181,57.81958646261046
840.631,63.1697007029652
843.079,73.92546655125034
845.525,63.51605702455754
847.97,76.65641495317277
850.412,87.58534836388662
852.854,86.73219729188031
855.293,47.71683392594605
857.731,-0.8884324843888862
860.167,0.8220968973068921
862.601,11.039891591969536
865.034,17.527906145430734
867.465,63.192008837981575
869.894,58.41431515584509
872.321,28.386521262643328
874.747,37.3956184232552
877.171,32.87151218958479
879.594,3.387022538702695
882.014,-19.913544560426544
884.433,-1.4572541516554338
886.851,-8.528256098185466
889.266,38.63697520180449
891.68,75.99249618958265
894.092,95.54003435626873
896.503,86.85279511988801
898.912,150.027840131002
901.319,175.49560843548534
903.724,187.68658049444775
906.128,188.36460887081603
908.53,154.6269155825912
910.931,117.04694659895767
913.329,115.7696072887793
915.726,134.08268834528462
918.122,127.79781552027225
920.516,133.15520888212677
922.908,119.77606112144576
925.298,112.04348728524292
927.687,106.53109355877677
930.074,135.38392699975566
932.459,140.03275860587746
934.843,143.5750330490364
937.225,131.48915174286776
939.605,131.11066067218735
941.984,119.67986679386104
944.361,114.96088300910696
946.736,113.19400646912572
949.11,90.66714449978826
951.482,70.85866909773813
953.853,63.53265237888763
956.222,67.83410202690902
958.589,91.43181578933854
960.954,87.80409311654375
963.318,70.47682775306976
965.68,64.02350509089501
968.041,25.446151903634473
970.4,14.603905128358747
972.757,3.974913980759993
975.113,-12.676996024931213
977.467,-21.397563817915398
979.819,-2.756380726574662
982.17,-2.3230845343787223
984.519,18.856444162012394
986.866,10.831504356018286
989.212,25.603711078684682
991.556,21.079369941472578
993.899,24.64090039874418
996.24,52.00397329598172
998.579,71.5984579418132
1000.92,56.758892989563265
1003.25,35.91495731880923
1005.59,9.543845678836533
1007.92,14.122644332092477
1010.25,45.60451622144592
1012.58,73.03774426870177
1014.91,63.089538030348194
1017.24,26.903173686637274
1019.56,11.383705459235898
1021.88,23.007486552681257
1024.2,49.06026424568245
1026.52,66.06575236318122
1028.84,74.2618251517838
1031.16,102.17194925043532
1033.48,130.65280613728237
1035.79,150.94191457653915
1038.1,170.03858639868076
1040.41,146.9896441854071
1042.72,142.0799008593608
1045.03,178.21311546433662
1047.33,181.1977108502415
1049.64,189.7467770723415
1051.94,166.28759860002947
1054.24,147.29499104939987
1056.54,135.62463791583195
1058.84,143.98928444942612
1061.13,131.53016962567835
1063.43,158.29322002091658
1065.72,151.75286273535812
1068.01,152.47869545902495
1070.3,181.46882320431678
1072.59,213.34033789573596
1074.87,214.85313129294082
1077.16,215.19561267570043
1079.44,193.27042652886394
1081.72,190.31350356064922
1084.0,232.75120695904116
1086.28,304.86700245771044
1088.56,366.1347950685981
1090.84,411.6475039097372
1093.11,462.2599227473647
1095.38,486.9696757761203
1097.65,462.6791257802015
1099.92,398.5287108659513
1102.19,347.08742405158955
1104.46,313.40043571409115
1106.72,322.89385889320283
1108.98,337.0414193573679
1111.24,328.6501732887036
1113.5,319.71765353940737
1115.76,348.3842539833913
1118.02,330.3618043441147
1120.28,349.9335735938339
1122.53,352.2399876385707
1124.78,306.8500612887906
1127.03,275.0947349919843
1129.28,260.0668782319194
1131.53,178.9546262612239
1133.77,144.08900254824994
1136.02,123.70582693822416
1138.26,97.61238571916647
1140.5,112.37791121160717
1142.74,148.76215659641184
1144.98,171.76301836164248
1147.22,199.37844446371082
1149.45,218.84453296472702
1151.69,196.44505924127634
1153.92,168.17814605034118
1156.15,100.04198121427316
1158.38,72.74910673432805
1160.61,76.7740412375465
1162.83,86.7818548045775
1165.06,103.67579141654869
1167.28,108.12108187812373
1169.5,79.2592329310346
1171.72,42.803268748571554
1173.94,12.752020049117164
1176.16,-7.276539171275999
1178.37,-3.9500501444053953
1180.58,5.9210925183610925
1182.8,37.669459043186635
1185.01,22.19915943718388
1187.22,19.89060951900092
1189.42,1.1243445684540347
1191.63,-14.099928928606005
1193.84,-12.54428153542085
1196.04,19.600776711076833
1198.24,19.95439428015652
1200.44,29.4215700367904
1202.64,-6.330654868843794
1204.84,-22.77795749280449
1207.03,-23.872065017411387
1209.23,3.3401983844828464
1211.42,-2.3783282366389358
1213.61,33.2115198027268
1215.8,33.063324139996894
1217.99,58.79746015716319
1220.18,78.17728329526108
1222.36,69.82341060693807
1224.55,62.68990707092462
1226.73,86.25475762079077
1228.91,80.66272012608306
1231.09,83.48722599251141
1233.27,73.58751885737274
1235.44,39.48960280877736
1237.62,62.148142985829054
1239.79,53.37503284546392
1241.96,36.791770953100695
1244.13,30.06755205900481
1246.3,0.44307246036305514
1248.47,-7.317093208060214
1250.64,-1.3530675642277856
1252.8,-3.852531737987192
1254.96,7.711174511576701
1257.13,34.483809682044466
1259.29,28.896891775478707
1261.44,44.52483652024148
1263.6,24.561143211866693
1265.76,26.86600912535505
1267.91,45.25203916557484
1270.06,42.38900313670047
1272.22,62.42287872594443
1274.37,66.11870401109763
1276.51,57.86057282520642
1278.66,56.842106311741645
1280.81,60.828353051194426
1282.95,53.489117759096644
1285.09,65.54181379357169
1287.23,63.18002994859762
1289.37,52.54971629489455
1291.51,48.41584621128686
1293.65,30.11479270178461
1295.78,48.41146661741686
1297.92,52.070740592353104
1300.05,71.33363792318869
1302.18,85.1078071625193
1304.31,80.25323480774796
1306.44,47.67748179941964
1308.57,58.9547295433581
1310.69,65.42101640899773
1312.82,92.07899803723603
1314.94,107.55032669589855
1317.06,101.31374492092573
1319.18,83.5622267765998
1321.3,100.3458334014922
1323.41,99.95266379250688
1325.53,146.14694844605765
1327.64,161.02619061830183
1329.75,212.16402187108133
1331.87,233.7054385702595
1333.98,260.9858479078471
1336.08,218.1977329717679
1338.19,196.15255591084178
1340.3,155.56647062358797
1342.4,155.0127021136882
1344.5,147.87392584545887
1346.6,162.58036138502257
1348.7,163.18119937481788
1350.8,155.29698088906025
1352.9,161.35769107490705
1354.99,154.79323374601108
1357.09,132.12866788082556
1359.18,132.8889679304416
1361.27,146.5990222216592
1363.36,156.355059931494
1365.45,168.39607806167942
1367.54,186.9609826988917
1369.62,206.33620646544068
1371.7,231.99856406520712
1373.79,265.9962030676679
1375.87,270.0438404062006
1377.95,262.85609411450196
1380.03,274.0998626820333
1382.1,269.1086091713805
1384.18,256.6442643832452
1386.25,250.2305585928434
1388.33,218.0101628101297
1390.4,210.220877659061
1392.47,171.29086987590472
1394.54,116.60057547422048
1396.6,97.33984100507723
1398.67,88.50792196013117
1400.74,87.96110022231915
1402.8,128.6983967546539
1404.86,126.19490333663589
1406.92,93.06844763400204
1408.98,83.65102017323488
1411.04,81.0363917922623
1413.09,51.08011204353488
1415.15,68.49474569235099
1417.2,69.659394929467
1419.25,56.28636444085305
1421.3,47.13544552506346
1423.35,24.06153354394428
1425.4,8.681292992383078
1427.45,16.182679710920638
1429.49,35.51541797285199
1431.54,62.295764211245114
1433.58,72.4731772039122
1435.62,51.18746802227179
1437.66,72.1497595040305
1439.7,49.49963620204653
1441.74,58.56705623795824
1443.77,76.77712029867553
1445.81,128.98341206143277
1447.84,153.8013386188477
1449.87,190.89385185636002
1451.9,165.7333603058555
1453.93,151.26840290405698
1455.96,148.49508465567624
1457.98,154.45708372513855
1460.01,107.95994424258879
1462.03,140.95203577656957
1464.05,155.81027471146172
1466.07,157.29251229159627
1468.09,160.0137321891766
1470.11,130.9698671198189
1472.13,76.25209164857097
1474.14,107.47540071022149
1476.16,139.49290241531753
1478.17,134.15772990379492
1480.18,104.0373341509951
1482.19,71.36587201177986
1484.2,31.282308550352354
1486.21,-2.264813963243114
1488.21,-5.374511818543397
1490.22,1.949504369923261
1492.22,-9.820211095877085
1494.22,-2.8300707832704575
1496.22,-6.845447622749134
1498.22,-29.10781227157645
1500.22,-11.144251717108773
1502.22,28.708725706049336
1504.21,20.495667908082396
1506.21,4.594560252489828
1508.2,-7.902221806827129
1510.19,-14.568864850375121
1512.18,7.591978001164307
1514.17,44.33966273056444
1516.16,48.19555237861027
1518.14,23.34777690341366
1520.13,21.84170732544908
1522.11,31.389477491634352
1524.09,20.417601077505424
1526.07,37.73363620843725
1528.05,33.526183414196794
1530.03,9.269645488259584
1532.01,18.867082585214575
1533.98,32.12640065150413
1535.96,31.617492237118313
1537.93,69.33890111681421
1539.9,75.38448691132976
1541.87,88.0862801847909
1543.84,99.01448039926004
1545.81,87.16793005976615
1547.78,77.2122079069436
1549.74,82.86057925253908
1551.7,97.63589869586258
1553.67,107.20394141167071
1555.63,109.32578205709319
1557.59,74.76255463094208
1559.55,49.751640904452415
1561.5,46.72095409011354
1563.46,46.241317748600295
1565.41,64.45503517189695
1567.37,75.83779209975387
1569.32,70.81770229328527
1571.27,69.58482929905358
1573.22,96.66261297504889
1575.17,93.95548649286343
1577.11,107.1774457208162
1579.06,62.994904321360536
1581.0,39.550501229443626
1582.95,1.0821462260989847
1584.89,6.732541702519029
1586.83,13.453942519361135
1588.77,7.293868247010323
1590.7,-23.366803641780734
1592.64,-8.147173150678555
1594.58,0.3098706709649832
1596.51,19.599549980767733
1598.44,53.221859466189244
