Raman Shift,Processed Intensity
331.095,144.28604911621414
333.909,-18.53360833741317
336.721,-51.18806176570206
339.531,-9.677296757600743
342.339,26.546347111786872
345.145,40.67342146635565
347.949,19.608804790300383
350.751,-23.361623815323583
353.55,-36.380501352241936
356.348,-29.304688120785613
359.144,4.532832213803886
361.937,31.418191580247367
364.729,41.58996864445953
367.518,69.76299614324671
370.306,119.60454917039624
373.091,169.6391048913265
375.874,247.0102451148855
378.656,295.38541600800727
381.435,266.47973542941554
384.212,220.1036097871356
386.988,168.87701756267688
389.761,105.22950712092779
392.532,65.11448023432968
395.301,25.67585655943367
398.068,-9.466214267498344
400.833,-9.072497677743286
403.596,4.572466496920242
406.358,18.99369416864465
409.117,23.049562368152692
411.874,-4.3062896690844354
414.629,-8.882105114498245
417.382,-17.962294692275464
420.133,-9.878865141341521
422.882,-0.7257057791375701
425.629,31.165218191551048
428.374,66.7952903459186
431.117,124.2135247651936
433.858,169.18323188777867
436.597,217.32487483658133
439.334,206.68749717490482
442.069,200.60586494806694
444.802,167.46237062976888
447.533,161.6394132589371
450.262,159.32892143372192
452.989,172.48473344834156
455.714,180.87021552516853
458.438,193.67730861823202
461.159,186.2884323595913
463.878,206.60981757711443
466.595,190.78579119322376
469.31,162.43687064745154
472.024,151.70738212851757
474.735,163.6464121397471
477.444,203.06494954067466
480.152,259.4882656838895
482.857,274.5844850280673
485.561,254.0217271795873
488.262,210.37286798175273
490.962,200.73458631830408
493.659,215.01307758359872
496.355,240.82881477184446
499.048,257.8975000425153
501.74,245.98244485719852
504.43,235.60885487834548
507.118,243.73049582040449
509.804,260.2535021580975
512.488,291.32209059660727
515.17,339.31855925605714
517.85,362.4823344750198
520.528,388.71949380451724
523.204,399.4122890020162
525.878,377.56200235876213
528.551,365.93180302710425
531.221,365.570555728777
533.89,358.6223437488816
536.556,388.13599192988386
539.221,405.7793515703697
541.883,425.6488234190442
544.544,466.12649971635346
547.203,501.5944490932384
549.86,512.006144327042
552.515,544.1721758116878
555.168,518.0935840754951
557.819,506.34281134660614
560.469,504.30179597555343
563.116,516.2572097149741
565.761,477.06712357075367
568.405,465.39910222459184
571.047,419.68258417085144
573.687,393.7755475676995
576.324,383.6787951358501
578.96,380.9169057239842
581.594,308.966804921783
584.227,271.3053832920091
586.857,200.93330507877818
589.485,181.51786453487694
592.112,168.86917558242249
594.737,155.79731385447803
597.359,136.92183968905692
599.98,134.76703540883682
602.599,122.7619045056349
605.216,136.04969463440466
607.831,139.96408727390826
610.445,128.3149111969069
613.056,127.29290355939838
615.666,95.13637575176153
618.274,84.4169268689393
620.88,58.42039527586894
623.484,8.765905410999949
626.086,-19.975085410178053
628.686,-3.707359239241214
631.284,9.90234835463798
633.881,54.66344137749729
636.476,80.86146085625478
639.068,58.496178583699475
641.659,38.6625480063326
644.249,53.07451225506384
646.836,59.44595503305072
649.421,84.49070299596042
652.005,120.54157575128875
654.587,94.02657871481642
657.166,59.37366739563868
659.745,55.91551168119122
662.321,40.1752125032358
664.895,50.77106612289526
667.468,83.368947463312
670.038,86.7775505851505
672.607,84.13886725734483
675.174,56.88057028975709
677.739,28.85887305631786
680.303,5.453769970535177
682.864,-16.335723038985634
685.424,0.10843385173347997
687.982,14.928069205285738
690.538,31.26499199889622
693.092,48.11813569255537
695.645,45.772130868583645
698.195,30.797306442617355
700.744,35.24016706507473
703.291,37.766251474999535
705.836,45.80299085391562
708.38,38.253995751107595
710.921,49.594295389844774
713.461,58.44176744980405
715.999,63.41428213520794
718.535,53.22494148104897
721.069,50.72969961170247
723.602,56.594030618598936
726.133,57.531025009328005
728.662,67.92043853769064
731.189,57.04678865280539
733.714,42.05173666250266
736.238,58.93408894433787
738.759,69.35932196612976
741.279,64.89767873507162
743.798,74.4051223897045
746.314,54.83286122046957
748.829,30.70354035691389
751.342,41.444576312049776
753.853,46.388158193380605
756.362,52.7712489139285
758.869,67.68796735564592
761.375,62.28006577092219
763.879,53.16550242219
766.381,69.34320469771137
768.882,64.6216417511796
771.38,54.0473971413121
773.877,50.190884328588254
776.372,51.051109791038016
778.866,58.81757899716331
781.357,77.91791666458585
783.847,87.30358225678538
786.335,64.87844262269982
788.821,33.403535112513964
791.306,49.16373545535998
793.789,68.44394944652913
796.27,122.24339987279245
798.749,123.94229439008996
801.227,93.25420768694403
803.702,53.98798745739032
806.176,68.76204132629618
808.649,74.19481425086542
811.119,111.6666944935755
813.588,110.55811007129705
816.055,89.0590537758444
818.521,74.45479867071072
820.984,73.26875644495476
823.446,64.40533576707821
825.906,39.57851492462896
828.365,40.40708113046276
830.821,35.557488876633215
833.276,44.50576590733499
835.729,50.20418109661159
838.181,69.55743613560207
840.631,69.47028579120433
843.079,82.7999200694976
845.525,79.30834637917133
847.97,73.85286693303988
850.412,68.38607995908342
852.854,62.813023768643234
855.293,35.562606538893306
857.731,16.349512285800756
860.167,11.12658302755517
862.601,10.608629519427723
865.034,26.224813417203222
867.465,12.11864848823052
869.894,-9.28056960609274
872.321,-16.78157162308071
874.747,-8.90730400389748
877.171,-4.99016669214916
879.594,4.304175905416287
882.014,2.881554490936196
884.433,24.028816352225476
886.851,25.509061125283097
889.266,31.561638461556413
891.68,55.42595521901558
894.092,53.57956836751555
896.503,69.30961122748158
898.912,76.71279113717037
901.319,81.07633950088939
903.724,85.40181898006222
906.128,77.45274020810484
908.53,77.89741660053915
910.931,93.02324773652981
913.329,97.92719321661207
915.726,101.08719890138036
918.122,104.9336231501652
920.516,72.18256782162871
922.908,98.78825689339465
925.298,135.56208174835956
927.687,151.17259884194436
930.074,137.09790832173712
932.459,103.14946121855883
934.843,64.28158092324475
937.225,92.73431799676064
939.605,110.0334478374557
941.984,111.79999215784301
944.361,92.27402617566531
946.736,69.0289619954383
949.11,58.828689132843465
951.482,75.2466198010411
953.853,67.52282943506589
956.222,51.468816263849476
958.589,29.610356120336746
960.954,18.90178582301951
963.318,-0.9882848710999497
965.68,5.6087386864564905
968.041,21.59952894098842
970.4,32.74788132014055
972.757,13.484236176121158
975.113,3.762819775544358
977.467,-36.700262329779434
979.819,-30.665121056328644
982.17,-13.368083918869615
984.519,0.9544912445089722
986.866,-5.409981778351721
989.212,35.7782448527787
991.556,20.7112441279246
993.899,79.91435709245025
996.24,113.34142146688691
998.579,83.27952617750225
1000.92,36.920432553530645
1003.25,33.4558050482151
1005.59,-7.922796135383123
1007.92,33.26179186713671
1010.25,59.96280677167124
1012.58,42.704794372986726
1014.91,49.107416581573034
1017.24,63.74259279383341
1019.56,64.61069317733381
1021.88,91.33101767033895
1024.2,85.99894164801844
1026.52,76.47163301721821
1028.84,117.32043597790653
1031.16,125.0689690703307
1033.48,148.19312798407964
1035.79,167.26394551000976
1038.1,157.99521339693047
1040.41,167.33872325590892
1042.72,228.10331698838309
1045.03,223.43108007141473
1047.33,238.89258246199097
1049.64,202.91545283466394
1051.94,150.64152424776512
1054.24,122.45064647627623
1056.54,147.34164120185233
1058.84,134.78944767902703
1061.13,136.07845887760595
1063.43,125.44538143458885
1065.72,129.31733370132906
1068.01,158.59756283830893
1070.3,209.09401905277582
1072.59,213.28126316970884
1074.87,191.6338027742172
1077.16,184.9594283539377
1079.44,178.2563589652359
1081.72,203.47514980416872
1084.0,251.04250453934583
1086.28,270.6231828828959
1088.56,314.1200033995192
1090.84,382.10241774411315
1093.11,443.13984680415524
1095.38,498.65882636590504
1097.65,498.27634325679173
1099.92,431.08555244018544
1102.19,327.98911315778605
1104.46,243.55633459582532
1106.72,214.26127393221986
1108.98,235.14940581227847
1111.24,265.93286325299505
1113.5,322.9428214044742
1115.76,345.2247384542188
1118.02,350.0621679599917
1120.28,369.59580927790785
1122.53,385.20446275244467
1124.78,364.1240801445315
1127.03,333.25729125012367
1129.28,286.3638828997259
1131.53,232.8227065293404
1133.77,178.25072860856153
1136.02,155.64589059247646
1138.26,137.33949268308925
1140.5,141.99619663836575
1142.74,154.56640953366787
1144.98,189.23866752317463
1147.22,181.43963864893476
1149.45,172.35793517372485
1151.69,181.18221162819236
1153.92,180.1964057151513
1156.15,158.49402683292146
1158.38,141.83530174152202
1160.61,99.59955832411651
1162.83,66.40427601511419
1165.06,66.67651718065372
1167.28,66.41483468956403
1169.5,57.76070329384538
1171.72,64.37947481867332
1173.94,47.793714304785226
1176.16,21.90701234134076
1178.37,16.337321208312915
1180.58,15.512195780775983
1182.8,2.954512853308188
1185.01,6.092001663627798
1187.22,-25.933223995056778
1189.42,-37.359895257445714
1191.63,-13.664721799752897
1193.84,33.15190026787559
1196.04,48.75636679941317
1198.24,62.3866282651652
1200.44,61.94742859445705
1202.64,39.05792497070843
1204.84,10.242164769359078
1207.03,-0.737580361331311
1209.23,-33.785575657589106
1211.42,-26.28214526842703
1213.61,0.8210913544357936
1215.8,18.382169845693625
1217.99,21.211633245446137
1220.18,24.73919392595326
1222.36,12.394681232675794
1224.55,-0.2014870651601086
1226.73,-9.952595228757218
1228.91,31.66674666272229
1231.09,77.9915503326165
1233.27,92.45215779648333
1235.44,87.14566413752937
1237.62,82.31210218680098
1239.79,48.334436727187494
1241.96,57.833796792663634
1244.13,68.90756511038808
1246.3,35.08175325709044
1248.47,13.358614910691358
1250.64,14.216640054312393
1252.8,-3.151355581615917
1254.96,12.733193594019667
1257.13,45.825076188833464
1259.29,59.03149094191531
1261.44,79.49775893051537
1263.6,62.75017863387893
1265.76,48.5055476637408
1267.91,24.052113066247784
1270.06,45.10671210008377
1272.22,43.767151109816496
1274.37,80.79791773258967
1276.51,98.34446453337932
1278.66,122.12368311644923
1280.81,129.75723537965996
1282.95,160.20012286401152
1285.09,144.74068467461484
1287.23,145.33392873499633
1289.37,124.17295827949329
1291.51,74.21277929803637
1293.65,59.7417270285473
1295.78,59.66717816362416
1297.92,65.65840591436199
1300.05,83.00372078846203
1302.18,96.70570660642397
1304.31,99.19550413679463
1306.44,80.57090425521665
1308.57,70.73920300824284
1310.69,88.98862810571654
1312.82,117.27405112744918
1314.94,159.12174734893415
1317.06,187.24844128135283
1319.18,157.7517807830077
1321.3,144.9198587898063
1323.41,146.04073504575217
1325.53,175.45005307152132
1327.64,232.38818094256794
1329.75,276.5716377815056
1331.87,296.6692821552524
1333.98,289.2546909483676
1336.08,278.52044299829413
1338.19,267.4209741591776
1340.3,238.5773371275768
1342.4,207.70577079199575
1344.5,185.04626958241033
1346.6,154.0768671055116
1348.7,140.0850626370975
1350.8,111.40591428111838
1352.9,75.89822736682072
1354.99,65.75407617921974
1357.09,85.87975426101048
1359.18,125.99101042874872
1361.27,162.75590383666486
1363.36,191.50908761189703
1365.45,199.44228296591564
1367.54,214.50903902022992
1369.62,219.1866354892377
1371.7,243.38084250592647
1373.79,273.9497280666242
1375.87,280.5607988090801
1377.95,289.07195031435276
1380.03,306.2457507420413
1382.1,272.1780101797981
1384.18,257.5834928499826
1386.25,228.27210550679592
1388.33,171.9584191667518
1390.4,164.0711908391413
1392.47,179.03907573269498
1394.54,166.1477680336643
1396.6,160.49237977915163
1398.67,145.35839115900671
1400.74,118.17402938915893
1402.8,96.74836187065648
1404.86,80.31891315823623
1406.92,74.36118669079178
1408.98,52.68390080755535
1411.04,56.143272383324074
1413.09,56.595395701788675
1415.15,54.03909751933634
1417.2,44.37783974790591
1419.25,41.27686023308115
1421.3,24.97269448455836
1423.35,14.13031645423871
1425.4,8.033612647650443
1427.45,8.585382564719566
1429.49,14.640673926161071
1431.54,4.863928257148018
1433.58,14.062317835044723
1435.62,35.04289365449631
1437.66,82.56497199217597
1439.7,123.10204621111598
1441.74,155.03226999360595
1443.77,152.54322628837826
1445.81,150.63193435303106
1447.84,126.29533298693195
1449.87,118.24457328792823
1451.9,116.33359712334732
1453.93,112.74962036290094
1455.96,112.48933039730287
1457.98,141.64460746641407
1460.01,147.73586503500428
1462.03,158.85491397803435
1464.05,171.09354105166267
1466.07,165.25780164995763
1468.09,159.34421732351893
1470.11,180.63502091714054
1472.13,180.5076874217716
1474.14,159.57779815979552
1476.16,124.50857163698993
1478.17,100.725156299236
1480.18,75.31939947970909
1482.19,67.38318777463269
1484.2,38.294168371420255
1486.21,6.715756091100047
1488.21,-1.4504786168758983
1490.22,-7.540993108391831
1492.22,-10.08264645462009
1494.22,-15.030787783784945
1496.22,-26.15020253372336
1498.22,-5.157964497568628
1500.22,1.7051391509080531
1502.22,-9.277772304086284
1504.21,-4.680625232337661
1506.21,-5.362962817218204
1508.2,-3.4699457326282754
1510.19,36.091456230853055
1512.18,5.604843425750914
1514.17,8.782479543338695
1516.16,20.431956237857776
1518.14,20.265714893598897
1520.13,14.948663630073042
1522.11,37.09817525956555
1524.09,16.950751911355383
1526.07,43.93345156068767
1528.05,53.42579074822743
1530.03,36.42640920426902
1532.01,24.076877330095158
1533.98,4.04264653647374
1535.96,12.084475772632231
1537.93,23.248905674281104
1539.9,37.011113664023014
1541.87,39.084435718425084
1543.84,49.61084051604871
1545.81,50.30378453786125
1547.78,72.82916240573672
1549.74,93.90054293524736
1551.7,123.1363099503551
1553.67,130.39299357429832
1555.63,118.76526818714615
1557.59,97.82404562144302
1559.55,71.99742550071028
1561.5,63.66593129223611
1563.46,82.21012731224073
1565.41,86.39156906438029
1567.37,92.6385154830125
1569.32,94.0935459383677
1571.27,100.23260581314935
1573.22,90.24595684103588
1575.17,107.37150839756805
1577.11,80.3710059338955
1579.06,52.53002893432722
1581.0,45.943703159594406
1582.95,44.70717479488371
1584.89,55.05846555024527
1586.83,56.33085157053188
1588.77,52.38143282152373
1590.7,43.68636914271997
1592.64,76.1504020144207
1594.58,100.1782810867071
1596.51,90.05571451795754
1598.44,20.449366932391285
