Raman Shift,Processed Intensity
331.095,26.505388848473103
333.909,58.32564591729988
336.721,76.75114021622721
339.531,77.94854106215553
342.339,35.1559516438665
345.145,21.373387862754953
347.949,9.69611431637668
350.751,1.3622659963125443
353.55,-10.199530013981985
356.348,0.8679433491629425
359.144,-5.006647077281741
361.937,42.605389395768725
364.729,81.18038900736929
367.518,99.95662191107431
370.306,139.69619958708336
373.091,197.4946013020176
375.874,273.4473434258384
378.656,306.84045827257523
381.435,288.0076396077193
384.212,213.7588167270551
386.988,131.71349044022872
389.761,47.34835476861144
392.532,27.044918643172423
395.301,23.279984745202455
398.068,13.578033108951331
400.833,20.79693805759962
403.596,8.17558990112957
406.358,-21.189910560667613
409.117,-42.01291258056335
411.874,-19.720970394188043
414.629,-30.360600491959303
417.382,-2.1687104155407724
420.133,2.2845416673562795
422.882,36.09574104138392
425.629,76.1234483785488
428.374,129.512003353002
431.117,172.97723677879412
433.858,228.33027798572311
436.597,225.90612409993628
439.334,225.84935218167402
442.069,208.16173612492776
444.802,151.2260540332809
447.533,136.66322892910011
450.262,171.14185041509882
452.989,209.56864871686503
455.714,258.1837306301404
458.438,290.08438689667764
461.159,233.93937577058296
463.878,195.79844467990324
466.595,160.8066137929777
469.31,180.58512625144658
472.024,186.51716030801617
474.735,217.0811605118397
477.444,212.3746450843837
480.152,229.4475371048029
482.857,255.7783528381774
485.561,307.6551519685072
488.262,309.2231544983788
490.962,299.675214791479
493.659,263.5851527579716
496.355,215.7172755160459
499.048,213.59780381540077
501.74,244.2291556035766
504.43,279.42327721133597
507.118,309.1349745380421
509.804,339.6047680465631
512.488,358.07317632960485
515.17,393.78071396175255
517.85,409.39646078008445
520.528,421.6847264028838
523.204,408.07647665310105
525.878,375.43123617231186
528.551,343.37041960608485
531.221,380.0392342179366
533.89,395.9638205985152
536.556,457.67029813669706
539.221,483.1133343001966
541.883,515.6285234399929
544.544,536.741908451901
547.203,574.3128357714813
549.86,549.6768103689483
552.515,522.2169221726504
555.168,480.17336773065017
557.819,510.9767813961298
560.469,502.8196617508802
563.116,513.1801789811857
565.761,509.77455368227675
568.405,483.41419756754976
571.047,449.2914256063491
573.687,452.31278720938144
576.324,386.67049265220703
578.96,372.6043156892101
581.594,359.59206759613653
584.227,322.682928355493
586.857,293.49744450860726
589.485,253.513241293409
592.112,228.68406811553723
594.737,223.05884401944195
597.359,201.49594125472595
599.98,144.7584212234433
602.599,120.03784185597169
605.216,90.62092212974949
607.831,111.93715896895719
610.445,84.08263462039758
613.056,37.24858593413046
615.666,-21.135740641606844
618.274,-27.68880549405003
620.88,9.20894014038413
623.484,30.653148699954272
626.086,18.596524778748062
628.686,10.134536498934267
631.284,-3.0183937832016454
633.881,35.328255549598
636.476,69.17444194711334
639.068,60.424799700686435
641.659,56.69816666654879
644.249,45.470444322479125
646.836,37.741267348264955
649.421,50.65305415855164
652.005,51.63386695950521
654.587,33.730747995947695
657.166,36.181151036595566
659.745,37.12723000215328
662.321,59.85393711720735
664.895,67.97950201451204
667.468,71.5982917916458
670.038,80.75700440101082
672.607,71.21657632554525
675.174,56.023614063949026
677.739,24.129444663537924
680.303,7.009166253089916
682.864,-7.29072999572918
685.424,24.180976378765536
687.982,12.899285661137128
690.538,-5.565591293633133
693.092,9.26129292549058
695.645,-0.6689469668540369
698.195,29.30906790382687
700.744,54.241648856713255
703.291,44.9369936547896
705.836,28.631854789679892
708.38,50.039160147432085
710.921,-4.794842516173048
713.461,13.223701756830451
715.999,-4.382790874285092
718.535,10.289039521613176
721.069,50.38064112283382
723.602,77.03345673492959
726.133,72.5317825517277
728.662,92.54086501158918
731.189,56.29737860605064
733.714,32.94276083133127
736.238,20.570832854117725
738.759,8.656372558309613
741.279,28.959878067957106
743.798,44.19423603209452
746.314,22.405675623865136
748.829,-0.16908698417046253
751.342,-7.959989859004054
753.853,3.6030429776596975
756.362,39.99486507232905
758.869,70.8332043959831
761.375,50.87866496223205
763.879,38.17758558832975
766.381,25.15727960857339
768.882,20.816512682936263
771.38,35.39217108190678
773.877,44.16878711417212
776.372,30.430921697163285
778.866,51.32030883236621
781.357,43.88347627109897
783.847,48.643175704103214
786.335,38.550765332088304
788.821,41.17668767436817
791.306,52.04380452035821
793.789,64.96073188106266
796.27,57.64088922628889
798.749,51.70250110280949
801.227,35.62097970491186
803.702,28.34797411160571
806.176,36.358990952418935
808.649,35.224824596993585
811.119,41.46870163040012
813.588,36.28056818559389
816.055,17.993282037780773
818.521,10.463566603544223
820.984,16.405345892349942
823.446,19.818317553292218
825.906,40.65462115992841
828.365,61.533125542734524
830.821,58.072763740608934
833.276,75.46396319047153
835.729,52.9924568692486
838.181,4.372618245394278
840.631,-9.30015615054981
843.079,-14.501826060155054
845.525,-7.660658259875618
847.97,-9.300083025488675
850.412,2.0565431617160357
852.854,12.076412231540417
855.293,31.569642962479065
857.731,22.536897514562952
860.167,47.16937891458065
862.601,28.99168568415962
865.034,29.718952182133307
867.465,37.494941327865035
869.894,48.79680399123572
872.321,39.3398383826343
874.747,77.31558277628028
877.171,65.82038442401836
879.594,50.569682754822225
882.014,45.61229257429977
884.433,38.75897297847814
886.851,28.48718674378324
889.266,53.03633590749405
891.68,51.26490211009923
894.092,74.3171107471826
896.503,97.00388083558983
898.912,73.70758440340842
901.319,61.00109159423937
903.724,99.17157767622757
906.128,117.31575862252339
908.53,152.95893621555342
910.931,168.48356696081646
913.329,143.60545004829555
915.726,135.6594391233957
918.122,107.74229691502205
920.516,118.90316891127759
922.908,106.42929513039599
925.298,110.41743617738757
927.687,126.96434691973764
930.074,121.0715358773823
932.459,85.83573889839909
934.843,106.78224997756297
937.225,95.86491874155536
939.605,95.70424317228435
941.984,108.73022423494967
944.361,65.70617288706944
946.736,54.30013613512028
949.11,58.465846900704946
951.482,61.728435791480024
953.853,73.27966668161207
956.222,90.64460086366171
958.589,68.53873739094888
960.954,68.24896294372911
963.318,63.44307312393403
965.68,76.31262708325949
968.041,72.43008786552673
970.4,64.55834370143748
972.757,20.603086446174075
975.113,0.18423763605323984
977.467,-20.125958788155003
979.819,6.43515836958386
982.17,-1.9412375688143584
984.519,-5.444987584684441
986.866,5.448289201746775
989.212,34.92957434118989
991.556,64.85644731311913
993.899,100.51498813590706
996.24,114.38168357857876
998.579,95.69485718209353
1000.92,94.50228975681739
1003.25,95.8040779752314
1005.59,96.88596915511789
1007.92,87.03364842369456
1010.25,89.38988302460848
1012.58,85.52595233920829
1014.91,81.91783981258686
1017.24,121.13671059389708
1019.56,136.61081774810236
1021.88,139.72074180106347
1024.2,142.22796361794735
1026.52,146.8939134721254
1028.84,151.28949630453144
1031.16,157.36652174493747
1033.48,149.36246746655843
1035.79,148.1338139692366
1038.1,169.77509364833486
1040.41,199.666511292206
1042.72,216.7120407701309
1045.03,226.7679979107379
1047.33,225.78589909469702
1049.64,195.81246270455995
1051.94,193.08484866983508
1054.24,210.2211361072964
1056.54,197.0774676279666
1058.84,198.08138412028302
1061.13,219.0413500094578
1063.43,191.76580232635888
1065.72,208.01553310972395
1068.01,221.36083371313725
1070.3,200.65768673105504
1072.59,186.95252935340068
1074.87,202.38701672016214
1077.16,207.34088051408162
1079.44,249.67002564858194
1081.72,272.6589126699787
1084.0,304.0681782549286
1086.28,343.9441604697872
1088.56,411.0474716490012
1090.84,505.7577617496954
1093.11,544.359434087215
1095.38,554.6606944039972
1097.65,515.8983142241536
1099.92,423.88048944614775
1102.19,377.7487465545237
1104.46,333.5969916887675
1106.72,284.47151209312915
1108.98,295.8947870902507
1111.24,320.00834667384197
1113.5,340.2870586727886
1115.76,384.9677016295427
1118.02,417.7632519642357
1120.28,427.0533616149705
1122.53,429.3129309162123
1124.78,393.6835386200328
1127.03,333.11630048878123
1129.28,281.1813945544227
1131.53,268.2585387588297
1133.77,241.01318287978938
1136.02,208.2060337903431
1138.26,156.78829500384654
1140.5,135.61595383806934
1142.74,152.44978286502146
1144.98,181.00296040838884
1147.22,192.98869104097503
1149.45,199.83449274881195
1151.69,190.8250555238419
1153.92,198.81652852802972
1156.15,193.52223582890656
1158.38,150.79839213511332
1160.61,134.02505662717977
1162.83,125.82042012164538
1165.06,101.32652080660455
1167.28,96.30448378678147
1169.5,69.46785586669557
1171.72,20.05403557192949
1173.94,21.44332221800687
1176.16,23.111298312611325
1178.37,30.67645211027957
1180.58,45.56684997318098
1182.8,45.972525360123655
1185.01,13.797867815576865
1187.22,-19.48122613654232
1189.42,-40.76972590860396
1191.63,-33.68679074050101
1193.84,-21.42290521637642
1196.04,6.260123516758085
1198.24,20.076783868147686
1200.44,4.313094667912537
1202.64,-3.4114926632091738
1204.84,5.093998532077421
1207.03,17.353972757021893
1209.23,34.22625985633749
1211.42,46.14020826649494
1213.61,34.38239731363683
1215.8,17.906159035300334
1217.99,19.9982428592798
1220.18,36.99309933012
1222.36,44.93954478798196
1224.55,48.64837842846282
1226.73,44.311427933838786
1228.91,28.882499866217586
1231.09,9.696425298786835
1233.27,4.802391161344076
1235.44,-5.226537937975991
1237.62,9.754197347117952
1239.79,10.889221024730432
1241.96,2.6089340103035283
1244.13,-12.322868865959208
1246.3,4.8100467197600665
1248.47,27.009686141845577
1250.64,36.087632291556474
1252.8,38.141233480927895
1254.96,25.839315156203156
1257.13,30.612653516021965
1259.29,35.93968722484669
1261.44,51.20365769781529
1263.6,36.74022557607486
1265.76,49.027944344969455
1267.91,62.35492442842724
1270.06,89.29502109285886
1272.22,67.75545092249422
1274.37,64.50059877089916
1276.51,66.24725328392651
1278.66,77.18841385124415
1280.81,75.51709755785805
1282.95,84.85490804039182
1285.09,83.77584243861065
1287.23,95.75866977550459
1289.37,122.56788076596058
1291.51,133.01559000637099
1293.65,136.39010483091488
1295.78,107.93211321545323
1297.92,66.69182406237451
1300.05,40.81467891401644
1302.18,56.636587475605666
1304.31,58.16011551915835
1306.44,92.10210135879879
1308.57,112.0365104213256
1310.69,127.58490886439358
1312.82,144.13074671850336
1314.94,164.91459340994697
1317.06,148.89127804565442
1319.18,128.82512493614013
1321.3,122.76614149939951
1323.41,152.28811092671504
1325.53,159.06001818179675
1327.64,191.36985695229987
1329.75,234.50557945849187
1331.87,256.2789034047737
1333.98,246.45388083596208
1336.08,239.12784794595473
1338.19,214.77904155306078
1340.3,190.36183462294548
1342.4,179.68768607729498
1344.5,171.56799536437302
1346.6,137.81409988673067
1348.7,132.04679623842912
1350.8,152.26776620417422
1352.9,153.9548122822489
1354.99,139.7285217788799
1357.09,135.44750233117384
1359.18,138.16076028719908
1361.27,177.01246003845017
1363.36,196.14668335230772
1365.45,201.51695060926795
1367.54,195.4100277544503
1369.62,191.06497134435585
1371.7,229.91122121265926
1373.79,273.5209788502939
1375.87,296.7520619760162
1377.95,281.98599720220136
1380.03,283.50896984350993
1382.1,264.7022975350724
1384.18,257.6614752792548
1386.25,238.67236334956215
1388.33,231.11594662311018
1390.4,191.27785581786566
1392.47,181.7293173013095
1394.54,146.56524575624871
1396.6,109.21376541804875
1398.67,82.48382654996794
1400.74,74.61282191848477
1402.8,94.07610803053785
1404.86,126.30128827551334
1406.92,120.66821035295516
1408.98,95.74705893836108
1411.04,77.86978168231212
1413.09,55.79675330484747
1415.15,59.66915397553976
1417.2,41.24706197930027
1419.25,42.099927334552376
1421.3,19.08275969712031
1423.35,21.478982930778784
1425.4,13.429003963521609
1427.45,26.120688376427097
1429.49,22.979838197316667
1431.54,53.95590918593325
1433.58,71.52201648306936
1435.62,104.67494259993941
1437.66,138.55419302659334
1439.7,150.82295660223326
1441.74,140.09668493314825
1443.77,134.46690990589104
1445.81,131.0726802480683
1447.84,155.14818856532838
1449.87,186.16563647358203
1451.9,181.64476639789268
1453.93,174.39096479993646
1455.96,180.68574635784216
1457.98,185.90580957460156
1460.01,206.90399714838577
1462.03,192.10454205714154
1464.05,177.74117078604786
1466.07,162.66663512639593
1468.09,172.0670058792307
1470.11,164.17596655899615
1472.13,167.37005947812986
1474.14,143.69250326023234
1476.16,155.18653416276038
1478.17,153.5620807330531
1480.18,145.1957717976925
1482.19,122.94046826138651
1484.2,97.17289014394623
1486.21,66.98410076011555
1488.21,61.274752804167065
1490.22,48.278905863068985
1492.22,24.849748691555533
1494.22,5.74532148719527
1496.22,-29.942904691685726
1498.22,-31.98049612711725
1500.22,-13.70433359158369
1502.22,-12.641654595130603
1504.21,-2.6529085750746617
1506.21,18.115862688657216
1508.2,2.375881450762563
1510.19,8.0289663000151
1512.18,1.8341977920524641
1514.17,-20.068272822989
1516.16,3.890394650964481
1518.14,30.755347790811356
1520.13,29.667086473756626
1522.11,25.385269701566585
1524.09,11.860141472436908
1526.07,23.184909033813938
1528.05,56.8814544685506
1530.03,75.5193796143958
1532.01,91.95409860253335
1533.98,67.99350182468925
1535.96,51.35033418595299
1537.93,36.78504954808113
1539.9,33.201046125175935
1541.87,35.26371140317724
1543.84,65.63851467839845
1545.81,54.84814721511452
1547.78,79.320138593622
1549.74,101.86304448687497
1551.7,121.57120586569181
1553.67,119.20569868015104
1555.63,107.19433116003574
1557.59,82.63164111527794
1559.55,73.18365514116431
1561.5,94.94502877592686
1563.46,126.39142475356903
1565.41,136.1414150662115
1567.37,117.86124016930466
1569.32,101.21718723444474
1571.27,69.16130173553552
1573.22,73.88376570161427
1575.17,67.43194263634268
1577.11,49.948470056547194
1579.06,38.242685364088175
1581.0,28.40967076535253
1582.95,34.87786961931329
1584.89,58.79003611892631
1586.83,43.05085163919716
1588.77,22.326922037623035
1590.7,7.665822573687365
1592.64,-2.6943809811732535
1594.58,12.603436385447822
1596.51,27.583075274995508
1598.44,29.74453271334778
