Raman Shift,Processed Intensity
331.095,148.7450984697516
333.909,31.039306576367835
336.721,-7.295341752460899
339.531,4.241168348540214
342.339,27.98221480851589
345.145,47.71360110481055
347.949,8.959285413955968
350.751,-26.994794999240185
353.55,-49.33880415451404
356.348,-16.738992490862074
359.144,-20.71863721054251
361.937,-21.134226160750586
364.729,-52.55640534508848
367.518,-5.603309547322624
370.306,65.15467626187774
373.091,152.48062580323858
375.874,217.5663036065862
378.656,266.6988256999789
381.435,253.6892250607375
384.212,218.53911230458516
386.988,134.3930506604911
389.761,52.53854999313762
392.532,5.644156063479386
395.301,-21.76436497260056
398.068,-13.446889684681992
400.833,1.7891524674814718
403.596,23.898295181870253
406.358,45.835121355511546
409.117,11.792349311031103
411.874,10.391299975579841
414.629,-5.365731178339502
417.382,2.4283275836023677
420.133,13.109127041228021
422.882,25.96469923175073
425.629,23.75925991675149
428.374,74.11415525502252
431.117,105.55547774636398
433.858,112.75216076628885
436.597,109.1350254816839
439.334,93.3729706236154
442.069,108.23011464108458
444.802,116.6610330928761
447.533,120.47742461083635
450.262,134.20525305362435
452.989,156.3704610890377
455.714,191.07039806205785
458.438,234.92620024383905
461.159,236.74945679498705
463.878,213.11363763359668
466.595,187.1159974937641
469.31,157.32995617458664
472.024,165.09081212248793
474.735,180.25764648972927
477.444,195.0704652881609
480.152,232.3406748763091
482.857,200.1177479226517
485.561,199.35588936888962
488.262,195.24736905988857
490.962,196.841568659328
493.659,213.09259999392407
496.355,250.28787577859748
499.048,222.6195374844997
501.74,221.47016892132024
504.43,204.03184315293583
507.118,212.44897893685993
509.804,229.67548287797263
512.488,261.3795106298803
515.17,283.3244185724625
517.85,276.7497154894163
520.528,309.4662999600969
523.204,301.66598346562523
525.878,285.11196587596123
528.551,293.61502522268165
531.221,286.3192312812989
533.89,288.2257543916662
536.556,338.6214361831494
539.221,353.8406936331321
541.883,365.1702802683817
544.544,388.89690450927355
547.203,400.59294325210476
549.86,413.73548878473775
552.515,413.13491951177593
555.168,422.4587087749692
557.819,423.37428129266664
560.469,440.6918695992754
563.116,438.17403715138107
565.761,423.24996333865056
568.405,401.01544278043
571.047,381.0900274794967
573.687,369.3313118329497
576.324,364.45397954786495
578.96,311.2202791283735
581.594,283.53526126750285
584.227,246.9705876675962
586.857,209.0978636702498
589.485,181.82197088625207
592.112,153.33344744457008
594.737,131.48943966990873
597.359,158.62322518883275
599.98,152.87754555970423
602.599,126.82365318833581
605.216,98.84226300555201
607.831,36.12355176379242
610.445,11.619538286091938
613.056,20.663130381726205
615.666,43.73002890471298
618.274,79.34349017168643
620.88,100.59813811624235
623.484,50.017109776621965
626.086,17.742534116729985
628.686,-19.893036771886273
631.284,-13.509482182349075
633.881,41.225653556176894
636.476,76.83525855789821
639.068,75.2707493872872
641.659,73.48350039930301
644.249,66.56770165105445
646.836,30.331788242023777
649.421,21.774631559054797
652.005,28.180778140392704
654.587,17.739498063527208
657.166,56.68764285684529
659.745,62.11917007794955
662.321,29.22324110016325
664.895,61.04612842284769
667.468,97.77693250552738
670.038,81.27139384010434
672.607,94.52808597545663
675.174,34.64079901822697
677.739,-11.296695914005795
680.303,-5.143025096700512
682.864,11.100314159583377
685.424,14.574669150565114
687.982,4.707089741544223
690.538,19.115092206553527
693.092,24.60666116275206
695.645,38.89453769718148
698.195,51.31050749351516
700.744,47.90064133977012
703.291,24.091964207439105
705.836,37.31150528301123
708.38,25.652967047105903
710.921,47.30529911551548
713.461,36.1241292230975
715.999,28.91747992195178
718.535,-8.125657577536458
721.069,-8.054368613275528
723.602,10.891806388614896
726.133,56.85430205469993
728.662,69.64124308409873
731.189,98.34649260169863
733.714,67.9210814637454
736.238,60.982732801532165
738.759,45.768243707948386
741.279,65.1334859716494
743.798,46.12483538264814
746.314,57.88393437124478
748.829,30.552454646964634
751.342,14.986383647015828
753.853,-3.1487366342967107
756.362,37.95552442193775
758.869,41.774296317217704
761.375,74.83036022740816
763.879,70.7893875087907
766.381,45.555178204127515
768.882,37.88870907252203
771.38,28.741467333574747
773.877,31.11259393534783
776.372,64.95364586995265
778.866,72.93050134626719
781.357,80.37574115313782
783.847,91.62198240352609
786.335,76.52568846913528
788.821,58.276693200747104
791.306,68.77915371998552
793.789,88.93726511583554
796.27,98.22668942688597
798.749,98.36122271880504
801.227,110.7213669237317
803.702,78.6400445367999
806.176,79.49783712219187
808.649,92.8182238191921
811.119,52.93424841966316
813.588,31.845662636008456
816.055,34.361783654842384
818.521,35.05387550018804
820.984,75.92181611095248
823.446,83.58457394221205
825.906,77.32782742364361
828.365,73.00872727510068
830.821,53.10351596503642
833.276,54.46943288321927
835.729,87.77328618011188
838.181,97.49145317767443
840.631,108.33845220874309
843.079,90.171704932598
845.525,66.65820341243898
847.97,64.89355814523196
850.412,68.06866513919067
852.854,74.6601825150583
855.293,76.47814996454008
857.731,63.80884630396258
860.167,42.74812321841773
862.601,17.915691386865547
865.034,9.883692321514445
867.465,11.41479401673314
869.894,20.795524693195148
872.321,39.83627320869118
874.747,19.2522418498952
877.171,1.092018171745167
879.594,-17.548138877459223
882.014,-10.238584259534946
884.433,4.688475579801889
886.851,45.94850519144347
889.266,76.8760663032458
891.68,84.85338732808259
894.092,59.3579804909491
896.503,70.62930657510879
898.912,69.62115395395767
901.319,90.38258905146404
903.724,119.72462108831951
906.128,139.12496206618744
908.53,153.9185010376691
910.931,166.39254028102732
913.329,136.8344124272835
915.726,128.91243092066134
918.122,119.34255476473027
920.516,136.7455294590377
922.908,157.98021841192258
925.298,168.33407721047524
927.687,160.80886598573488
930.074,161.73969511121504
932.459,164.27121375858815
934.843,153.88141750097338
937.225,162.19117020194972
939.605,144.9165830474244
941.984,112.72615548226122
944.361,111.38363043263189
946.736,121.74799238551259
949.11,104.20203689676282
951.482,128.84284486111346
953.853,119.19606630595354
956.222,77.1206803756013
958.589,62.99946960128318
960.954,54.73901798064071
963.318,35.817328104849366
965.68,44.426676380985555
968.041,17.80694444486835
970.4,0.15037914532831564
972.757,-14.684123662006186
975.113,-4.26625913044154
977.467,19.691398958407717
979.819,33.52387092299978
982.17,0.7566244196641492
984.519,-16.513477081506153
986.866,-23.618178201715182
989.212,8.015497852939006
991.556,17.341434166984982
993.899,46.98012621919179
996.24,33.552007853314535
998.579,29.153636132713928
1000.92,36.7862571473579
1003.25,56.54627658273466
1005.59,21.577635050660774
1007.92,12.071802467711677
1010.25,-0.16079899492206096
1012.58,36.213963547064395
1014.91,62.05393149014162
1017.24,78.55017633444459
1019.56,46.79842603717634
1021.88,24.227634223154382
1024.2,26.266644633443775
1026.52,36.6775222406618
1028.84,70.79364873756913
1031.16,98.37686831529982
1033.48,73.66510963205246
1035.79,101.89619825798945
1038.1,124.7364310248895
1040.41,145.89962656627404
1042.72,174.62331871469132
1045.03,177.90685466088507
1047.33,137.13044549393226
1049.64,137.72183578898648
1051.94,125.25154462359933
1054.24,131.71858278451327
1056.54,131.40759854589123
1058.84,127.50792820943707
1061.13,113.39931331119351
1063.43,115.12809401881759
1065.72,126.45483110027908
1068.01,133.759070749712
1070.3,153.134585603731
1072.59,180.81794909108976
1074.87,188.23615740137802
1077.16,214.6732990727687
1079.44,230.79436743690076
1081.72,210.55002544471836
1084.0,201.93851334945612
1086.28,240.29136591342922
1088.56,288.701986757686
1090.84,396.97803223547317
1093.11,432.7366524485592
1095.38,440.4997322635586
1097.65,422.5034180425373
1099.92,400.126691992672
1102.19,364.5580417539977
1104.46,347.98593951095836
1106.72,291.36074967539616
1108.98,269.5375889504853
1111.24,261.133472108957
1113.5,274.0987434856138
1115.76,308.2408894222135
1118.02,333.84358880759464
1120.28,338.7619540940009
1122.53,336.6130104086333
1124.78,286.3947460937793
1127.03,239.48611562790165
1129.28,225.59942349910034
1131.53,178.54223188810465
1133.77,145.931649303644
1136.02,135.9086192178197
1138.26,124.75697060624452
1140.5,138.3319922976957
1142.74,170.0128168475785
1144.98,170.98813774472546
1147.22,168.01811709437516
1149.45,178.62486472973796
1151.69,186.90196494259635
1153.92,158.70495559486608
1156.15,125.60371199205247
1158.38,98.31102123290611
1160.61,46.34925179717084
1162.83,44.240832657148076
1165.06,58.8415895321059
1167.28,67.53122399984068
1169.5,57.594268798713074
1171.72,55.839138367779924
1173.94,19.26479843453626
1176.16,-5.939231064014621
1178.37,-9.630968298386506
1180.58,-1.7635837433081178
1182.8,-15.671110239708014
1185.01,17.026798301061262
1187.22,26.758203247274196
1189.42,10.475073059261376
1191.63,-10.584810612463116
1193.84,-8.278803971915295
1196.04,6.6786965523833715
1198.24,30.668636536738177
1200.44,17.738732544252798
1202.64,9.032044639574906
1204.84,-6.022546334461822
1207.03,-11.28176624209027
1209.23,-7.697469472262583
1211.42,-15.173780427292968
1213.61,-15.233760001099654
1215.8,10.647260477632244
1217.99,29.422629418392717
1220.18,46.855323538079574
1222.36,31.279848811178
1224.55,42.12604618185469
1226.73,31.39527822842456
1228.91,10.61280630401734
1231.09,5.732548629621306
1233.27,19.04183838712879
1235.44,14.732848479051427
1237.62,58.23592162600471
1239.79,55.31480522609854
1241.96,36.304743357186
1244.13,15.160092588628231
1246.3,-8.54568125455944
1248.47,-6.620006327561896
1250.64,10.272601522178775
1252.8,19.610534629995072
1254.96,19.776993464410225
1257.13,15.917125700693305
1259.29,20.98564148489686
1261.44,20.842047745504715
1263.6,5.488739647942111
1265.76,0.451949191942731
1267.91,9.781741427965244
1270.06,23.242487423115563
1272.22,60.312861083206826
1274.37,61.66202744084694
1276.51,39.95916427686643
1278.66,32.682983741734006
1280.81,23.074111119845384
1282.95,34.135082641423196
1285.09,62.39224805632102
1287.23,60.37195892211321
1289.37,54.933899749331886
1291.51,62.27108581336461
1293.65,72.57652763302394
1295.78,96.90037163959414
1297.92,85.86418370302044
1300.05,68.47047075334194
1302.18,46.483630973549225
1304.31,46.191856373394785
1306.44,51.121416315585066
1308.57,75.13189342291844
1310.69,60.749514723519496
1312.82,93.07191136750225
1314.94,94.14906881982279
1317.06,109.03094371979023
1319.18,88.95793788343781
1321.3,103.78946754398612
1323.41,98.52777068754631
1325.53,122.5083810554961
1327.64,118.01917357541925
1329.75,151.72893360156968
1331.87,184.40164044104858
1333.98,206.46789373712636
1336.08,201.45348270970408
1338.19,180.59843158625563
1340.3,146.99985455656997
1342.4,138.8976678703575
1344.5,160.86506383961205
1346.6,137.09422293622993
1348.7,130.2534544610471
1350.8,119.15386102240836
1352.9,123.08266968139787
1354.99,100.42227738279144
1357.09,118.12643924314261
1359.18,117.00598064840051
1361.27,148.49069982771243
1363.36,178.53412757008755
1365.45,207.04209646487334
1367.54,221.72988157080636
1369.62,243.21743632315565
1371.7,234.36272367897163
1373.79,243.78552345279877
1375.87,254.34362060478406
1377.95,244.6089935287705
1380.03,269.3440023403964
1382.1,276.5013866890017
1384.18,226.93854928382007
1386.25,201.17945846778957
1388.33,192.3194079342229
1390.4,164.83453834823604
1392.47,190.200882777709
1394.54,183.6086502194812
1396.6,139.105080554119
1398.67,109.4515852149666
1400.74,98.55231642861918
1402.8,65.83511740778476
1404.86,57.5372344489042
1406.92,17.800552839298234
1408.98,-2.137929140446886
1411.04,10.14913569066539
1413.09,15.517538281147608
1415.15,31.727703224567904
1417.2,31.016117783402933
1419.25,19.952476785170802
1421.3,7.677779899521283
1423.35,34.99957177246506
1425.4,46.15385084069885
1427.45,60.66221703596102
1429.49,61.236638537006456
1431.54,45.58898042634246
1433.58,31.240533346956454
1435.62,70.76011358761798
1437.66,99.66882983484447
1439.7,127.20199278201062
1441.74,139.21388188131414
1443.77,118.27298828621997
1445.81,111.94773398437155
1447.84,107.13980997813132
1449.87,102.75084779844792
1451.9,109.587186256824
1453.93,102.55035248299487
1455.96,84.20849534356307
1457.98,94.1773426701518
1460.01,130.7392537256601
1462.03,168.795605003844
1464.05,175.00965221938964
1466.07,175.4255827741606
1468.09,158.373282509177
1470.11,150.99215007562952
1472.13,140.32633987732584
1474.14,118.1819097750431
1476.16,92.31730212420348
1478.17,74.96715814588856
1480.18,67.74708467880373
1482.19,66.17746855028872
1484.2,49.73110047114051
1486.21,29.4522275018644
1488.21,28.099415042737746
1490.22,16.669361204823645
1492.22,14.53975880003918
1494.22,10.23120495026592
1496.22,23.64530117265531
1498.22,16.63608679826757
1500.22,11.15290096213539
1502.22,4.716577926657237
1504.21,-6.199595690243314
1506.21,-17.884161782196543
1508.2,-13.244628764324716
1510.19,6.573485020532189
1512.18,18.900939353030708
1514.17,19.211439766485228
1516.16,4.835924223652455
1518.14,-3.9421978255304566
1520.13,-12.267996862400196
1522.11,-4.143593765634478
1524.09,17.428983608622957
1526.07,18.543037818551966
1528.05,13.434819760857408
1530.03,15.293051356871501
1532.01,0.25892442913664127
1533.98,-13.811995660111734
1535.96,7.126419343824409
1537.93,38.54895472871999
1539.9,52.07333600586253
1541.87,73.93641686238675
1543.84,63.66084330409467
1545.81,63.91219398874841
1547.78,65.16564436888257
1549.74,74.70596416795843
1551.7,57.10370533269679
1553.67,69.02472331875379
1555.63,70.94446028115294
1557.59,97.5765139790085
1559.55,94.53930191834388
1561.5,102.35605882823847
1563.46,104.35959604174195
1565.41,87.2161084958284
1567.37,51.82993411230541
1569.32,45.05783698824712
1571.27,28.1851953483324
1573.22,39.02123711623335
1575.17,76.32760881932768
1577.11,80.91361116008648
1579.06,57.58857744459851
1581.0,69.87615677299345
1582.95,66.25240675368082
1584.89,71.33626716996832
1586.83,80.74670031334244
1588.77,56.24554560247134
1590.7,11.213707535531057
1592.64,-2.1107515955568488
1594.58,-9.013566609939744
1596.51,1.6719185144897892
1598.44,34.94570028532962
