Raman Shift,Processed Intensity
331.095,59.61557184029698
333.909,13.473416667553465
336.721,2.10018360975846
339.531,20.16254526072953
342.339,74.58909083048229
345.145,125.57033207238601
347.949,156.34442349601522
350.751,146.5781206752381
353.55,127.17630998489085
356.348,162.1391573850674
359.144,193.89544768159976
361.937,197.92163807225734
364.729,184.93234026436767
367.518,170.35651687816926
370.306,165.09939213586222
373.091,261.5900768363913
375.874,334.3053838064202
378.656,357.86507192273257
381.435,372.22232822986734
384.212,295.4732976768041
386.988,171.2380414250788
389.761,87.85101896641709
392.532,14.884903573709835
395.301,-33.80179272420446
398.068,-21.159951310612996
400.833,-15.56888867280395
403.596,-13.645878079651084
406.358,6.89670734725496
409.117,-13.843845415173291
411.874,-17.91297375055092
414.629,-27.975032627972723
417.382,0.020034328007568547
420.133,15.122402500466706
422.882,52.14426076375912
425.629,114.42170596963206
428.374,194.29092498004547
431.117,263.99295394752926
433.858,355.48319950032237
436.597,399.0028646893975
439.334,422.5075177926333
442.069,428.9051849285074
444.802,418.7706331459817
447.533,400.63108208581434
450.262,391.6804870704441
452.989,399.82715552720856
455.714,402.7889824591798
458.438,421.9505906778977
461.159,426.6490424646877
463.878,392.31669408911375
466.595,349.38595508934395
469.31,336.8130951715643
472.024,350.12586063319804
474.735,374.66156697659517
477.444,384.1861439036793
480.152,346.846513643919
482.857,341.02773118707864
485.561,353.7339340397666
488.262,351.159768172462
490.962,335.64276634748103
493.659,361.94905978028237
496.355,344.0828993245873
499.048,396.4771290384483
501.74,477.4217549884215
504.43,501.2544188156344
507.118,535.0746808256836
509.804,604.6487792689841
512.488,688.600103906851
515.17,809.2187171966139
517.85,902.0327802386487
520.528,934.9037882472153
523.204,917.0265679260492
525.878,914.4530843677785
528.551,946.3781527152355
531.221,957.9013402989672
533.89,959.979344965207
536.556,962.8545638800447
539.221,958.0074718574019
541.883,954.4423330203404
544.544,935.7824362718925
547.203,927.8891402896916
549.86,943.1475851872833
552.515,951.5143089373414
555.168,998.0886733186958
557.819,1010.8747660538347
560.469,1031.495683898785
563.116,1064.9078157329945
565.761,1105.2103637444625
568.405,1127.5501027100963
571.047,1146.6928059427414
573.687,1165.9756236191597
576.324,1179.2594611080153
578.96,1182.7861192026148
581.594,1203.9878153060322
584.227,1184.6300379495678
586.857,1147.6686870254944
589.485,1126.250071162658
592.112,1102.663286054465
594.737,1086.3878308821004
597.359,1061.1412247377539
599.98,1033.1647182859379
602.599,1007.1280530438603
605.216,983.6532682808365
607.831,1005.9337460129445
610.445,1022.9246845691023
613.056,1010.1526197762041
615.666,1063.3820890013913
618.274,1176.472771384801
620.88,1289.5699614056512
623.484,1409.6283757816527
626.086,1491.9359603684238
628.686,1529.5424589636705
631.284,1582.9260773494607
633.881,1601.8506235249793
636.476,1579.460743177373
639.068,1495.3771551525983
641.659,1369.601410735795
644.249,1230.1349386459488
646.836,1102.5980900305549
649.421,924.6110882221756
652.005,752.413073733102
654.587,609.5287682976295
657.166,472.3399008190945
659.745,364.13282379309885
662.321,299.0508916355061
664.895,259.6182675818627
667.468,193.31134963443628
670.038,168.70162508067733
672.607,146.74138215454423
675.174,125.57323122163098
677.739,120.72057834524321
680.303,121.61143218581401
682.864,76.81649661459778
685.424,41.19202523213153
687.982,11.022675886691559
690.538,17.402460430849715
693.092,12.90141317151847
695.645,24.946546300620412
698.195,26.536140591608728
700.744,22.858799430138788
703.291,0.19821976047796852
705.836,-2.0667961284348166
708.38,-12.414707413904125
710.921,14.96163656634235
713.461,17.964534064021336
715.999,23.305729215303472
718.535,36.79213890725305
721.069,28.659198691880647
723.602,60.42801822400497
726.133,68.7625366991233
728.662,53.94572591031692
731.189,32.260555209933045
733.714,25.990004090302136
736.238,15.750408097791933
738.759,36.30099522304772
741.279,26.877231815043615
743.798,2.857501828463228
746.314,-47.2844996432018
748.829,-48.360706167891294
751.342,-41.373429299020245
753.853,4.437030033604515
756.362,21.401907972916433
758.869,45.043023813797845
761.375,11.453730844200436
763.879,19.15605766245153
766.381,-2.3754838387708332
768.882,-4.4281857265596045
771.38,-9.336859853332498
773.877,13.039970127136257
776.372,-6.108504208689283
778.866,34.97843192985874
781.357,54.823491198293596
783.847,76.8542397199949
786.335,119.06976221304421
788.821,124.70732711705296
791.306,123.05190886284527
793.789,162.15047204691064
796.27,215.24054132013453
798.749,269.8930569908207
801.227,347.77427824675897
803.702,396.45530542491224
806.176,419.60255466205626
808.649,425.6444230216148
811.119,422.15223933477046
813.588,387.8878817082532
816.055,351.0894902702112
818.521,327.18575134465846
820.984,278.98637210211245
823.446,221.30112663880573
825.906,190.9874734844634
828.365,185.66483977675352
830.821,166.85747686430977
833.276,161.8992206716507
835.729,126.98110920696922
838.181,70.38947626038362
840.631,45.172616530765936
843.079,49.28364122875587
845.525,60.91380987025195
847.97,60.778243022270544
850.412,73.16353981072075
852.854,94.49920495198512
855.293,83.7385995940258
857.731,67.59703501463196
860.167,63.36129489109476
862.601,39.08010995083623
865.034,7.468918336315255
867.465,32.052721208039884
869.894,38.070843109481075
872.321,45.33407328436783
874.747,55.367521279697485
877.171,62.93442492970098
879.594,5.512339292185743
882.014,-8.516388700828884
884.433,-4.1503360686726865
886.851,-15.626148179013171
889.266,22.91479304563154
891.68,66.04541520709313
894.092,106.76723803431287
896.503,132.3198940813329
898.912,144.65731609195404
901.319,122.40011484058414
903.724,140.16890935403967
906.128,114.96527618096002
908.53,133.45746056599546
910.931,109.50418286207992
913.329,85.01177827604874
915.726,112.69609851901055
918.122,146.272984885293
920.516,125.60112228376943
922.908,128.30108374537986
925.298,105.51723207351006
927.687,109.44152625627771
930.074,129.17066121214407
932.459,142.22987420220056
934.843,113.57294171864169
937.225,107.96312875419017
939.605,122.68747140485402
941.984,143.93772613935766
944.361,138.71512859237782
946.736,110.83039045301939
949.11,58.76083921043255
951.482,40.69803408990833
953.853,89.0715724651634
956.222,104.31099150872456
958.589,142.4648126994532
960.954,130.9148244253097
963.318,110.32845982422214
965.68,84.32546033923245
968.041,95.52549165460414
970.4,68.35766439382564
972.757,68.96529291285606
975.113,49.586844569564164
977.467,26.984508040785386
979.819,25.491809258428248
982.17,40.01360829796067
984.519,41.21657524213583
986.866,50.24347821510514
989.212,57.570328559389964
991.556,64.10162125094234
993.899,82.26557531420895
996.24,105.966517094339
998.579,99.77535876748289
1000.92,84.16769589871683
1003.25,77.28571452376923
1005.59,81.12866965931971
1007.92,44.93384000377364
1010.25,68.03367311422835
1012.58,75.52245439296166
1014.91,78.25630940725682
1017.24,79.42463478065588
1019.56,91.78819575088028
1021.88,79.1553189658473
1024.2,103.14379956539983
1026.52,108.65709397731825
1028.84,124.55098890381578
1031.16,129.06217506992834
1033.48,134.85586859096634
1035.79,138.59724186377161
1038.1,141.9514258865488
1040.41,158.6787506739372
1042.72,179.1109380530279
1045.03,199.91300874509898
1047.33,190.94042754258658
1049.64,183.9533913431908
1051.94,167.6168314697029
1054.24,172.5480350374471
1056.54,170.93569489315223
1058.84,199.20657860144024
1061.13,211.54934028846333
1063.43,218.67642772363615
1065.72,199.39551321089402
1068.01,191.37140067042628
1070.3,189.98317081564596
1072.59,197.18132633016307
1074.87,212.8687465685573
1077.16,219.80545178096872
1079.44,235.94193876625104
1081.72,267.2763260489405
1084.0,305.66388000860366
1086.28,346.86463624728344
1088.56,413.9243542902743
1090.84,502.5554722869024
1093.11,589.5656807589255
1095.38,614.1912582536929
1097.65,566.23993080683
1099.92,466.1384933096879
1102.19,378.8375737339288
1104.46,341.0497306894497
1106.72,332.86850336325233
1108.98,338.6255566964155
1111.24,369.5573503705864
1113.5,378.4241887468536
1115.76,430.89117556652377
1118.02,487.9091686519025
1120.28,524.0481155594564
1122.53,526.6875320901138
1124.78,546.2545998471883
1127.03,487.46226379429777
1129.28,439.023520289471
1131.53,391.6990384525948
1133.77,336.44001962809693
1136.02,295.3405806571516
1138.26,289.0663276260732
1140.5,290.3305486623383
1142.74,328.7513591115571
1144.98,384.28027528587904
1147.22,423.44031202191945
1149.45,444.61169928630306
1151.69,424.6985511621599
1153.92,389.9383919784773
1156.15,341.80692053468783
1158.38,315.44658384906575
1160.61,306.3808651928384
1162.83,291.94285783858663
1165.06,280.94193404673
1167.28,249.90184262344474
1169.5,221.34642552619607
1171.72,198.27581065974914
1173.94,193.07117610074783
1176.16,154.35189527467764
1178.37,98.9755392756881
1180.58,59.41883156736617
1182.8,44.96812649303456
1185.01,42.48131635747745
1187.22,62.76878612771202
1189.42,35.641034800429225
1191.63,-2.6627508496117116
1193.84,-19.903265378340166
1196.04,-26.126796638264068
1198.24,-8.189033266762635
1200.44,-6.04077917632344
1202.64,-8.823194857385943
1204.84,5.4179128029804815
1207.03,19.39875242367043
1209.23,60.02611381935549
1211.42,103.15926760015623
1213.61,86.70520009480742
1215.8,104.04718160715038
1217.99,135.09238229168272
1220.18,150.46234517196172
1222.36,176.7786972542533
1224.55,167.42505111736295
1226.73,110.64223983581178
1228.91,91.48069476014712
1231.09,92.18139472582743
1233.27,76.46157716686935
1235.44,90.18140161044857
1237.62,126.2010893619738
1239.79,157.76187271397293
1241.96,227.86694415497482
1244.13,297.0909770069627
1246.3,316.86583653901425
1248.47,369.3377196523686
1250.64,497.79572313692347
1252.8,623.6718404991655
1254.96,806.9695302186688
1257.13,977.2160935284096
1259.29,1088.415052195083
1261.44,1193.6175739184598
1263.6,1283.6843739212266
1265.76,1286.5714260626348
1267.91,1213.6632929997672
1270.06,1117.5350277773716
1272.22,1008.5712182748446
1274.37,899.9183649865461
1276.51,814.7705921354598
1278.66,745.6553587868457
1280.81,626.3382175809493
1282.95,567.4418591799947
1285.09,534.5413471913723
1287.23,476.92601975748516
1289.37,437.93281971702936
1291.51,428.1367676234113
1293.65,399.636672858403
1295.78,406.2932256981826
1297.92,445.8242322365088
1300.05,479.3284207364761
1302.18,522.1425813156031
1304.31,537.7463246785369
1306.44,541.4287456116733
1308.57,555.4788960015712
1310.69,604.281019758148
1312.82,641.6955020235737
1314.94,705.4874374287967
1317.06,722.3742459691125
1319.18,733.9780507844946
1321.3,735.1590083208725
1323.41,735.2534003961814
1325.53,704.2641072187848
1327.64,685.955842310656
1329.75,646.4265779067537
1331.87,601.4884941639107
1333.98,534.7155950363933
1336.08,492.39608605622675
1338.19,433.24665687542165
1340.3,369.46009714153706
1342.4,301.08624570656775
1344.5,237.74627316917918
1346.6,173.25172632169324
1348.7,176.65214402565266
1350.8,147.47314927785487
1352.9,133.04977937162903
1354.99,125.47886367716
1357.09,115.33330618371792
1359.18,93.99541566093762
1361.27,91.51404534390622
1363.36,74.46173261825174
1365.45,88.31564822904511
1367.54,131.8385454896968
1369.62,155.17399520514937
1371.7,188.27495392839523
1373.79,184.66566555033364
1375.87,169.72737241343452
1377.95,152.3173597587372
1380.03,153.95942874427237
1382.1,148.79627422539374
1384.18,172.92281491605786
1386.25,171.8147616453391
1388.33,157.1857570425177
1390.4,127.89213426978608
1392.47,99.59958051686613
1394.54,69.21170525753087
1396.6,31.441465648981875
1398.67,0.5254490740885558
1400.74,9.128631874098573
1402.8,-0.7984777609983666
1404.86,13.408731727585746
1406.92,16.70040491301006
1408.98,20.645553702270718
1411.04,42.24158354386941
1413.09,89.39048803598962
1415.15,113.99409326307364
1417.2,184.90644498954816
1419.25,217.3623863297389
1421.3,244.54899256063686
1423.35,265.08176783943236
1425.4,252.3379847781871
1427.45,232.1233573518441
1429.49,233.52918999670806
1431.54,193.45619337560106
1433.58,154.85258585729525
1435.62,148.38076642452734
1437.66,120.8458923439091
1439.7,114.38636159775206
1441.74,107.75953341112495
1443.77,69.53221068367634
1445.81,80.84255099288816
1447.84,115.25721569256007
1449.87,119.39042377320766
1451.9,146.52300572245463
1453.93,153.74526690923335
1455.96,133.38556525369768
1457.98,164.62936508761481
1460.01,249.90019577665407
1462.03,338.1929912950702
1464.05,471.50266789560874
1466.07,605.7288922556133
1468.09,749.5332305755126
1470.11,916.5296310106414
1472.13,1144.189191817346
1474.14,1352.0306437848049
1476.16,1538.0965469525672
1478.17,1673.572344470945
1480.18,1722.8339878899747
1482.19,1648.9717529245722
1484.2,1519.0283409339759
1486.21,1308.7131708773666
1488.21,1085.8309569837925
1490.22,874.5674292792185
1492.22,692.8226731612099
1494.22,497.25875468789104
1496.22,350.014012533572
1498.22,248.03639756342295
1500.22,202.7977647890939
1502.22,166.3414986576704
1504.21,149.23490024539024
1506.21,105.99776492754586
1508.2,51.29286481029453
1510.19,-4.978806932769885
1512.18,-18.43993458118507
1514.17,-32.094016483428504
1516.16,-26.32535931751272
1518.14,-9.994312380710426
1520.13,6.372256521980262
1522.11,6.009529979777653
1524.09,28.629023138402545
1526.07,31.656675386170946
1528.05,20.66141823056364
1530.03,17.640886031945683
1532.01,25.783317213471946
1533.98,29.896122137663042
1535.96,36.88207003059142
1537.93,38.45357114416424
1539.9,10.751720823171127
1541.87,24.346295953281924
1543.84,60.902418075709875
1545.81,87.466264120922
1547.78,123.65553904710941
1549.74,139.08804371675387
1551.7,139.14357610653337
1553.67,139.0591658505582
1555.63,177.83383259313223
1557.59,199.65715386531951
1559.55,235.62354724722377
1561.5,250.77988586359425
1563.46,269.5064472127701
1565.41,259.6597667575247
1567.37,247.19168199210458
1569.32,205.57790031878926
1571.27,168.29418597207246
1573.22,126.0068326571261
1575.17,128.8583742835026
1577.11,157.61043855598064
1579.06,139.21517199398272
1581.0,148.10095066528152
1582.95,143.93428139588855
1584.89,115.47694107518396
1586.83,117.96692548485316
1588.77,141.5946362230643
1590.7,107.69335334292896
1592.64,100.12018418144066
1594.58,70.08939314079407
1596.51,44.62477908875485
1598.44,35.72633847330712
