Raman Shift,Processed Intensity
331.095,71.3503206175651
333.909,75.24477268561259
336.721,52.02379802082487
339.531,25.35407041545932
342.339,55.64037315104042
345.145,47.239891838240055
347.949,114.29555487578864
350.751,146.2360405760678
353.55,170.34721286212198
356.348,174.24831886944048
359.144,196.41580559536214
361.937,207.99285083418727
364.729,229.36079887420283
367.518,237.80583428994487
370.306,277.0904176392246
373.091,312.3580544934939
375.874,373.94282637297647
378.656,440.46463596750937
381.435,414.35302378595725
384.212,335.94241337705625
386.988,204.61497559787722
389.761,80.65777859656964
392.532,11.119937795106125
395.301,-3.615948413680144
398.068,-28.405220111917515
400.833,-27.626863016800144
403.596,-5.612073159627471
406.358,7.403365707524699
409.117,-19.95901275560982
411.874,-30.267976778467073
414.629,-49.711167347385526
417.382,-23.999861945280827
420.133,19.4405436191405
422.882,91.89909431317665
425.629,148.52211760020919
428.374,200.88463889108152
431.117,263.8951396401112
433.858,345.4146011553853
436.597,377.3993579328662
439.334,391.52014146668444
442.069,441.59064786897034
444.802,425.138962632519
447.533,412.21708063156484
450.262,425.68661659874397
452.989,413.5521346496771
455.714,426.53257304565204
458.438,477.15647848010076
461.159,471.28581179365574
463.878,429.4968965463486
466.595,395.3661294945723
469.31,357.89854821088875
472.024,369.9563987038391
474.735,377.4019887520335
477.444,362.43101742871704
480.152,369.7154284358544
482.857,395.5462634382202
485.561,412.07175349273393
488.262,405.82112476349175
490.962,431.0379280463412
493.659,443.4419397220154
496.355,490.7053484235603
499.048,539.3098940847103
501.74,557.9278165120695
504.43,567.3266134811156
507.118,616.7023702607644
509.804,679.1559462807868
512.488,763.1691617992246
515.17,859.7476512364765
517.85,952.373240318911
520.528,1038.5277517939053
523.204,1078.3120492401217
525.878,1069.6365094492044
528.551,1060.6019709979478
531.221,1074.642587582383
533.89,1072.3829670661348
536.556,1079.733405766889
539.221,1079.8422655999939
541.883,1049.9054940792084
544.544,1064.6428109841177
547.203,1061.0119902656375
549.86,1051.1612371896094
552.515,1078.7148988137264
555.168,1109.7258411311254
557.819,1153.3897309758877
560.469,1225.283127452355
563.116,1245.458716221588
565.761,1281.8262580735363
568.405,1324.628775594434
571.047,1337.4901684056372
573.687,1347.5580664976897
576.324,1346.8371597548712
578.96,1360.7130036702215
581.594,1366.2853488700875
584.227,1370.7490896862955
586.857,1325.4894984426082
589.485,1261.177459741175
592.112,1188.0551809394706
594.737,1178.6504740557975
597.359,1133.8719900557467
599.98,1137.1044531386447
602.599,1158.1134188335282
605.216,1159.9976511427385
607.831,1155.331975875988
610.445,1185.4529911272834
613.056,1221.0304920375647
615.666,1282.067466985914
618.274,1389.0905699712416
620.88,1461.4834501368232
623.484,1535.1057955805654
626.086,1607.9599962128705
628.686,1718.0006637573679
631.284,1803.5155803230832
633.881,1883.3637898337488
636.476,1884.6422608856847
639.068,1801.5906448437859
641.659,1666.3531767946429
644.249,1469.264386023478
646.836,1263.0395683958363
649.421,1051.727163501183
652.005,826.4230365584012
654.587,644.0799984165201
657.166,505.2220874602117
659.745,383.37313722956696
662.321,287.34248689701326
664.895,210.2249774585216
667.468,151.63904316290837
670.038,147.34575532209283
672.607,131.86786612134983
675.174,96.44218576290359
677.739,66.30529294284588
680.303,36.16972151853315
682.864,24.319194795033127
685.424,40.751485626076374
687.982,73.6546137717637
690.538,61.45447450981737
693.092,58.76723341769048
695.645,33.30410210705031
698.195,-1.3667431845888132
700.744,-22.105862049861116
703.291,-0.15491364140007136
705.836,4.482408019815011
708.38,19.088007640030355
710.921,49.80083175550317
713.461,39.997836115253904
715.999,55.00828831244644
718.535,98.25664184433845
721.069,78.54826731508501
723.602,61.59327887665222
726.133,40.72083686018959
728.662,-4.168454354489313
731.189,6.445089625800847
733.714,42.55739298186563
736.238,30.640636599223853
738.759,36.35756069949093
741.279,-8.771851575851088
743.798,-57.037023915012014
746.314,-55.06057944260556
748.829,-37.32213332634501
751.342,-34.87256783852672
753.853,3.094543733298906
756.362,-2.6142049840182153
758.869,-26.096818151963816
761.375,-10.117805280229277
763.879,0.5108635943588524
766.381,-18.16548298536418
768.882,9.184350733698466
771.38,4.653615393126984
773.877,-16.235719608321688
776.372,29.60988823016487
778.866,69.9507898087245
781.357,84.30937972408174
783.847,105.87485537633756
786.335,92.4555951233765
788.821,89.8124888162256
791.306,134.6589350010754
793.789,200.85131431178024
796.27,256.15089143378646
798.749,323.2238123061511
801.227,404.545863228328
803.702,480.68818234790297
806.176,522.7458282911889
808.649,557.5282535557208
811.119,535.2735874265604
813.588,507.5057760354548
816.055,476.034579562855
818.521,438.38414086850435
820.984,358.1263160267886
823.446,308.1187667668446
825.906,277.3144814840989
828.365,260.5712962518105
830.821,251.65189202308466
833.276,218.7476013566984
835.729,152.62126276197614
838.181,135.41674171032855
840.631,141.51607069441252
843.079,136.72992262062553
845.525,143.8214175349458
847.97,143.31564363448229
850.412,150.97584494569924
852.854,156.42246614549117
855.293,143.41886404893307
857.731,110.68082862083611
860.167,80.78134208253846
862.601,50.96009992346012
865.034,48.1235081031291
867.465,44.368489777022205
869.894,22.553911070027425
872.321,41.44343542132992
874.747,46.372187453116794
877.171,47.72294064879998
879.594,51.92611455505221
882.014,52.26929579336297
884.433,44.040092404929055
886.851,77.33565486220778
889.266,82.8245780328482
891.68,130.08023171505283
894.092,129.10456736341257
896.503,101.80430576712774
898.912,101.752839013943
901.319,89.76165626360466
903.724,86.78510285464608
906.128,122.20609179212806
908.53,153.07419618775225
910.931,174.7723131285527
913.329,192.34999421225052
915.726,182.33296655880372
918.122,153.342177631474
920.516,119.47474481979657
922.908,111.97061930826499
925.298,137.59353565930564
927.687,152.96434234862977
930.074,168.75147515773142
932.459,167.67095437589933
934.843,185.5816200974782
937.225,191.24703418578542
939.605,193.52595366560695
941.984,152.03899459187824
944.361,116.78767687075151
946.736,106.01156431875665
949.11,119.23588091244233
951.482,133.93817465706502
953.853,136.21498145527835
956.222,107.44848897583233
958.589,107.06843861750644
960.954,122.40926556827799
963.318,136.80533410259204
965.68,164.01950621195715
968.041,172.1955197593586
970.4,139.76274758605132
972.757,111.62667090406057
975.113,71.54982887915799
977.467,52.38991107097718
979.819,30.623564158843237
982.17,3.0606748580789827
984.519,3.606271883934369
986.866,12.736716753930068
989.212,41.78541873372137
991.556,99.7999787473957
993.899,119.39933464512683
996.24,122.34519218511832
998.579,117.63726553935112
1000.92,71.3228035136242
1003.25,60.78230624378125
1005.59,38.396194272891535
1007.92,61.97338239033593
1010.25,99.51318680422537
1012.58,107.0148513614356
1014.91,104.76326424383842
1017.24,103.85276990262491
1019.56,69.8538381354872
1021.88,90.71782840189803
1024.2,95.72937318600475
1026.52,102.41114231190681
1028.84,108.80955963987981
1031.16,106.06623404832044
1033.48,107.84653327283036
1035.79,134.05387203101395
1038.1,153.4487620520431
1040.41,175.2678621062189
1042.72,192.08112327262734
1045.03,173.98226754013035
1047.33,159.06498069406985
1049.64,184.13720044106435
1051.94,184.76873786713622
1054.24,179.67223222917187
1056.54,179.79839146066752
1058.84,136.62170886795616
1061.13,133.18808458833337
1063.43,165.87673276247415
1065.72,187.49542204018576
1068.01,190.09000180044063
1070.3,192.75392837141817
1072.59,186.7235055362571
1074.87,192.99693456262207
1077.16,177.5247928036913
1079.44,205.2576551562879
1081.72,221.24133456662776
1084.0,266.6645034884525
1086.28,333.52536296020617
1088.56,405.25069263459886
1090.84,492.5529960462595
1093.11,575.7638363555834
1095.38,613.5957435211496
1097.65,598.8088833768941
1099.92,544.449155280719
1102.19,464.4196230964303
1104.46,410.43289855662215
1106.72,372.5825722446168
1108.98,379.58131124306897
1111.24,401.18943297304554
1113.5,431.1672885569228
1115.76,449.79907475270284
1118.02,471.27378874548185
1120.28,504.11380198653455
1122.53,536.7462911752598
1124.78,544.7413359077887
1127.03,506.38334965892705
1129.28,443.24251076410496
1131.53,408.07952673465184
1133.77,356.8932557159412
1136.02,323.254042231242
1138.26,309.0656243541425
1140.5,328.13656469050215
1142.74,354.18025278898585
1144.98,437.5768123135065
1147.22,478.0397701204272
1149.45,479.1874872405306
1151.69,434.20982795621194
1153.92,415.3919717358269
1156.15,343.8763204061254
1158.38,346.04345294373525
1160.61,317.1787945523631
1162.83,282.8059524066621
1165.06,239.4010037770563
1167.28,220.15440320218045
1169.5,147.0662229946622
1171.72,135.374727080228
1173.94,124.4611353130083
1176.16,117.04010207655188
1178.37,81.87400440864894
1180.58,57.82056345949127
1182.8,14.689989759350055
1185.01,-22.7550143708836
1187.22,-17.227823837736196
1189.42,1.463064016337512
1191.63,-11.157399231208956
1193.84,16.816804032395112
1196.04,37.14894615048706
1198.24,5.650027413700855
1200.44,-8.440272848916266
1202.64,-5.1678832740280995
1204.84,-9.721484026220196
1207.03,31.091301113864347
1209.23,76.98675972786077
1211.42,80.77651611212309
1213.61,103.2722899634964
1215.8,110.00017887461217
1217.99,96.6292265434754
1220.18,98.35237193542753
1222.36,102.36263654034906
1224.55,86.75788305843616
1226.73,80.44557408596893
1228.91,101.57134032490194
1231.09,127.66183450673134
1233.27,138.05329960207882
1235.44,148.2725179826616
1237.62,150.1320462975366
1239.79,171.7302122541157
1241.96,252.59396854203874
1244.13,336.91698485228494
1246.3,378.0358351343855
1248.47,463.81094675838585
1250.64,577.6742163434865
1252.8,717.8671017771478
1254.96,878.6787142342075
1257.13,1043.1124816245588
1259.29,1205.3623358503642
1261.44,1374.7650905394464
1263.6,1515.7051997310753
1265.76,1527.6147546569832
1267.91,1453.0687186176299
1270.06,1318.9753999536986
1272.22,1167.2907345414162
1274.37,1015.2087587640524
1276.51,891.30446343581
1278.66,775.343314392383
1280.81,697.9002968910315
1282.95,646.6456266773246
1285.09,597.0114134328335
1287.23,558.6202289847249
1289.37,526.189865991545
1291.51,522.3428585337674
1293.65,517.6540979424269
1295.78,538.793686723006
1297.92,571.0031258126439
1300.05,592.0953113611531
1302.18,607.8831029406083
1304.31,642.4174155644641
1306.44,644.6538831352366
1308.57,696.8814266540878
1310.69,758.8651081446958
1312.82,821.2270798152147
1314.94,880.7799141726211
1317.06,940.383743660873
1319.18,934.4700669657318
1321.3,921.9465077005477
1323.41,894.8634778539449
1325.53,856.7475079041781
1327.64,834.1726721715763
1329.75,778.760585599568
1331.87,705.8470672023655
1333.98,612.3868987507465
1336.08,551.4300120292685
1338.19,482.3595808553821
1340.3,436.89201786044555
1342.4,367.7912569850321
1344.5,308.5830359742288
1346.6,256.79298839675016
1348.7,218.80378328309916
1350.8,178.66464571610913
1352.9,174.99611551672683
1354.99,154.08528212027636
1357.09,118.17149564319539
1359.18,100.97017318786925
1361.27,89.81565276650485
1363.36,63.56595198691025
1365.45,83.12657435731558
1367.54,76.40288701977192
1369.62,80.72868895973465
1371.7,113.62811254899066
1373.79,150.8632393742978
1375.87,161.33885892316357
1377.95,196.57865584106116
1380.03,165.48711147434892
1382.1,166.1590244608194
1384.18,165.1652217964256
1386.25,144.2668413305862
1388.33,97.98675711863166
1390.4,83.08576667901548
1392.47,18.562587774334816
1394.54,3.796712335211623
1396.6,-6.4515967586851275
1398.67,11.81583591904564
1400.74,7.216049877002433
1402.8,22.080185237131218
1404.86,14.072530043812321
1406.92,17.85718739231561
1408.98,33.00284006457014
1411.04,51.22084996786066
1413.09,59.60335941478729
1415.15,89.76615430798279
1417.2,127.99152732484049
1419.25,195.56161729271253
1421.3,286.37746284982813
1423.35,316.10186563001844
1425.4,327.58796773315794
1427.45,302.1649720527446
1429.49,283.1619578415764
1431.54,256.812648658379
1433.58,239.58875174300147
1435.62,206.29520215351363
1437.66,168.97493071282747
1439.7,121.33744147912353
1441.74,106.13977016866352
1443.77,103.28172829288519
1445.81,118.09162348597397
1447.84,158.99293221338803
1449.87,184.07573438514805
1451.9,200.71576701674167
1453.93,204.95538265193045
1455.96,235.50355540461032
1457.98,266.3549346197169
1460.01,316.31366043888806
1462.03,409.85051269946234
1464.05,517.3410122144276
1466.07,669.6844744333259
1468.09,878.7325869126817
1470.11,1097.4322725007187
1472.13,1347.0161715696934
1474.14,1633.3836004387033
1476.16,1845.148176463169
1478.17,1996.6378240766949
1480.18,2030.6566855948354
1482.19,1970.4851272569504
1484.2,1810.8797452680683
1486.21,1616.3114670788364
1488.21,1340.1084145702398
1490.22,1073.6463862859407
1492.22,812.3964825217572
1494.22,615.2108256532399
1496.22,461.70351855848526
1498.22,363.6792220885711
1500.22,249.1807801570385
1502.22,149.2035114960438
1504.21,70.88569188869906
1506.21,27.651417353797115
1508.2,25.591562568633435
1510.19,16.511405958493697
1512.18,-2.497935690046461
1514.17,-20.297596425345546
1516.16,-23.510478898345127
1518.14,-5.140296191158313
1520.13,31.618908029680824
1522.11,32.28752258193299
1524.09,19.052750362778625
1526.07,7.6257518487022935
1528.05,-18.044068547481857
1530.03,-27.91191897674139
1532.01,4.829047155584703
1533.98,5.890587083084711
1535.96,13.889364428729323
1537.93,14.727897336277692
1539.9,26.927887554066047
1541.87,35.15402570927267
1543.84,56.30922515360885
1545.81,49.10604628520014
1547.78,51.209549441888385
1549.74,51.28490969930567
1551.7,71.80693643084783
1553.67,127.72673572479357
1555.63,166.75742042047136
1557.59,202.08839157299712
1559.55,235.09961991801038
1561.5,238.31402257450918
1563.46,244.68317308101268
1565.41,251.87301143172158
1567.37,221.31145887458456
1569.32,188.75984223317323
1571.27,171.59860394284783
1573.22,141.25586922977436
1575.17,140.63601328995378
1577.11,92.64346656348152
1579.06,82.08747238976639
1581.0,88.96779704369851
1582.95,103.52234453372398
1584.89,121.94143806658735
1586.83,124.41543484540671
1588.77,98.61091229631893
1590.7,78.14685429512747
1592.64,66.07083739395466
1594.58,44.31140752407214
1596.51,33.08283765111696
1598.44,42.55179019220509
