Raman Shift,Processed Intensity
331.095,44.71318988000121
333.909,34.54412695676319
336.721,49.449510609051686
339.531,71.09601197445045
342.339,55.67412065618964
345.145,64.70767300357284
347.949,46.57766610668841
350.751,31.855595600652123
353.55,60.01774585079784
356.348,69.49281347120404
359.144,50.51905465274922
361.937,83.14428963401815
364.729,94.94019288649633
367.518,125.71658329976799
370.306,193.0928572238613
373.091,232.2122786544537
375.874,267.78960275141526
378.656,311.3015565001997
381.435,289.6535098494355
384.212,235.32233732470058
386.988,136.49927964229755
389.761,71.85185294208031
392.532,39.761948496468904
395.301,32.659170514702055
398.068,48.7827453756604
400.833,51.94343086070285
403.596,21.856853957924613
406.358,20.572086761659648
409.117,-17.004539532781564
411.874,-43.871334920085246
414.629,-38.45505357308457
417.382,-45.610889158695045
420.133,-32.62247522346024
422.882,22.940967152332178
425.629,63.27223827348553
428.374,105.32614597348856
431.117,141.2480655330255
433.858,150.27869007467598
436.597,172.13497143381073
439.334,179.01010864853515
442.069,151.14496502105885
444.802,87.9709137505015
447.533,73.2526835656995
450.262,45.850251977071366
452.989,86.33788138561567
455.714,109.57553614429162
458.438,130.47078049115362
461.159,143.74067648250139
463.878,184.67368192601862
466.595,195.36773879010934
469.31,177.3493139941902
472.024,158.66863067516215
474.735,114.18537564436929
477.444,99.42583541597696
480.152,90.58288937820726
482.857,98.8969553455363
485.561,79.27503034897518
488.262,113.38592190254576
490.962,134.37452688881285
493.659,156.81421369831287
496.355,132.13539484517787
499.048,135.7207662494293
501.74,129.19102270974645
504.43,134.69057337623235
507.118,175.17325722318446
509.804,199.8309156647083
512.488,218.61720326557952
515.17,264.0571127378148
517.85,307.0088808896239
520.528,296.66398981245084
523.204,311.45192997278036
525.878,288.99258235155594
528.551,268.38193391693994
531.221,245.57303119230164
533.89,254.23312430040232
536.556,260.79128719805203
539.221,285.8669902917154
541.883,286.1748635293088
544.544,332.3342213967685
547.203,369.01192124793806
549.86,398.2080787773207
552.515,433.3989263499657
555.168,399.1082427599317
557.819,360.38354489350786
560.469,379.89132701148856
563.116,396.91706193620666
565.761,425.8890117623737
568.405,412.94965761552794
571.047,367.14617702953547
573.687,337.5256832288519
576.324,291.5161786965032
578.96,259.4027468372942
581.594,252.42279126007497
584.227,213.9565131552381
586.857,233.47929343412534
589.485,241.37121772556748
592.112,206.48850613434115
594.737,202.73494299961612
597.359,183.72854474865835
599.98,152.51584679814823
602.599,154.8576190269232
605.216,126.3717241058689
607.831,108.24740439923744
610.445,121.76909267549718
613.056,106.98307996103586
615.666,113.69751672720895
618.274,148.48241407737896
620.88,148.05059731490564
623.484,135.25770713018574
626.086,121.29267697816704
628.686,97.86821045586248
631.284,145.88744915605048
633.881,181.49159290193802
636.476,196.72656760086102
639.068,192.2573121456121
641.659,187.36777960147356
644.249,177.00855744086994
646.836,166.32067825421245
649.421,138.87371617503868
652.005,113.33245473371016
654.587,103.88545947302373
657.166,73.57841246857515
659.745,47.21887542056447
662.321,9.662005126540407
664.895,23.95341181129197
667.468,33.42439840911675
670.038,55.882438977658694
672.607,52.75404054719502
675.174,33.275227400034055
677.739,1.6344063023034323
680.303,4.353326973823187
682.864,-20.570052680107437
685.424,-35.042510687065715
687.982,-16.066028477232976
690.538,-5.5949272903003475
693.092,-1.3930085528095333
695.645,50.72835161985358
698.195,47.95782161509851
700.744,38.150780988193674
703.291,42.87693950828543
705.836,50.182241918696946
708.38,60.77934412580589
710.921,73.04761319744102
713.461,71.98550831366538
715.999,56.68677124136639
718.535,36.245188237417096
721.069,59.992685285169955
723.602,46.118375711909266
726.133,36.859036377719804
728.662,28.21339338817461
731.189,5.275455426057306
733.714,15.567847083093966
736.238,56.851332667868064
738.759,47.64862572802576
741.279,71.67296047724176
743.798,45.16142512694569
746.314,18.494009503765483
748.829,25.955509809825344
751.342,12.878385763998267
753.853,15.357046314588843
756.362,31.057373447260943
758.869,9.692912659627382
761.375,7.310587245361148
763.879,21.147841149735086
766.381,26.775496110867607
768.882,33.002513562883905
771.38,67.97123272954923
773.877,50.01451347980719
776.372,42.036688707125904
778.866,54.704040518372494
781.357,81.96860975601112
783.847,80.73486266316513
786.335,89.19302421533416
788.821,70.53336383307487
791.306,57.56524299943817
793.789,57.33616287740642
796.27,97.46509764161647
798.749,145.0948754291287
801.227,153.8445592902026
803.702,134.52373290097535
806.176,112.37059579994934
808.649,55.24243957685758
811.119,54.90136215677012
813.588,84.7761725603898
816.055,110.77191471196147
818.521,85.46034362814044
820.984,82.98468732113884
823.446,49.583456320927326
825.906,30.399967483150704
828.365,40.72043922561443
830.821,68.64065819333996
833.276,65.4469316379002
835.729,75.18751598723838
838.181,58.48214065358002
840.631,35.8077223175535
843.079,38.68884111706416
845.525,50.221550169507736
847.97,55.597185093982716
850.412,72.91188781921483
852.854,49.35708277243907
855.293,30.267095925418516
857.731,23.452488126176377
860.167,31.43815033549754
862.601,51.177589339613405
865.034,63.862451558135035
867.465,31.82728494721755
869.894,10.21620566463298
872.321,12.030517115791099
874.747,30.223948047376552
877.171,54.32170016479563
879.594,25.03949574962644
882.014,6.474053848496396
884.433,-18.658814490423765
886.851,-5.2623014571174735
889.266,5.23663561391686
891.68,27.125367537232023
894.092,45.786543179702676
896.503,82.79332507808454
898.912,88.33795838990682
901.319,83.32700651102823
903.724,69.38134859795241
906.128,29.169510423485235
908.53,43.36004285143167
910.931,52.57390031129694
913.329,67.2892002253725
915.726,52.03169672153126
918.122,54.565254346027814
920.516,46.89184558582019
922.908,74.58488172422608
925.298,70.88444845848448
927.687,74.69730342208072
930.074,82.31115942135648
932.459,85.77563433878436
934.843,104.28320103624242
937.225,132.88347059162152
939.605,110.00699934494901
941.984,102.46528642071166
944.361,94.7841045835014
946.736,54.06064061747975
949.11,13.773016658221195
951.482,20.39933533407907
953.853,-1.677560806730071
956.222,8.734670130954555
958.589,14.971200244897545
960.954,-4.29949462300533
963.318,-13.170874757355705
965.68,28.882614036300538
968.041,36.33887154679883
970.4,32.6757586045062
972.757,10.704426814187173
975.113,-5.240208854984985
977.467,-19.29947366989836
979.819,12.718588149728248
982.17,14.958257979945301
984.519,13.373280513459804
986.866,17.584002756188283
989.212,28.35356064286293
991.556,20.54025747183141
993.899,52.907085196998196
996.24,48.883626672148466
998.579,44.94700551431606
1000.92,37.621883586204376
1003.25,36.432839430983904
1005.59,30.666270516611576
1007.92,50.89420024205151
1010.25,45.307608753017576
1012.58,43.668811376760914
1014.91,17.120979914001964
1017.24,7.473854407054887
1019.56,-2.2248308063446984
1021.88,5.2630330795100235
1024.2,0.6516436191750472
1026.52,23.417001161222515
1028.84,29.65405201462886
1031.16,61.83859358875793
1033.48,77.20822951490732
1035.79,109.1909438154812
1038.1,95.35748459697197
1040.41,96.84993821913349
1042.72,90.81030346415378
1045.03,100.2852561820223
1047.33,114.51186631685141
1049.64,121.2985530284368
1051.94,111.97746838524881
1054.24,133.2616429621794
1056.54,145.4354647716309
1058.84,134.68801533745204
1061.13,144.39878672126747
1063.43,129.3757795011793
1065.72,137.99836265523777
1068.01,146.93156201632996
1070.3,139.0784439651743
1072.59,138.0563086471193
1074.87,151.4347879508448
1077.16,173.45013396326294
1079.44,211.95760266250272
1081.72,224.57431380137905
1084.0,216.86972983848295
1086.28,252.88946820259707
1088.56,326.8219706999764
1090.84,429.18898244543107
1093.11,505.84555460293814
1095.38,535.5514756976802
1097.65,483.73317911856816
1099.92,409.72184109695877
1102.19,349.99147868536465
1104.46,312.8732382123585
1106.72,268.2220646898545
1108.98,255.22622836325263
1111.24,251.45494649966986
1113.5,266.6679099380874
1115.76,330.86290487757446
1118.02,390.75200609409785
1120.28,411.666341585885
1122.53,433.12752388546323
1124.78,389.5619385145519
1127.03,313.2055086294349
1129.28,243.15131680918603
1131.53,178.0162744629481
1133.77,136.94112457053484
1136.02,146.82853966113612
1138.26,143.91455312535004
1140.5,157.91141909864382
1142.74,147.3885675829133
1144.98,152.15355956803614
1147.22,173.72828024866817
1149.45,198.68227509818007
1151.69,196.87084784735976
1153.92,205.72077751073653
1156.15,190.89698779385913
1158.38,153.49302602438456
1160.61,100.8405897022144
1162.83,59.12857685915969
1165.06,22.64118403765133
1167.28,44.138861412315464
1169.5,73.81069648296875
1171.72,75.36965718928036
1173.94,69.05259693019866
1176.16,56.38216434527999
1178.37,58.11918928649334
1180.58,49.73887831383922
1182.8,35.71653400048831
1185.01,29.00375042840369
1187.22,27.314132493479292
1189.42,4.028062829726878
1191.63,-7.616816980815429
1193.84,-22.62083948389386
1196.04,-32.22230591670154
1198.24,2.435851754787791
1200.44,34.163215851640416
1202.64,42.34092917184239
1204.84,30.87407476582871
1207.03,19.477389045338214
1209.23,-3.0390251077303674
1211.42,-10.198270946745879
1213.61,-14.237611418149982
1215.8,-12.775137322833189
1217.99,-13.571674655196148
1220.18,2.1834970101201634
1222.36,18.063115244424353
1224.55,18.78288023073992
1226.73,26.43954331269947
1228.91,32.701378305433536
1231.09,33.998654686141435
1233.27,40.47601554656944
1235.44,26.278188878821084
1237.62,30.502365527838265
1239.79,45.579148572451686
1241.96,64.65350270643125
1244.13,81.06094171477093
1246.3,79.04181118807037
1248.47,77.5984283797684
1250.64,64.06650777766572
1252.8,65.49611048497377
1254.96,83.46116502993095
1257.13,121.86898817542101
1259.29,129.1983771571622
1261.44,152.21389239809446
1263.6,126.25156879418637
1265.76,121.40938890501229
1267.91,118.83299423956373
1270.06,157.09663463729862
1272.22,184.48887955394866
1274.37,181.7745198235241
1276.51,151.2898027536396
1278.66,119.6090957922745
1280.81,74.30678828976784
1282.95,83.19538373700539
1285.09,108.03978247979626
1287.23,112.60489776658164
1289.37,110.84612893899907
1291.51,97.57602509863568
1293.65,94.17856782140666
1295.78,108.22821577669356
1297.92,117.10894934648036
1300.05,120.1571247683039
1302.18,111.8519473258234
1304.31,114.86308739652736
1306.44,110.00305840420856
1308.57,118.79864239047674
1310.69,130.01469653865456
1312.82,115.55891207862601
1314.94,113.10085890596997
1317.06,109.40531591538343
1319.18,125.04655371504782
1321.3,148.36071257909634
1323.41,165.06484706675383
1325.53,173.59025635575222
1327.64,196.46343362337439
1329.75,182.5917773322435
1331.87,212.40644537326602
1333.98,213.14806635142713
1336.08,198.2476889668235
1338.19,189.85058853855662
1340.3,183.8638830524376
1342.4,163.14700635153963
1344.5,150.17837180295123
1346.6,135.43632167880128
1348.7,127.49436225158843
1350.8,132.30687507997095
1352.9,110.82816162790573
1354.99,117.20291645520638
1357.09,102.95670040811387
1359.18,80.42450904794941
1361.27,90.13172203215595
1363.36,125.12743344772139
1365.45,142.50825833507633
1367.54,170.27547254532897
1369.62,170.52548593082997
1371.7,160.9736488690735
1373.79,170.1447254532643
1375.87,212.0395571590734
1377.95,240.13505984472908
1380.03,229.28898265587577
1382.1,209.45419073994685
1384.18,172.53580510340362
1386.25,131.3911996118254
1388.33,126.35380751381354
1390.4,117.85216606013432
1392.47,116.55277064666029
1394.54,116.12197657636875
1396.6,102.41647224990334
1398.67,65.53089521328047
1400.74,44.369257729408446
1402.8,61.40684854008168
1404.86,93.4045155803633
1406.92,97.78961982061196
1408.98,96.60841767994043
1411.04,62.430824392050454
1413.09,46.11232022821582
1415.15,49.31776148216909
1417.2,60.90233431213187
1419.25,47.673460963796515
1421.3,49.533658374259176
1423.35,34.05196820452352
1425.4,68.74967258629272
1427.45,61.05267653541978
1429.49,47.00579854785656
1431.54,15.320394528931729
1433.58,-5.816113515459392
1435.62,-14.835470692428999
1437.66,18.259036293465215
1439.7,43.03544212320048
1441.74,66.91882136095478
1443.77,102.33415167622115
1445.81,115.08727230401882
1447.84,116.50774726701297
1449.87,109.25839526430013
1451.9,99.38291479828604
1453.93,86.25827120632584
1455.96,101.45184559712607
1457.98,105.48334569190979
1460.01,102.3010023798663
1462.03,119.94824246407984
1464.05,121.70655188364367
1466.07,132.19071988816017
1468.09,152.72979749795286
1470.11,177.74805596427814
1472.13,194.81261189620682
1474.14,224.204861911315
1476.16,256.30144109589514
1478.17,271.85994336993167
1480.18,287.8284513758865
1482.19,290.2026854151079
1484.2,262.93077143185315
1486.21,223.77038994969348
1488.21,200.81259167458825
1490.22,140.38656547890787
1492.22,96.39297781402934
1494.22,57.16112164674223
1496.22,36.972732062321256
1498.22,14.776278058076514
1500.22,24.377444813094826
1502.22,0.6772350055994139
1504.21,2.291022511264373
1506.21,11.310463244384437
1508.2,18.68445368656262
1510.19,7.647708693682034
1512.18,-5.041136887598441
1514.17,-30.57571231763518
1516.16,-27.768571252063794
1518.14,-20.146423972486446
1520.13,-7.092991948601139
1522.11,5.579563207776573
1524.09,12.249684864053961
1526.07,21.29594195423965
1528.05,20.95416861393778
1530.03,16.555556196297402
1532.01,28.098078621294462
1533.98,51.96077486787772
1535.96,55.95136479944517
1537.93,65.92529356074692
1539.9,60.547633117643045
1541.87,47.388317130195446
1543.84,46.01737582576152
1545.81,41.57636134827544
1547.78,37.25453501229731
1549.74,72.47934027134716
1551.7,89.34497092433685
1553.67,105.32665360771011
1555.63,104.99493028758548
1557.59,85.44422646617932
1559.55,76.38808605489908
1561.5,108.87345386648485
1563.46,130.8044819166712
1565.41,133.94252620204907
1567.37,115.85852443029967
1569.32,82.07584994090757
1571.27,64.7369751496833
1573.22,66.22251594566683
1575.17,68.48456180232097
1577.11,46.903815412531
1579.06,36.480065656943
1581.0,28.260755810397086
1582.95,42.91240889121332
1584.89,51.149195867626304
1586.83,51.351980054689875
1588.77,21.901647225473198
1590.7,-2.82089761108341
1592.64,4.1366951391205475
1594.58,13.893454528442817
1596.51,24.83032365449094
1598.44,30.947299422814694
