Raman Shift,Processed Intensity
331.095,108.84457474072224
333.909,-0.3659919146903121
336.721,-16.43190518267693
339.531,18.98017915182845
342.339,43.798865162588754
345.145,59.548026004673375
347.949,50.32300361324042
350.751,5.742998878519302
353.55,-24.001300083970364
356.348,-13.29056585366925
359.144,11.256510850955692
361.937,27.06894220053391
364.729,54.14725817817225
367.518,56.20636912188138
370.306,90.58033302891499
373.091,165.79378952677143
375.874,250.70482241562468
378.656,306.8382984012251
381.435,325.71920582781195
384.212,262.9202791252933
386.988,172.68105182787303
389.761,80.43167149743613
392.532,12.650047980268937
395.301,-17.138141193357114
398.068,-25.64515969533113
400.833,-27.868826047747916
403.596,-33.949652875546235
406.358,-27.88513176073002
409.117,-9.76783062542745
411.874,-5.833018645039829
414.629,-4.839627518002089
417.382,8.120214815885447
420.133,0.5259355658713503
422.882,9.952315596941844
425.629,43.3551935204614
428.374,102.1666936486481
431.117,125.77140733957913
433.858,198.0778124374424
436.597,233.70874033182326
439.334,200.52517635033882
442.069,141.62625062745292
444.802,110.96827659233804
447.533,66.50759898055094
450.262,122.29582279808028
452.989,175.00361371397003
455.714,182.49211750056384
458.438,153.67009375947418
461.159,125.20819250469731
463.878,92.82465931714614
466.595,67.09485002299107
469.31,50.308364419628106
472.024,12.849989525447654
474.735,29.294928543893548
477.444,36.884982208479414
480.152,67.5285410248739
482.857,76.84819958819799
485.561,81.65694608848253
488.262,69.91054229231622
490.962,96.75514161972842
493.659,116.05109769726869
496.355,161.13486814917997
499.048,175.72377553142542
501.74,160.05886350381797
504.43,150.04775300214396
507.118,136.21702221981195
509.804,150.95030087521354
512.488,201.77398352670798
515.17,258.8334190780756
517.85,282.89290980778696
520.528,283.81190087446157
523.204,274.2592650604174
525.878,256.57044465808394
528.551,253.27126002307932
531.221,263.74457527015056
533.89,275.9445830167274
536.556,280.3968034121972
539.221,293.7218926909927
541.883,313.159451725679
544.544,341.5204060085998
547.203,354.13938563352167
549.86,341.6842481344124
552.515,319.87036322898257
555.168,311.31775470508046
557.819,332.12252802137164
560.469,377.9521074318336
563.116,387.42618739595764
565.761,360.1643506556243
568.405,328.45273393102525
571.047,306.6725983784909
573.687,278.25270957212524
576.324,276.0026698663928
578.96,219.87482218727655
581.594,173.0594871567614
584.227,121.31829545542678
586.857,115.88894875645929
589.485,105.4375997072907
592.112,155.8207557207511
594.737,155.4662303852715
597.359,145.8017139226995
599.98,91.06429602707567
602.599,81.3957029891244
605.216,46.604201487406954
607.831,73.6884071413815
610.445,64.55156925494111
613.056,84.43014601865707
615.666,90.84618923583776
618.274,99.98830047715091
620.88,118.66401580667389
623.484,137.8236190793782
626.086,134.5601457148
628.686,148.77605313737513
631.284,146.75465312153756
633.881,105.92202032728528
636.476,117.5612817881356
639.068,136.0507159228846
641.659,135.81613726165415
644.249,129.56899545765464
646.836,122.0682838227608
649.421,87.97768595832713
652.005,62.62748429076555
654.587,51.443135273790176
657.166,18.516701733517948
659.745,50.60685664214907
662.321,70.13888689164196
664.895,77.58565134282298
667.468,85.46758649354024
670.038,38.20985500396955
672.607,19.856637079054053
675.174,18.166374231906502
677.739,-3.7691774289855857
680.303,11.665536651110415
682.864,40.038450386973636
685.424,26.822267094466042
687.982,7.58494595274351
690.538,-16.010287724003774
693.092,-33.157313167198936
695.645,-20.573769777777215
698.195,-14.929619223631107
700.744,13.581431644787244
703.291,16.0038389989827
705.836,39.38212865386913
708.38,23.998993165407683
710.921,9.56576988062534
713.461,5.555776130490813
715.999,9.156692041837687
718.535,23.60389573023531
721.069,41.94237047909883
723.602,55.645754775935075
726.133,65.85443996763024
728.662,61.94700124907877
731.189,42.25448579465592
733.714,35.679462794470055
736.238,42.934121109648004
738.759,62.63550978477542
741.279,48.01982617937438
743.798,17.275751718428182
746.314,0.7349305000489039
748.829,-19.604218763525296
751.342,-22.933643185889196
753.853,8.078632498805291
756.362,1.2408873199269692
758.869,15.075797313878866
761.375,14.677576386655346
763.879,4.569117300757625
766.381,5.5115136144827375
768.882,18.456438764077348
771.38,24.450906098261612
773.877,40.73250510323214
776.372,41.82463762766383
778.866,57.01270648866739
781.357,75.391732649181
783.847,89.0092104905957
786.335,99.81748689490587
788.821,103.95947366020073
791.306,101.86388372567967
793.789,101.24522930142757
796.27,107.72286761723717
798.749,129.3448085762011
801.227,150.68295097972646
803.702,159.64260446684307
806.176,145.17677335826397
808.649,130.28615478616462
811.119,126.7334225382474
813.588,117.75751090179983
816.055,130.83551755537337
818.521,104.87317788903192
820.984,85.01438694365265
823.446,73.78405468355732
825.906,74.94524698342866
828.365,67.30870756760464
830.821,70.49476090175745
833.276,57.314262703615896
835.729,80.62574092988234
838.181,87.2401558107656
840.631,88.96851702737649
843.079,72.66950088912108
845.525,53.67801989204963
847.97,56.47188751529461
850.412,90.57657825560364
852.854,97.56522575711915
855.293,75.82052570306041
857.731,37.7728291836072
860.167,15.947759873293535
862.601,24.966212160790292
865.034,46.020539754877746
867.465,70.44598238565231
869.894,48.292092505745586
872.321,8.179876277247331
874.747,4.968458368160327
877.171,16.993175320275668
879.594,35.73224034562736
882.014,56.85436050390058
884.433,35.88540149889718
886.851,7.303623903561629
889.266,16.11110986119843
891.68,32.21471359621546
894.092,61.28320240104699
896.503,74.08058809927638
898.912,62.03755374685352
901.319,51.34668985712233
903.724,60.295825863942355
906.128,54.9823139657658
908.53,65.74159868399829
910.931,91.0519768975521
913.329,111.53459597263168
915.726,112.33440427347523
918.122,122.16776833976041
920.516,89.37009006401536
922.908,58.32437624997851
925.298,59.365998647153674
927.687,90.11602541394086
930.074,96.95740972361978
932.459,114.9397497989105
934.843,123.30309656557574
937.225,95.57318987746044
939.605,68.84717093200356
941.984,62.74596135241609
944.361,62.12854703176822
946.736,64.3776905485006
949.11,56.876119772413176
951.482,60.91128789922436
953.853,29.151562056559897
956.222,40.646221433750725
958.589,58.34926493544185
960.954,45.73845693044291
963.318,18.148658714868134
965.68,20.39087426098513
968.041,-14.057275462500456
970.4,5.23415992507239
972.757,11.02841072707838
975.113,10.041031430716657
977.467,3.225612166484325
979.819,-14.511937295640564
982.17,-20.31338825101352
984.519,-8.46343152916711
986.866,17.181749150394126
989.212,48.33733018570615
991.556,49.051747820693436
993.899,53.659075790537145
996.24,55.82664106228276
998.579,66.6502586230688
1000.92,75.41613293502064
1003.25,68.41037843776644
1005.59,36.0142543366635
1007.92,22.75178034340297
1010.25,3.4802095594757247
1012.58,-3.609974830844976
1014.91,6.719225161109762
1017.24,32.94379789680079
1019.56,71.15867347769313
1021.88,94.60153296982298
1024.2,114.79566856141082
1026.52,76.50236752999649
1028.84,93.29234382861955
1031.16,121.49812205295393
1033.48,159.35689759892284
1035.79,169.29625396316624
1038.1,194.31511813874772
1040.41,159.650430296575
1042.72,166.53905156205087
1045.03,168.93205274411298
1047.33,171.63757449284412
1049.64,155.3208303142244
1051.94,153.12315720392758
1054.24,142.1858281858872
1056.54,140.8405315175239
1058.84,132.79984989497507
1061.13,150.49059680117784
1063.43,159.9585814253794
1065.72,179.10670691598466
1068.01,195.79021149053733
1070.3,197.81667145047072
1072.59,175.9460041958548
1074.87,167.31904266871697
1077.16,170.98134789160417
1079.44,198.0736881728078
1081.72,231.97489926397657
1084.0,262.11141118439014
1086.28,311.6239179023876
1088.56,346.0340470167848
1090.84,442.76817229543826
1093.11,512.0621785947649
1095.38,572.6757505887833
1097.65,564.4161853076862
1099.92,526.8050618192656
1102.19,429.84014900557554
1104.46,378.9954085776917
1106.72,313.5067123761878
1108.98,319.8956549097036
1111.24,311.9695563697039
1113.5,343.39289421667036
1115.76,380.4968300043806
1118.02,421.7554028708578
1120.28,432.35696112456367
1122.53,428.4898795448669
1124.78,375.34256239680803
1127.03,331.10344644585894
1129.28,300.1514801631615
1131.53,275.7704124545778
1133.77,243.91070043735522
1136.02,213.47522674060542
1138.26,194.17644537720707
1140.5,174.584003806189
1142.74,170.26760309034785
1144.98,189.60652472053243
1147.22,214.59915743992974
1149.45,221.33919073501875
1151.69,222.44418927889978
1153.92,214.10321499367456
1156.15,205.457782446161
1158.38,195.88757614836845
1160.61,181.1533107151156
1162.83,152.444352926414
1165.06,113.14062950413495
1167.28,107.1935825077287
1169.5,98.26902949184432
1171.72,93.03288080680932
1173.94,82.19876166101767
1176.16,71.19468180236959
1178.37,55.82970519970718
1180.58,56.7701435337799
1182.8,35.96813064059029
1185.01,8.89972076426875
1187.22,8.279177286135791
1189.42,-14.702929022423177
1191.63,-2.6654303541645277
1193.84,0.4872524417619388
1196.04,-25.815839327746062
1198.24,-36.859818334227384
1200.44,-6.45347207324653
1202.64,-14.976881797481383
1204.84,0.809049624309182
1207.03,12.619735834508901
1209.23,-4.067385065139433
1211.42,11.891905137481217
1213.61,30.35621883007343
1215.8,22.231890501948328
1217.99,32.90154396337016
1220.18,25.033611945855682
1222.36,3.391855702477642
1224.55,-0.06940110612731587
1226.73,10.270913855213621
1228.91,31.748236782169442
1231.09,70.26950671922236
1233.27,68.9798293939325
1235.44,69.35771247977118
1237.62,33.500777049426915
1239.79,19.030516647164177
1241.96,35.997056361181194
1244.13,38.212483324540244
1246.3,39.86989150181034
1248.47,67.82909314237645
1250.64,32.85471118613623
1252.8,50.473319288240646
1254.96,80.78296279622191
1257.13,93.92934639378109
1259.29,119.67725983981586
1261.44,142.2200989455464
1263.6,138.56081512307037
1265.76,148.94048398154223
1267.91,135.26687392334452
1270.06,115.87634807359791
1272.22,117.62909954300403
1274.37,116.86152954782597
1276.51,140.1005302917763
1278.66,124.63491070505279
1280.81,87.32491742146635
1282.95,49.792708136526244
1285.09,26.70806306075906
1287.23,42.50266780160564
1289.37,79.70344386436454
1291.51,105.64683153408669
1293.65,112.14545370985638
1295.78,87.29763688192338
1297.92,57.48740829931421
1300.05,54.95592170886357
1302.18,67.18240690377843
1304.31,83.45559546266782
1306.44,92.6832417266778
1308.57,89.05878663377075
1310.69,97.34706917205062
1312.82,107.83670449975352
1314.94,116.24484301762209
1317.06,118.38383420318587
1319.18,115.25646187361326
1321.3,131.34165563903798
1323.41,163.1182975939878
1325.53,199.3509337707087
1327.64,214.61358083059008
1329.75,239.0516279936835
1331.87,226.14373896822303
1333.98,203.0351824515692
1336.08,181.06163882163128
1338.19,177.225387780667
1340.3,158.86197218955954
1342.4,145.54495714019185
1344.5,148.8954509325847
1346.6,127.43924509965677
1348.7,86.89252586055295
1350.8,94.9713950977839
1352.9,59.29662942960772
1354.99,42.869867853832375
1357.09,60.88313272496089
1359.18,76.90930311227862
1361.27,81.9973500627068
1363.36,130.38661948270465
1365.45,113.26873406778577
1367.54,119.78759047013546
1369.62,128.9441183709837
1371.7,149.786753838692
1373.79,165.8876269725547
1375.87,214.5806543085016
1377.95,229.81867884385474
1380.03,252.84013387160144
1382.1,247.2642782432406
1384.18,232.32928877449012
1386.25,196.27320979384626
1388.33,152.19109316733625
1390.4,112.65404308517554
1392.47,88.18540370556366
1394.54,62.02266108420008
1396.6,56.16505938951127
1398.67,55.08788378454096
1400.74,35.79007664217215
1402.8,18.46090137939791
1404.86,12.098987243971578
1406.92,20.8932788629661
1408.98,19.842082889818812
1411.04,27.419734933837617
1413.09,23.433742680187834
1415.15,3.167645280292618
1417.2,18.571491789858783
1419.25,17.976129130706568
1421.3,14.95034752287529
1423.35,23.443740202438903
1425.4,19.739086948850854
1427.45,14.166643873296607
1429.49,20.72319511180808
1431.54,7.7387235660005445
1433.58,5.781178299380599
1435.62,33.323146695556716
1437.66,55.26567025715735
1439.7,84.60491813483395
1441.74,86.28933684673643
1443.77,96.55299047418248
1445.81,93.10604371447198
1447.84,86.46810207655085
1449.87,124.15869493382365
1451.9,143.26871095791626
1453.93,140.55564307625286
1455.96,124.58645247724849
1457.98,91.35662309169948
1460.01,55.24254940750325
1462.03,93.76344809390866
1464.05,119.15279343528618
1466.07,169.07260990775126
1468.09,192.51824094626159
1470.11,201.53264152123506
1472.13,196.82543261993328
1474.14,214.01100334689113
1476.16,229.27518445291685
1478.17,258.28001710219087
1480.18,291.40185497269636
1482.19,275.3027996899805
1484.2,253.16880292758447
1486.21,215.0430066027102
1488.21,172.30194021474927
1490.22,112.27457532667108
1492.22,86.0042371892614
1494.22,49.820040174887936
1496.22,53.57498987793065
1498.22,54.69360902473818
1500.22,53.02908719310517
1502.22,24.14900196032295
1504.21,-2.902769472575983
1506.21,-30.55842437086244
1508.2,-32.53575141329179
1510.19,-13.361933650094898
1512.18,1.6740737895058828
1514.17,25.140591008371985
1516.16,17.653687825243196
1518.14,5.877182237598845
1520.13,-4.33450397262186
1522.11,-18.888727728538925
1524.09,2.307279157020048
1526.07,43.727360970085556
1528.05,45.13119659993208
1530.03,51.32620113472103
1532.01,48.88180840952759
1533.98,23.5580392686511
1535.96,46.448355542216405
1537.93,75.2653711656294
1539.9,64.05513472760344
1541.87,45.57807868485247
1543.84,41.35663524345523
1545.81,33.43713795450458
1547.78,53.29458045261276
1549.74,97.16594662299235
1551.7,114.19306457806078
1553.67,123.56546063404562
1555.63,136.52035614473334
1557.59,138.0569500495078
1559.55,109.50784427852909
1561.5,91.39618344362816
1563.46,78.10231833872331
1565.41,96.19713610690883
1567.37,105.10872374087148
1569.32,120.74141253569564
1571.27,111.76148920833316
1573.22,86.3590974932606
1575.17,86.48633021432374
1577.11,64.95246421372417
1579.06,30.566814328630926
1581.0,47.04349212969532
1582.95,51.95378370718663
1584.89,45.488051266651155
1586.83,44.884301391235795
1588.77,20.999610446868246
1590.7,27.97678808267665
1592.64,46.72056454093422
1594.58,47.349968443194484
1596.51,41.7221331478529
1598.44,31.67038882199381
