Raman Shift,Processed Intensity
331.095,77.55144920903149
333.909,42.43790061530035
336.721,13.780528498599779
339.531,-3.5873260529888285
342.339,14.072455462860034
345.145,11.521824336527516
347.949,8.284667639275085
350.751,1.6468159779865346
353.55,3.2750988689658698
356.348,18.074495349831068
359.144,42.75957030568452
361.937,60.283053652441595
364.729,83.93108618681026
367.518,112.84703686485409
370.306,155.3172248424612
373.091,220.4852129443875
375.874,289.92324399044264
378.656,320.1560580740593
381.435,309.18470984086525
384.212,218.62943338630294
386.988,135.44393572466697
389.761,72.96302359148967
392.532,53.378801674491115
395.301,40.550204177859996
398.068,39.76490733892297
400.833,21.83457527814153
403.596,25.999629658636422
406.358,21.643543155232692
409.117,-3.088105171730149
411.874,-46.57333640734305
414.629,-85.9518592654581
417.382,-67.98220551223721
420.133,-24.327442086100746
422.882,24.063868193874896
425.629,109.05288834175826
428.374,162.2152500612192
431.117,179.17437045031284
433.858,203.45857823007145
436.597,213.92966854452334
439.334,192.30669585595115
442.069,205.0231001734801
444.802,197.607642805468
447.533,158.16058020713263
450.262,122.78221878055501
452.989,139.2871839604063
455.714,184.10916549014837
458.438,207.77709126966192
461.159,208.43892025049536
463.878,170.71876866445427
466.595,120.90736958551315
469.31,88.58110392030676
472.024,72.36388854147708
474.735,56.68906442102116
477.444,59.22795143030544
480.152,62.55649837816645
482.857,103.9171769212644
485.561,112.17135769595052
488.262,102.18026423413448
490.962,99.66211735535171
493.659,100.14451765406056
496.355,113.82158989169602
499.048,141.07779405540623
501.74,163.91649832153735
504.43,185.2456948762624
507.118,197.44943002192122
509.804,230.81637714050203
512.488,250.92079060950527
515.17,277.71774543208767
517.85,305.11456734341346
520.528,349.7327391074705
523.204,370.52694967103344
525.878,347.30890522238997
528.551,300.69971167863423
531.221,273.98701907772374
533.89,257.3154993038629
536.556,295.7820857176466
539.221,344.150260405248
541.883,388.0881509514247
544.544,418.26377006966095
547.203,426.6783504704131
549.86,433.38063211029703
552.515,429.22876848890564
555.168,412.2712805646711
557.819,411.36610590882856
560.469,383.9901240498457
563.116,388.47725324643307
565.761,406.7327377367383
568.405,430.4236254637349
571.047,433.312102943466
573.687,413.8269253713961
576.324,359.25389434781073
578.96,310.1168117937041
581.594,250.5108148190402
584.227,220.72142487673045
586.857,226.51026358328272
589.485,231.30553044421004
592.112,213.53533772229866
594.737,193.67533102015886
597.359,138.77250033896416
599.98,117.82613399433285
602.599,130.4544868179255
605.216,128.37097216856637
607.831,120.14606822907126
610.445,140.39779573166152
613.056,96.1726718738505
615.666,107.61237852004206
618.274,113.33471611741925
620.88,100.33836713564006
623.484,116.43146903034312
626.086,149.27923482570486
628.686,151.64204988746633
631.284,170.42309250548442
633.881,167.19214495246888
636.476,146.23321406653486
639.068,153.78262802422205
641.659,144.12427597066926
644.249,145.54199050692432
646.836,135.7481206534403
649.421,117.83591433738957
652.005,84.66047230855202
654.587,83.60065443615576
657.166,93.98765267238605
659.745,97.29546877779921
662.321,64.28377299911381
664.895,43.14076274700574
667.468,21.387926035803048
670.038,33.308614446988486
672.607,35.2337589498502
675.174,37.87520697477839
677.739,11.135253306690174
680.303,-16.083829021541078
682.864,-3.1654959309089463
685.424,5.268694985098591
687.982,0.7876623831516554
690.538,-4.658716478264068
693.092,5.831829537080921
695.645,-17.028884913596812
698.195,-2.0528286849757933
700.744,-0.3852710586570538
703.291,-3.8381099853668275
705.836,-19.937486252152212
708.38,-20.39996911744538
710.921,-3.465885195998453
713.461,4.195921989182352
715.999,21.82142555319615
718.535,7.599034158570703
721.069,30.669591876970117
723.602,27.316854241379588
726.133,58.44367858399801
728.662,50.0958334217562
731.189,56.985807841824226
733.714,40.96900183950356
736.238,31.18658332278028
738.759,28.636916545458007
741.279,49.223181016478065
743.798,41.18194279019008
746.314,29.892678137575786
748.829,18.30634483652193
751.342,-4.721284633146297
753.853,21.951329152988365
756.362,35.275301949440745
758.869,48.86846855966951
761.375,38.25347793587434
763.879,15.762554945461488
766.381,-0.41488071964158735
768.882,17.1011186520509
771.38,32.500076272317074
773.877,51.44775738159365
776.372,56.038550063048206
778.866,56.89070319950929
781.357,47.1939453827747
783.847,65.13805620387802
786.335,88.15096135287195
788.821,82.61301819480286
791.306,90.2379680123513
793.789,88.54912634371158
796.27,88.59366855857093
798.749,90.94262971980015
801.227,105.11947587371947
803.702,105.5524848641719
806.176,121.00331762278961
808.649,113.5670180306845
811.119,111.19582230394735
813.588,96.84201599819266
816.055,117.41031482262724
818.521,129.3769121207904
820.984,149.4085263512925
823.446,138.1243057114059
825.906,87.6672565701856
828.365,58.98995761587025
830.821,64.66408352708572
833.276,76.68992864405209
835.729,104.02021635407777
838.181,108.79819419134174
840.631,85.88144322238463
843.079,57.88949695541373
845.525,34.48955548770323
847.97,32.396485367276455
850.412,61.99186707364379
852.854,58.03828059376929
855.293,59.20311480756345
857.731,56.3442816352856
860.167,78.31973970875106
862.601,58.74939899492324
865.034,71.25321589569444
867.465,27.16547882385771
869.894,23.106236636224367
872.321,36.36225087625576
874.747,59.02985277860944
877.171,39.5863717022487
879.594,6.461563563563914
882.014,-1.2004845400401791
884.433,-3.398497325601056
886.851,2.6783694894693326
889.266,17.79338607106888
891.68,53.662247865632935
894.092,53.57212261641416
896.503,95.76260214166791
898.912,104.4257017318871
901.319,118.70585954703552
903.724,122.27136458520658
906.128,127.88578465128876
908.53,115.12225146848004
910.931,92.88726959933047
913.329,56.23023965249604
915.726,52.391076727587915
918.122,60.65735266954425
920.516,95.07858118014428
922.908,134.94240769142357
925.298,133.2984182867192
927.687,112.57718671694875
930.074,118.1617023692736
932.459,91.24451252148083
934.843,92.97057888207564
937.225,110.72299127322867
939.605,112.64677655181958
941.984,121.55365991143412
944.361,114.11254047007606
946.736,76.7542525721633
949.11,66.3858509000438
951.482,52.533467014088046
953.853,32.580403988017906
956.222,18.86237390137603
958.589,-14.856312287052106
960.954,-26.52560248486202
963.318,-21.714465973561573
965.68,8.912913964669542
968.041,31.549516021911586
970.4,45.24547359107828
972.757,29.8128302885857
975.113,27.682676429406456
977.467,7.143237883067741
979.819,-2.755368403672719
982.17,-13.201140788921748
984.519,-14.810674786632035
986.866,-22.96250234439185
989.212,11.393377013259169
991.556,20.640249189701763
993.899,28.589912242046694
996.24,31.48266616346814
998.579,34.55873123697438
1000.92,50.77252353203244
1003.25,39.36407325833875
1005.59,13.192347881498563
1007.92,12.925718095833872
1010.25,10.565757130543489
1012.58,13.828184262020159
1014.91,58.38095250883225
1017.24,29.796623131814613
1019.56,28.219027270904462
1021.88,33.74421329624852
1024.2,66.13473048283481
1026.52,77.86724886568709
1028.84,116.46589675920086
1031.16,104.6927411336203
1033.48,94.21445846770234
1035.79,110.84043417280986
1038.1,146.2846715408134
1040.41,149.49912926341722
1042.72,177.62610657053256
1045.03,162.0458664638909
1047.33,113.28140180779246
1049.64,114.28415380081037
1051.94,111.76734949510978
1054.24,128.7774345538678
1056.54,149.59883934202617
1058.84,140.9920783503785
1061.13,115.19375438156248
1063.43,107.39275321224
1065.72,115.7778668267074
1068.01,145.1568452219335
1070.3,175.38497202211988
1072.59,189.1745924742179
1074.87,206.3332128720133
1077.16,213.62064759926056
1079.44,202.796642363292
1081.72,230.28754504767562
1084.0,251.85297656486796
1086.28,275.49059694696166
1088.56,334.1503952459543
1090.84,400.68707467210993
1093.11,447.33624725612185
1095.38,511.0001523208109
1097.65,480.5809940004376
1099.92,435.36189780764107
1102.19,360.57834339084934
1104.46,310.46578776788897
1106.72,293.16443141672517
1108.98,291.00493674715676
1111.24,296.88938466775585
1113.5,348.2912787718467
1115.76,376.06507333301397
1118.02,412.77951082441905
1120.28,417.62238800954356
1122.53,377.5910363186497
1124.78,330.8256593680994
1127.03,303.9902895272901
1129.28,259.3680301998834
1131.53,230.4324885812175
1133.77,180.03825603476525
1136.02,139.51615037336637
1138.26,116.86369623568703
1140.5,132.03084355791952
1142.74,137.77711461691092
1144.98,145.57637012091118
1147.22,171.3310991098415
1149.45,175.65813742699015
1151.69,165.2696242859531
1153.92,181.87776836137732
1156.15,179.718661498757
1158.38,152.40942575756162
1160.61,150.18631283531522
1162.83,111.71423206310715
1165.06,76.03913554396104
1167.28,88.87373662454047
1169.5,87.59751408113925
1171.72,68.63766868662606
1173.94,63.37388930119755
1176.16,49.185976105988175
1178.37,51.16813050335281
1180.58,48.12895930286413
1182.8,45.30576462159593
1185.01,18.840738546314242
1187.22,10.780967319470847
1189.42,-13.731088284316229
1191.63,-34.45758683607437
1193.84,-50.35101329335271
1196.04,-30.458935154013716
1198.24,-11.066857737585906
1200.44,21.92081945076211
1202.64,65.36174771582773
1204.84,63.78038250096779
1207.03,55.55845321812012
1209.23,28.696861649252014
1211.42,4.863294633519899
1213.61,-1.2744489598553628
1215.8,35.99915445557235
1217.99,44.97115685157314
1220.18,47.78584688155547
1222.36,39.92093436736013
1224.55,42.04468716700626
1226.73,46.777829947199734
1228.91,31.598300098695063
1231.09,25.555527461185193
1233.27,22.984714048186788
1235.44,18.0306375814514
1237.62,44.60002645394934
1239.79,70.55203223043577
1241.96,73.65060873086281
1244.13,81.94546254235775
1246.3,90.81967019786703
1248.47,79.46586678337644
1250.64,98.31481549751038
1252.8,121.79731054446734
1254.96,116.53465145552696
1257.13,91.52911741055732
1259.29,97.8306320357051
1261.44,100.29866629632875
1263.6,113.93556996135385
1265.76,155.60085544858384
1267.91,156.9635769081051
1270.06,172.93089978188573
1272.22,191.267146553849
1274.37,183.02236630947164
1276.51,154.7704281049023
1278.66,169.7518762408447
1280.81,155.20726172691457
1282.95,156.23428326981616
1285.09,145.07349969008078
1287.23,133.39404233881282
1289.37,126.91266084777135
1291.51,163.6318164984939
1293.65,151.36348987713745
1295.78,143.01489329122273
1297.92,134.96942128161822
1300.05,115.18188684881193
1302.18,106.60709101251655
1304.31,90.91410665698345
1306.44,79.34341951917668
1308.57,119.27835489123709
1310.69,156.5307900372245
1312.82,192.6268666098656
1314.94,207.9974649720582
1317.06,184.83534518504462
1319.18,189.23800228230266
1321.3,216.5886167815254
1323.41,213.8893861489878
1325.53,231.95199912105568
1327.64,234.15953859712772
1329.75,234.99028929448218
1331.87,252.0177358793087
1333.98,266.2438944310802
1336.08,268.09931057359154
1338.19,274.0621052250385
1340.3,269.89606796715475
1342.4,222.22208374767388
1344.5,204.61336910661112
1346.6,182.7859464977746
1348.7,157.50340432456687
1350.8,156.0054664995905
1352.9,138.72227628997416
1354.99,117.36963254365014
1357.09,134.94898782039013
1359.18,148.74744652284608
1361.27,152.09966778949274
1363.36,178.2450064828122
1365.45,180.32751132033627
1367.54,178.82449443425412
1369.62,163.26081521673882
1371.7,172.87554511765734
1373.79,215.86006101370253
1375.87,267.11994810134547
1377.95,290.3702361231092
1380.03,281.5163498795682
1382.1,237.79696450324604
1384.18,187.9744797801343
1386.25,179.19216113787957
1388.33,136.83128063396907
1390.4,129.65397222962702
1392.47,114.51751563513767
1394.54,96.37433444088902
1396.6,81.51008948650724
1398.67,88.63891508713436
1400.74,52.236750497799676
1402.8,57.44609994921598
1404.86,59.31412601690954
1406.92,47.411695371305086
1408.98,61.07147214685665
1411.04,57.14982083499399
1413.09,46.550613938966535
1415.15,26.12999200964009
1417.2,10.886837967006159
1419.25,-10.41817714973945
1421.3,12.165978030557426
1423.35,22.494982844810465
1425.4,45.51964157720249
1427.45,31.238266464290064
1429.49,6.220491556469597
1431.54,-1.2498658015042565
1433.58,33.53948508142298
1435.62,44.44359894269428
1437.66,78.46029942009272
1439.7,84.63494581045757
1441.74,80.96519982839936
1443.77,81.49626855549354
1445.81,102.60662357994988
1447.84,111.81752966009276
1449.87,120.65019243545726
1451.9,111.38766804265265
1453.93,98.74153463598395
1455.96,89.18523057474249
1457.98,117.6683449914467
1460.01,147.23567026484466
1462.03,174.50339735006014
1464.05,192.08769206112083
1466.07,199.0332713534865
1468.09,185.57531293991156
1470.11,214.37755538249826
1472.13,232.62754104189594
1474.14,280.989001883642
1476.16,311.363769094025
1478.17,320.36796841023283
1480.18,310.6653583076454
1482.19,291.68162056807773
1484.2,238.5567460861123
1486.21,210.90694448496242
1488.21,174.11036325614214
1490.22,126.35471166104503
1492.22,92.73250368014487
1494.22,73.00296762886228
1496.22,43.92538434486141
1498.22,54.35433013724992
1500.22,27.38253878339856
1502.22,6.721858763853334
1504.21,-25.34436093132308
1506.21,-28.437456424777793
1508.2,-9.654871995185886
1510.19,20.239366563567273
1512.18,27.338461255056473
1514.17,46.87855495760164
1516.16,20.8101587872693
1518.14,16.083865175158508
1520.13,16.983679992307316
1522.11,-4.3015500873093515
1524.09,0.17900406192848095
1526.07,1.709581380281179
1528.05,-5.235028168167219
1530.03,12.48670525085413
1532.01,16.87352607520893
1533.98,11.11472468672082
1535.96,26.30442113249751
1537.93,22.679658370063635
1539.9,34.858495512493164
1541.87,31.982862978306684
1543.84,71.48046526041571
1545.81,81.92192179030076
1547.78,97.73505065933728
1549.74,93.3953428163145
1551.7,104.18786483638041
1553.67,108.87392359474939
1555.63,126.64344522612646
1557.59,110.35306836984546
1559.55,111.09757074834056
1561.5,84.01939098371531
1563.46,92.40386470002659
1565.41,106.29827014938155
1567.37,102.36896907612777
1569.32,96.04426186675391
1571.27,103.56200460455693
1573.22,86.96960707668427
1575.17,87.17164982880195
1577.11,64.26321550547459
1579.06,69.3394106667406
1581.0,72.73345903325344
1582.95,93.7786042552375
1584.89,113.09382220524776
1586.83,116.15524755664
1588.77,103.20093369537835
1590.7,78.27846977469994
1592.64,66.67355015072894
1594.58,46.60044857999537
1596.51,29.63058765505116
1598.44,19.93063204960322
