Raman Shift,Processed Intensity
331.095,174.31933355966612
333.909,183.23271344438353
336.721,190.77992262366615
339.531,197.46097851145805
342.339,205.29974287339473
345.145,212.62965352645642
347.949,221.1175512767054
350.751,194.43036399987432
353.55,199.04464786482185
356.348,196.72279522366034
359.144,219.2749567875876
361.937,262.36858285035487
364.729,279.09986927363207
367.518,285.9461558533344
370.306,305.6707056383216
373.091,326.27510329672396
375.874,416.5707011013101
378.656,468.22625539105775
381.435,416.2441344612903
384.212,334.0555740728655
386.988,226.90164724706938
389.761,106.9285197748004
392.532,97.28270572575593
395.301,74.3967991480963
398.068,53.75139624429676
400.833,45.446541356534
403.596,23.677934856825686
406.358,-38.83447801044349
409.117,-85.32268019075673
411.874,-107.0181844531221
414.629,-101.10440103209066
417.382,-72.28806230334749
420.133,-57.27542142222819
422.882,-41.2008432614839
425.629,-8.293498502987859
428.374,46.07498369226505
431.117,129.67619194621966
433.858,201.09156044524025
436.597,236.37899672159756
439.334,235.78712848257055
442.069,208.66002663003246
444.802,147.1514520895521
447.533,139.60576930616799
450.262,154.36743116873458
452.989,207.7809401247473
455.714,250.80985691421392
458.438,272.98914263685674
461.159,239.2346436764592
463.878,197.17638614902353
466.595,149.39663225568165
469.31,110.52507949274786
472.024,63.42929795701457
474.735,59.26231050818433
477.444,62.08160150272806
480.152,80.27765578412391
482.857,112.09774183186528
485.561,104.59827269312473
488.262,95.3114607340558
490.962,87.91197239109533
493.659,114.26453530321442
496.355,158.66203120853015
499.048,191.96835966015624
501.74,206.237492218253
504.43,227.38014568968902
507.118,247.5923601296131
509.804,309.59360065254396
512.488,413.72200210061374
515.17,496.36294704513193
517.85,554.377643788157
520.528,605.0078948402615
523.204,624.3522939697195
525.878,631.4614708707518
528.551,663.8619072603356
531.221,670.7464196416795
533.89,653.5932134962709
536.556,645.4039850949712
539.221,636.4182137853018
541.883,632.2560257072969
544.544,647.4420098903124
547.203,656.0242724450709
549.86,645.3363478985648
552.515,683.1876819575295
555.168,734.006495224291
557.819,752.0778850078564
560.469,777.162879515954
563.116,791.8793968089863
565.761,784.98796565872
568.405,840.2964940260313
571.047,890.8031327767412
573.687,908.5058060641168
576.324,935.7355512351901
578.96,900.7755730227741
581.594,872.7660120232063
584.227,866.1325226978893
586.857,838.014851374844
589.485,766.7430332978797
592.112,736.5516849138535
594.737,683.9133437789797
597.359,659.6337132270473
599.98,644.5659546566862
602.599,641.467836961479
605.216,604.3350764362817
607.831,642.3537243025726
610.445,687.2335066147662
613.056,752.7792594046141
615.666,811.2718876351346
618.274,921.3255146307392
620.88,1012.2684410311631
623.484,1121.7145799358755
626.086,1235.08727300087
628.686,1353.143106535459
631.284,1438.2576323609596
633.881,1504.8539458122486
636.476,1490.2122161202578
639.068,1408.18397869924
641.659,1279.5254750530762
644.249,1120.0405164911122
646.836,958.5804907011297
649.421,786.7110349889863
652.005,618.569185708734
654.587,478.4824324546371
657.166,352.7782484436689
659.745,249.78409708848494
662.321,165.82743857038804
664.895,96.75954593611004
667.468,66.90789262315775
670.038,29.36187331850533
672.607,10.782334341087335
675.174,9.496818310015442
677.739,5.213859437193605
680.303,22.40394660590664
682.864,21.632868386167956
685.424,-7.152560456455376
687.982,-41.529246359241824
690.538,-41.02637168390811
693.092,-35.79204542126854
695.645,-8.545672632916194
698.195,-4.006518754114495
700.744,13.868198495083107
703.291,2.7880734586838116
705.836,21.5104669584548
708.38,21.840509724688673
710.921,26.678725157918052
713.461,38.1638901858596
715.999,65.81589612035668
718.535,64.58337141908669
721.069,102.65320920916656
723.602,115.30771385837897
726.133,123.97222373687146
728.662,98.45321016932894
731.189,73.70018591095914
733.714,22.567613623479247
736.238,-9.089852315564713
738.759,-11.464981146331866
741.279,-16.559866774511192
743.798,-27.995448783018674
746.314,-12.01151079132751
748.829,0.0571290312354904
751.342,12.494900778777719
753.853,49.30071679272396
756.362,45.3308246933334
758.869,34.25118422072546
761.375,31.918415504490895
763.879,16.475033047582656
766.381,9.492298757826575
768.882,34.9225987889572
771.38,69.62324895307665
773.877,91.73744299026703
776.372,107.93234369533457
778.866,102.39907880646797
781.357,86.94797498912885
783.847,79.77045848660873
786.335,105.724765294402
788.821,141.24069895361163
791.306,174.08153120150428
793.789,217.29637881253666
796.27,250.17258043938273
798.749,293.99759726348316
801.227,371.2018660265469
803.702,432.1683187287249
806.176,501.5657118505858
808.649,531.6819555751015
811.119,498.32887158105086
813.588,486.84218893166553
816.055,461.8910637727895
818.521,423.0018847453373
820.984,387.7487450644087
823.446,335.37248602698514
825.906,286.20926432915167
828.365,239.83340509760842
830.821,210.24787396880492
833.276,211.26522535854474
835.729,195.98378882683528
838.181,190.644807823689
840.631,177.06100700635238
843.079,131.09277860415568
845.525,116.9815116405075
847.97,130.58768305964986
850.412,130.67656790103638
852.854,146.3468066165617
855.293,131.74468667350902
857.731,115.49270987178261
860.167,79.97530251828061
862.601,63.57690655365309
865.034,26.110546869531163
867.465,33.57973195909426
869.894,55.41654504382154
872.321,92.14830662881764
874.747,96.39757039147094
877.171,72.02497621296948
879.594,44.65305559076478
882.014,37.57098943199594
884.433,12.401270608812865
886.851,3.5758903232263037
889.266,31.288714948153938
891.68,52.305006983942576
894.092,103.437613047495
896.503,141.64219948044433
898.912,134.1601070049519
901.319,122.94691966521577
903.724,119.9105575785045
906.128,133.62556016238477
908.53,142.7140360286146
910.931,130.03613668655498
913.329,138.69005405610756
915.726,143.8691608377942
918.122,132.05248421617443
920.516,142.7189890870727
922.908,126.29995652289927
925.298,95.3218384284346
927.687,90.93006457757656
930.074,88.22237345960434
932.459,98.96309550640376
934.843,123.63076965301457
937.225,129.65623608865917
939.605,130.70834805538902
941.984,133.2177788848228
944.361,125.56749570155625
946.736,94.66418550751791
949.11,74.60491936156222
951.482,62.962864178112795
953.853,88.40632785913476
956.222,104.79399490229412
958.589,122.2701620091268
960.954,119.83616416939117
963.318,127.92180074542557
965.68,124.8615234612721
968.041,115.46586248703443
970.4,68.49761442799968
972.757,43.9575541232839
975.113,28.79871787305501
977.467,51.40259142765831
979.819,24.29339321482962
982.17,-3.957163339536237
984.519,-23.491774157284453
986.866,-14.35801782291719
989.212,11.06307545231175
991.556,75.05702381065589
993.899,74.38541603162798
996.24,78.1906730451417
998.579,63.66271420655926
1000.92,55.75324261935884
1003.25,54.69955426732531
1005.59,68.92929952769441
1007.92,67.06048277954005
1010.25,67.28241439310796
1012.58,62.641424623913736
1014.91,47.374196554462515
1017.24,14.622051416920158
1019.56,9.097614868167284
1021.88,1.3705308839012105
1024.2,29.438891434492916
1026.52,50.7768575725604
1028.84,64.66799494818429
1031.16,71.49099324857343
1033.48,79.9577665901129
1035.79,76.73250629136464
1038.1,105.52692412225792
1040.41,112.05263841042301
1042.72,134.06879824276075
1045.03,143.38208861939756
1047.33,145.41816417907125
1049.64,133.2692734007071
1051.94,150.1704542335674
1054.24,149.1662059178791
1056.54,141.63430366260013
1058.84,116.61913713270815
1061.13,95.16504893649176
1063.43,98.17348263664462
1065.72,131.593464094698
1068.01,168.9454161487829
1070.3,194.79735424377668
1072.59,186.57441539477963
1074.87,176.22553000773678
1077.16,180.8424746524429
1079.44,197.850353406973
1081.72,219.57903158306272
1084.0,240.40599802291968
1086.28,277.7087512055616
1088.56,338.19813773410306
1090.84,415.3469289182824
1093.11,500.5326830712754
1095.38,523.4663220922223
1097.65,486.382612810668
1099.92,417.8020769024215
1102.19,366.388138900654
1104.46,333.7566551593811
1106.72,328.71401424550504
1108.98,331.9714278070601
1111.24,352.52588810811835
1113.5,375.46969699226815
1115.76,443.27618532227757
1118.02,479.037813372144
1120.28,503.6566521715199
1122.53,520.511055326331
1124.78,501.9794736965323
1127.03,462.4880795976824
1129.28,419.2250576691754
1131.53,362.4739433615273
1133.77,300.3755328522259
1136.02,289.26122153301594
1138.26,260.51015202099006
1140.5,280.35874312205874
1142.74,321.23402831823546
1144.98,361.9441371120661
1147.22,377.5830620853369
1149.45,394.3878069101629
1151.69,396.9288676934118
1153.92,384.0150000354083
1156.15,334.9789384695998
1158.38,265.62978256888414
1160.61,203.30062114717884
1162.83,151.32472788956238
1165.06,155.36889983955803
1167.28,145.71917683880065
1169.5,117.13798953812375
1171.72,85.57845026580094
1173.94,65.04150103863549
1176.16,39.147347287339926
1178.37,17.32593920095951
1180.58,6.626500690348621
1182.8,-24.091989267408053
1185.01,-31.017932595437514
1187.22,-39.05377122191203
1189.42,-46.72074393353955
1191.63,-49.206503626910944
1193.84,-8.365119643628532
1196.04,10.711486342153648
1198.24,12.503051554771673
1200.44,-12.081898467185283
1202.64,-26.420347939504154
1204.84,-16.698611442451693
1207.03,-5.102822451749489
1209.23,21.46676582521468
1211.42,31.586239773505895
1213.61,42.59372226190294
1215.8,55.97030980062004
1217.99,79.38767953491492
1220.18,74.75569623870388
1222.36,67.317638355795
1224.55,80.36447166016501
1226.73,55.23483720194986
1228.91,41.69599163439079
1231.09,34.181890397917414
1233.27,60.84079471375958
1235.44,78.96383514344097
1237.62,123.17548336837831
1239.79,128.29069063615157
1241.96,154.8863119210555
1244.13,178.96776817989257
1246.3,264.39761336966626
1248.47,365.1336252748099
1250.64,448.5621344296494
1252.8,551.1170673265772
1254.96,664.518037243276
1257.13,774.5798636413704
1259.29,958.2125677555448
1261.44,1088.3737491350505
1263.6,1148.4495336137782
1265.76,1156.4926641374718
1267.91,1109.8415439719097
1270.06,1005.3583275301166
1272.22,928.3812969138744
1274.37,825.2962860742721
1276.51,715.4890573532105
1278.66,619.0119637391958
1280.81,530.2506111231298
1282.95,478.0190919826821
1285.09,416.4647428761775
1287.23,385.0205209841049
1289.37,349.8335711268162
1291.51,344.2890308774661
1293.65,338.8671690082847
1295.78,367.47671441303646
1297.92,390.7881850294805
1300.05,405.567216761837
1302.18,448.1507495461094
1304.31,478.732737224924
1306.44,518.9355717080916
1308.57,539.0481737998227
1310.69,567.930750692618
1312.82,569.5862201278151
1314.94,620.9697297942389
1317.06,656.7981767268498
1319.18,725.4549648006257
1321.3,759.3709527006372
1323.41,748.3101637968873
1325.53,702.5602579239094
1327.64,656.2182412556053
1329.75,600.333319037222
1331.87,559.240224507806
1333.98,518.3211192512294
1336.08,439.95796973769166
1338.19,394.10397148427273
1340.3,324.37878273928845
1342.4,290.1637581666628
1344.5,243.12575395885983
1346.6,203.88379009267624
1348.7,156.96142687074826
1350.8,133.45342717735252
1352.9,73.16860921039734
1354.99,57.43936588007978
1357.09,47.97880325517008
1359.18,47.45216472357174
1361.27,54.76254086717449
1363.36,51.765155578498934
1365.45,28.64832360402329
1367.54,22.076312849409987
1369.62,49.6179209704444
1371.7,50.46076916827337
1373.79,87.64940776986236
1375.87,115.65675514178179
1377.95,148.76506041352127
1380.03,152.3516281055547
1382.1,146.8412094240805
1384.18,79.94410784147158
1386.25,59.46571324815636
1388.33,28.020798009267992
1390.4,20.652574926054058
1392.47,8.166040911563869
1394.54,12.69941875056179
1396.6,6.009886685210176
1398.67,-10.28831020255916
1400.74,-30.48574730111727
1402.8,-54.34923096619809
1404.86,-54.693210099525686
1406.92,0.19166615131916842
1408.98,48.34807998447968
1411.04,56.866332453487985
1413.09,67.45577385403521
1415.15,53.82575792026705
1417.2,65.9713579258405
1419.25,133.8400351659327
1421.3,207.56973601067534
1423.35,243.9174651490723
1425.4,270.40214454719694
1427.45,262.0665200254425
1429.49,236.19144878815905
1431.54,205.39113933422846
1433.58,177.18458184384008
1435.62,111.51935951764335
1437.66,92.39069801113169
1439.7,108.65099105950867
1441.74,125.62884991207306
1443.77,115.0338670523222
1445.81,132.57566563234263
1447.84,124.72580605006215
1449.87,158.6701687169773
1451.9,188.4041939687445
1453.93,203.68526483290793
1455.96,205.08032789186382
1457.98,238.29922843154372
1460.01,278.4328074948587
1462.03,365.28623703037533
1464.05,451.23616456480227
1466.07,580.5640483516738
1468.09,742.9799687105065
1470.11,937.1464393659508
1472.13,1172.4403140250456
1474.14,1415.0956453354183
1476.16,1609.156067653011
1478.17,1726.5224179050415
1480.18,1741.4765469291644
1482.19,1672.2527498602403
1484.2,1568.323482231396
1486.21,1367.637457027469
1488.21,1148.0005988812973
1490.22,901.5522363652506
1492.22,690.1936752351417
1494.22,511.3977240550885
1496.22,409.1134579176173
1498.22,288.48050597329166
1500.22,220.2100056269985
1502.22,153.10841387710275
1504.21,130.55369960697885
1506.21,82.78105968606496
1508.2,65.54958745186741
1510.19,39.85656023958336
1512.18,11.556488816484716
1514.17,-8.972214136074854
1516.16,-7.589136969231049
1518.14,-33.77281845260018
1520.13,0.23639714553360136
1522.11,45.43636133392715
1524.09,27.729785757503123
1526.07,5.924239914108966
1528.05,-19.982136843013677
1530.03,-30.086349098340634
1532.01,14.895646199085604
1533.98,65.43846255701965
1535.96,65.92156550046684
1537.93,66.67688896893401
1539.9,68.08407076130129
1541.87,57.3799736949793
1543.84,59.896778193637374
1545.81,52.34769392255089
1547.78,70.87457618584949
1549.74,101.85744708566972
1551.7,149.96211191940642
1553.67,156.56872795791082
1555.63,155.7241827475034
1557.59,143.23732955484184
1559.55,173.3456513832241
1561.5,200.76287736983863
1563.46,226.82183727825873
1565.41,240.42683980045763
1567.37,217.38700323977537
1569.32,166.892443336744
1571.27,134.32379442824208
1573.22,110.01411155903293
1575.17,96.7250583075861
1577.11,93.50404699285446
1579.06,70.11280745248155
1581.0,50.40833677338651
1582.95,51.20003949854254
1584.89,54.96401069089893
1586.83,67.12874756872611
1588.77,66.69419447429732
1590.7,54.51745450923477
1592.64,42.26516783652323
1594.58,36.1992233158569
1596.51,31.176755853274244
1598.44,26.53109613174024
