Raman Shift,Processed Intensity
331.095,-2.714188571428788
333.909,-28.969020000000047
336.721,-20.866220714285685
339.531,4.048634285714306
342.339,26.396353809523813
345.145,11.393366666666658
347.949,2.8047823809523775
350.751,-4.460560000000015
353.55,-22.826244285714285
356.348,-19.09581714285715
359.144,-13.500382380952393
361.937,-20.888969523809514
364.729,-7.395508095238055
367.518,48.75249714285724
370.306,138.1378271428573
373.091,238.39205809523827
375.874,306.7190952380954
378.656,342.4196190476192
381.435,308.5572190476191
384.212,242.57798571428577
386.988,138.88133333333337
389.761,60.53461904761906
392.532,1.6538952380952594
395.301,-2.357443333333314
398.068,-0.33282904761904053
400.833,23.228777619047627
403.596,8.35374333333334
406.358,11.117339523809536
409.117,29.262828095238106
411.874,4.9635057142856915
414.629,-26.368024761904763
417.382,-32.36538285714287
420.133,-18.375037142857103
422.882,30.210326666666752
425.629,112.52304666666676
428.374,156.60143714285726
431.117,199.29452380952395
433.858,219.35738095238108
436.597,206.87952380952393
439.334,199.99904761904776
442.069,169.4265238095239
444.802,168.2544761904763
447.533,159.67147619047626
450.262,181.43876190476203
452.989,192.0798571428573
455.714,234.83376190476204
458.438,253.84439047619063
461.159,240.78077142857148
463.878,177.93149523809535
466.595,125.58551428571437
469.31,109.46111428571437
472.024,117.46799047619055
474.735,133.61080000000007
477.444,121.37139047619054
480.152,120.27982857142865
482.857,120.67567619047628
485.561,151.18502857142866
488.262,159.71979047619055
490.962,160.23976190476202
493.659,136.5143333333334
496.355,126.50395238095246
499.048,112.55035714285721
501.74,108.1858571428572
504.43,109.60940476190483
507.118,106.21088095238102
509.804,107.71311904761913
512.488,141.50607142857154
515.17,192.26561904761917
517.85,230.90530952380965
520.528,234.05342857142867
523.204,194.38538095238104
525.878,188.57685714285725
528.551,191.8747142857144
531.221,184.8117857142858
533.89,153.92038095238104
536.556,123.92378571428578
539.221,116.3060857142858
541.883,123.64730000000009
544.544,146.62174285714295
547.203,150.0472476190477
549.86,135.5028857142858
552.515,142.710561904762
555.168,143.24870476190483
557.819,136.171761904762
560.469,148.58180952380962
563.116,174.39028571428582
565.761,189.12676190476202
568.405,217.74980952380963
571.047,198.50295238095248
573.687,179.81980952380962
576.324,158.0390476190477
578.96,146.73661904761914
581.594,147.39238095238105
584.227,162.3915238095239
586.857,169.30909523809535
589.485,191.48147619047631
592.112,191.1021904761906
594.737,207.8407142857144
597.359,177.55595238095245
599.98,142.91638095238102
602.599,143.30444761904772
605.216,145.95928095238102
607.831,113.97682380952388
610.445,119.16738571428577
613.056,96.6259190476191
615.666,92.97118571428581
618.274,130.86923333333343
620.88,139.27166666666676
623.484,138.70119047619056
626.086,153.15633333333346
628.686,189.4443809523811
631.284,223.08704761904778
633.881,289.03447619047637
636.476,303.99800000000016
639.068,292.7368571428572
641.659,254.0097142857144
644.249,208.95571428571438
646.836,166.1905238095239
649.421,148.23409523809534
652.005,137.034361904762
654.587,124.30156190476197
657.166,106.93610952380958
659.745,85.07624285714289
662.321,45.57474761904763
664.895,15.42673333333335
667.468,8.913152380952399
670.038,29.41012380952386
672.607,62.91288095238101
675.174,82.65463809523811
677.739,86.34486095238098
680.303,63.45492285714287
682.864,51.218064761904806
685.424,51.77236285714287
687.982,52.44643619047622
690.538,27.140358095238106
693.092,14.420939047619033
695.645,-16.52586761904761
698.195,10.247840952380987
700.744,31.690113333333358
703.291,52.08240380952383
705.836,38.230099047619056
708.38,34.03386571428574
710.921,28.06119809523812
713.461,24.45108476190477
715.999,27.532906666666698
718.535,57.73167809523814
721.069,62.3771428571429
723.602,79.60862380952383
726.133,88.27985238095239
728.662,71.86367619047624
731.189,59.8805047619048
733.714,59.136828571428595
736.238,45.24861904761909
738.759,64.35575714285721
741.279,80.693380952381
743.798,93.30629047619053
746.314,90.66797142857146
748.829,70.39483333333337
751.342,51.38905238095242
753.853,54.029185714285745
756.362,70.12214761904767
758.869,75.90392380952386
761.375,88.51519523809527
763.879,89.3347666666667
766.381,67.74158095238099
768.882,60.01925238095242
771.38,65.78495238095242
773.877,61.75143333333339
776.372,79.53598571428577
778.866,88.94655523809527
781.357,61.21977190476194
783.847,59.735000952380986
786.335,57.87205666666671
788.821,54.10591047619052
791.306,80.34013857142865
793.789,120.14505523809531
796.27,138.04358571428583
798.749,165.89212857142869
801.227,178.35656190476197
803.702,164.62666666666675
806.176,167.36866666666674
808.649,167.5820000000001
811.119,158.837761904762
813.588,158.18333333333342
816.055,167.80890476190487
818.521,173.71433333333346
820.984,176.09009523809533
823.446,165.17449523809532
825.906,128.91990000000007
828.365,124.5173238095239
830.821,137.53852857142866
833.276,146.2220857142858
835.729,151.3781857142858
838.181,151.24573333333342
840.631,140.53942857142866
843.079,150.1175238095239
845.525,151.93334285714292
847.97,133.6070714285715
850.412,88.4257761904762
852.854,37.295452380952405
855.293,33.69363333333338
857.731,62.383395238095304
860.167,90.604680952381
862.601,121.16882857142862
865.034,113.55369047619052
867.465,90.66595238095243
869.894,90.88859047619053
872.321,77.88998571428574
874.747,75.00597142857148
877.171,85.23863809523813
879.594,70.25673809523812
882.014,62.729428571428606
884.433,72.37333333333339
886.851,86.66685238095248
889.266,140.8984380952382
891.68,147.11813809523815
894.092,126.66210476190483
896.503,118.91367142857149
898.912,89.54223333333341
901.319,106.69311904761915
903.724,135.17861428571436
906.128,147.0490666666668
908.53,178.40274761904774
910.931,197.4324857142858
913.329,165.9030476190477
915.726,151.9124190476191
918.122,110.12993333333338
920.516,80.17739047619054
922.908,67.24817142857147
925.298,71.91630476190483
927.687,107.51777142857154
930.074,121.24580000000006
932.459,130.91267619047625
934.843,130.75900476190483
937.225,84.50164285714291
939.605,74.42887142857148
941.984,72.44778571428574
944.361,50.08471428571434
946.736,68.96118571428576
949.11,72.26993809523812
951.482,63.96549523809529
953.853,76.00285714285718
956.222,80.95535238095245
958.589,94.01565238095245
960.954,110.80497142857148
963.318,82.61104761904765
965.68,75.6261428571429
968.041,57.85234761904765
970.4,58.862752380952415
972.757,49.040166666666686
975.113,67.19580952380954
977.467,37.28388095238097
979.819,51.11557047619051
982.17,43.454341904761925
984.519,42.158898095238115
986.866,24.897358095238125
989.212,43.09963142857145
991.556,32.48151333333337
993.899,61.75872761904767
996.24,79.40848095238101
998.579,96.76560000000006
1000.92,106.35492380952387
1003.25,114.41562857142863
1005.59,101.71070000000006
1007.92,106.6220571428572
1010.25,108.5313571428572
1012.58,92.72537142857146
1014.91,64.5855904761905
1017.24,40.77928571428573
1019.56,16.926061904761944
1021.88,53.07400952380959
1024.2,99.31875714285722
1026.52,132.61267619047626
1028.84,166.5273714285715
1031.16,192.9200000000001
1033.48,183.12380952380965
1035.79,184.8531904761906
1038.1,209.48880952380966
1040.41,231.41119047619065
1042.72,248.04852380952394
1045.03,256.924142857143
1047.33,232.79952380952392
1049.64,178.29285714285726
1051.94,169.2129523809525
1054.24,178.51133333333343
1056.54,177.09209523809537
1058.84,189.2874761904763
1061.13,185.19204761904768
1063.43,148.94714285714292
1065.72,141.4565238095239
1068.01,156.48085714285727
1070.3,164.16161904761915
1072.59,192.78328571428582
1074.87,178.7732857142858
1077.16,180.46323809523824
1079.44,192.47080952380966
1081.72,231.98485714285732
1084.0,265.4798571428574
1086.28,331.525904761905
1088.56,386.26400000000024
1090.84,497.35928571428605
1093.11,574.4288095238098
1095.38,601.3755238095241
1097.65,564.578666666667
1099.92,478.4645714285717
1102.19,392.7932380952383
1104.46,354.9438571428574
1106.72,344.39066666666685
1108.98,355.79809523809547
1111.24,395.02161904761925
1113.5,419.5351428571431
1115.76,436.0986190476193
1118.02,452.0904285714289
1120.28,462.17552380952407
1122.53,468.25619047619074
1124.78,474.425904761905
1127.03,415.2538571428573
1129.28,342.3089523809525
1131.53,286.01757142857156
1133.77,226.75847619047636
1136.02,191.3867142857144
1138.26,193.04300000000012
1140.5,179.1539047619049
1142.74,195.4311904761906
1144.98,206.25380952380965
1147.22,211.52385714285728
1149.45,216.76295238095247
1151.69,198.30238095238107
1153.92,192.75904761904772
1156.15,192.46430476190483
1158.38,152.36812857142866
1160.61,122.18257619047624
1162.83,116.85793809523815
1165.06,90.10641904761908
1167.28,81.30680952380956
1169.5,85.93338095238099
1171.72,86.65074761904768
1173.94,63.50431904761909
1176.16,84.20663333333337
1178.37,83.1364047619048
1180.58,55.101257142857165
1182.8,56.52785428571433
1185.01,57.08118047619049
1187.22,38.759242857142894
1189.42,38.5129180952381
1191.63,24.054577142857152
1193.84,19.335129523809563
1196.04,53.92438476190481
1198.24,79.8685033333334
1200.44,94.73759619047621
1202.64,60.57804761904762
1204.84,26.483980952380964
1207.03,14.264057142857169
1209.23,29.91734761904766
1211.42,36.967028571428585
1213.61,33.03168095238096
1215.8,14.44426190476192
1217.99,32.58552380952385
1220.18,42.31265714285719
1222.36,79.81640952380957
1224.55,70.81140000000002
1226.73,60.86956666666671
1228.91,52.42016666666671
1231.09,69.65447142857147
1233.27,79.57352571428576
1235.44,74.89282809523812
1237.62,67.99441333333337
1239.79,78.022790952381
1241.96,97.36050857142865
1244.13,108.10424238095244
1246.3,141.44620666666674
1248.47,148.86452380952392
1250.64,168.69452380952393
1252.8,200.93857142857155
1254.96,237.55133333333347
1257.13,260.8206190476192
1259.29,286.082142857143
1261.44,298.14814285714306
1263.6,284.116523809524
1265.76,265.5612857142859
1267.91,239.15185714285727
1270.06,222.22428571428586
1272.22,197.87657142857157
1274.37,185.68357142857155
1276.51,175.64800000000008
1278.66,161.72561904761915
1280.81,158.3004380952382
1282.95,138.80421904761914
1285.09,116.57349047619054
1287.23,98.2784571428572
1289.37,86.25540476190481
1291.51,85.27005714285721
1293.65,102.99216666666673
1295.78,100.61570000000005
1297.92,99.334580952381
1300.05,89.15229047619053
1302.18,80.07233809523814
1304.31,73.47930000000005
1306.44,79.90043333333341
1308.57,106.3390476190477
1310.69,141.41772857142865
1312.82,175.42598095238105
1314.94,189.8909238095239
1317.06,196.6256666666668
1319.18,186.96680952380964
1321.3,195.10800000000012
1323.41,202.05300000000014
1325.53,239.56714285714304
1327.64,254.3204285714287
1329.75,269.12576190476204
1331.87,256.4148571428573
1333.98,267.28619047619065
1336.08,270.26652380952396
1338.19,287.835142857143
1340.3,247.99528571428584
1342.4,214.84495238095246
1344.5,174.9112857142858
1346.6,150.10166666666677
1348.7,156.99000952380962
1350.8,148.10327619047627
1352.9,111.68207142857149
1354.99,102.01452380952387
1357.09,116.00796666666675
1359.18,115.75968571428581
1361.27,141.84320476190484
1363.36,155.26107619047627
1365.45,150.77704761904772
1367.54,161.25042857142867
1369.62,183.92080952380965
1371.7,200.12309523809535
1373.79,209.7159047619049
1375.87,229.84395238095252
1377.95,235.55585714285726
1380.03,235.32904761904774
1382.1,193.45009523809532
1384.18,179.92002857142867
1386.25,153.16807142857152
1388.33,119.95680476190482
1390.4,97.81021428571432
1392.47,66.7284761904762
1394.54,35.56893333333337
1396.6,34.99828571428573
1398.67,34.73040000000002
1400.74,29.145828571428595
1402.8,40.6248666666667
1404.86,44.928604761904786
1406.92,43.1512761904762
1408.98,42.6726904761905
1411.04,41.681919047619076
1413.09,53.129852380952435
1415.15,71.53857142857147
1417.2,82.049080952381
1419.25,86.04011904761911
1421.3,105.17640476190485
1423.35,119.83668095238103
1425.4,132.11358095238103
1427.45,101.24260000000002
1429.49,86.07828666666671
1431.54,53.474736666666686
1433.58,37.5721828571429
1435.62,51.034372857142905
1437.66,72.4295828571429
1439.7,60.61185095238099
1441.74,61.38768190476192
1443.77,52.896466666666704
1445.81,54.84934000000004
1447.84,51.957209047619074
1449.87,54.64534190476192
1451.9,49.91030523809526
1453.93,53.3676752380953
1455.96,86.4899471428572
1457.98,107.70251142857147
1460.01,100.90653809523815
1462.03,113.95591428571437
1464.05,135.94205714285727
1466.07,194.14740952380967
1468.09,238.71098095238108
1470.11,253.86776190476206
1472.13,259.18566666666686
1474.14,252.85190476190493
1476.16,249.43419047619068
1478.17,260.2153333333335
1480.18,238.47733333333343
1482.19,217.21730476190484
1484.2,182.7653952380953
1486.21,137.02326190476197
1488.21,113.84505714285719
1490.22,73.27561428571431
1492.22,42.78815714285717
1494.22,33.57050476190478
1496.22,28.62000476190479
1498.22,29.743666666666687
1500.22,39.22480952380953
1502.22,25.013547619047635
1504.21,17.39340476190477
1506.21,7.981347619047634
1508.2,23.775419047619067
1510.19,27.202309523809546
1512.18,37.83172952380955
1514.17,29.281129523809536
1516.16,25.263282857142883
1518.14,32.824432380952416
1520.13,51.15378190476193
1522.11,44.86921904761906
1524.09,32.017313333333334
1526.07,23.930496190476216
1528.05,23.322250476190504
1530.03,41.19189238095242
1532.01,45.15788380952382
1533.98,30.172143333333338
1535.96,2.6152428571428654
1537.93,14.534575714285735
1539.9,15.549032380952411
1541.87,43.37280333333337
1543.84,58.3868828571429
1545.81,89.5914390476191
1547.78,95.5580190476191
1549.74,99.7630428571429
1551.7,82.30222857142861
1553.67,101.27120476190484
1555.63,102.14646666666675
1557.59,127.9763857142858
1559.55,136.18974761904772
1561.5,144.35905714285724
1563.46,133.2946238095239
1565.41,124.18771904761911
1567.37,99.46751428571433
1569.32,84.61137142857149
1571.27,82.42936190476199
1573.22,95.58986666666675
1575.17,123.85527619047626
1577.11,109.65545714285719
1579.06,94.51522857142861
1581.0,85.19797619047624
1582.95,85.84741904761911
1584.89,94.60779523809532
1586.83,115.14683809523815
1588.77,107.41843809523817
1590.7,115.13815238095246
1592.64,140.40269523809533
1594.58,169.97517142857168
1596.51,166.9999428571431
1598.44,104.64510952380954
