Raman Shift,Processed Intensity
331.095,91.89017352380934
333.909,37.25215399999986
336.721,4.36413657142846
339.531,-14.321128761904772
342.339,-49.89884438095241
345.145,-18.154145809523783
347.949,4.771643476190488
350.751,18.83350657142859
353.55,40.320764809523816
356.348,33.23810657142856
359.144,-21.12301576190475
361.937,1.9109644761904967
364.729,27.72918571428576
367.518,58.483547619047705
370.306,117.61320000000012
373.091,223.46303809523826
375.874,286.37900000000013
378.656,333.8513333333335
381.435,316.8957904761906
384.212,242.1001952380953
386.988,121.29218857142862
389.761,55.0622385714286
392.532,14.621081904761937
395.301,17.27622809523812
398.068,17.765244761904775
400.833,21.398289999999996
403.596,5.486981428571422
406.358,1.9156952380952519
409.117,-4.048793809523816
411.874,-1.8050504761904875
414.629,-28.75018428571431
417.382,-32.08947333333333
420.133,-33.78868095238093
422.882,15.235442857142926
425.629,87.82953333333344
428.374,166.0317380952382
431.117,205.21490000000014
433.858,244.84817142857156
436.597,223.21157142857152
439.334,216.34819047619064
442.069,201.01647619047628
444.802,165.49923809523818
447.533,171.98523809523823
450.262,196.28328571428585
452.989,213.25080952380966
455.714,263.5076190476192
458.438,255.62719047619055
461.159,207.3257142857144
463.878,186.2255238095239
466.595,155.901761904762
469.31,134.6922000000001
472.024,125.1732714285715
474.735,118.30306666666672
477.444,106.7066333333334
480.152,113.34278095238102
482.857,121.5517476190477
485.561,119.86448571428579
488.262,135.86033333333344
490.962,148.49966666666674
493.659,156.6956095238096
496.355,154.0281571428572
499.048,128.2206952380953
501.74,105.66317619047626
504.43,121.50783809523817
507.118,122.52615714285724
509.804,131.0605142857144
512.488,179.35880952380967
515.17,209.4309523809525
517.85,207.90588095238107
520.528,174.69819047619058
523.204,160.5795476190477
525.878,142.75009523809535
528.551,162.1720714285715
531.221,166.90290476190486
533.89,156.90441904761914
536.556,127.56718095238102
539.221,119.04325714285721
541.883,102.29439047619051
544.544,68.47261428571433
547.203,60.34835238095245
549.86,82.0735095238096
552.515,115.84691428571436
555.168,139.29586190476198
557.819,120.04749047619052
560.469,108.77605714285721
563.116,119.86999523809531
565.761,140.6702000000001
568.405,176.46910000000008
571.047,199.55888571428582
573.687,202.5650000000001
576.324,201.159761904762
578.96,196.11104761904772
581.594,186.42380952380964
584.227,181.86514285714298
586.857,192.2010761904763
589.485,189.00755238095246
592.112,163.95481904761914
594.737,122.99887619047624
597.359,100.52343809523818
599.98,113.24563809523818
602.599,120.45309047619054
605.216,122.52887619047627
607.831,116.14088095238098
610.445,118.48078095238104
613.056,117.97774761904769
615.666,144.53699047619057
618.274,132.87250476190485
620.88,148.36486666666679
623.484,140.20348571428582
626.086,187.530342857143
628.686,215.39133333333348
631.284,255.16547619047634
633.881,241.56447619047628
636.476,226.82376190476202
639.068,222.17842857142873
641.659,225.24409523809538
644.249,220.20771428571442
646.836,194.68429047619057
649.421,125.43136190476196
652.005,76.58727142857148
654.587,60.337700000000034
657.166,33.05814285714288
659.745,39.12442380952384
662.321,36.959509523809544
664.895,35.98615238095242
667.468,48.674619047619075
670.038,45.685419047619064
672.607,37.250357142857176
675.174,44.55348571428573
677.739,27.493119047619057
680.303,12.491216666666672
682.864,7.493590476190476
685.424,-11.22073571428571
687.982,2.293957142857166
690.538,22.69767380952382
693.092,30.126704761904783
695.645,37.95539809523812
698.195,33.98677190476191
700.744,18.785767619047647
703.291,34.965028095238125
705.836,38.85154380952383
708.38,45.05816523809526
710.921,41.578724761904766
713.461,32.78814380952384
715.999,29.013830476190506
718.535,38.297610476190506
721.069,43.49097904761908
723.602,54.493202857142876
726.133,50.82276190476193
728.662,51.80784285714287
731.189,20.395847619047615
733.714,5.1534523809523956
736.238,11.171338095238116
738.759,32.826157142857184
741.279,49.161395238095274
743.798,87.36388571428577
746.314,93.62026666666671
748.829,93.45098571428576
751.342,82.6147047619048
753.853,87.63253809523815
756.362,79.9300952380953
758.869,85.93362380952385
761.375,78.8310666666667
763.879,75.38232380952385
766.381,61.299700000000044
768.882,62.200738095238144
771.38,80.7027571428572
773.877,81.28064761904766
776.372,78.59990000000005
778.866,84.46910000000003
781.357,69.03023333333336
783.847,50.33028095238099
786.335,50.36880952380956
788.821,56.954885714285766
791.306,71.56462380952387
793.789,93.67441428571433
796.27,95.71280952380958
798.749,106.44183809523817
801.227,108.29050952380959
803.702,130.2118000000001
806.176,141.15881904761915
808.649,169.89448571428582
811.119,170.51485714285724
813.588,160.78280952380962
816.055,162.88980952380962
818.521,164.3612857142858
820.984,157.4842000000001
823.446,143.02181428571436
825.906,116.26149047619054
828.365,80.58605238095245
830.821,89.18750000000009
833.276,122.40131904761914
835.729,148.03877619047628
838.181,154.10156190476198
840.631,144.9254190476191
843.079,118.79849523809531
845.525,110.00835238095246
847.97,122.46222857142864
850.412,93.97187142857148
852.854,95.3012952380953
855.293,100.50101428571433
857.731,85.00212380952387
860.167,77.80681428571432
862.601,60.679733333333346
865.034,30.861547619047652
867.465,51.59279047619053
869.894,68.35245333333336
872.321,46.61937476190479
874.747,54.34847809523813
877.171,40.82831095238098
879.594,51.53757809523816
882.014,92.43154142857149
884.433,114.08422000000006
886.851,111.73662380952388
889.266,133.72450476190485
891.68,148.43159047619056
894.092,144.00328095238103
896.503,153.01365714285723
898.912,157.7511000000001
901.319,150.64718095238104
903.724,160.60899523809536
906.128,193.35325714285725
908.53,169.69221428571439
910.931,155.05685714285724
913.329,138.11654761904768
915.726,126.58807619047626
918.122,119.95014761904771
920.516,135.01459047619053
922.908,114.92681428571434
925.298,113.40326666666674
927.687,113.30366190476198
930.074,121.91574285714292
932.459,110.52775238095246
934.843,120.90358095238102
937.225,97.9503190476191
939.605,101.52699047619053
941.984,76.96934761904765
944.361,93.85060000000009
946.736,108.12524285714292
949.11,110.3663571428572
951.482,104.05220476190482
953.853,94.13682380952385
956.222,57.71722857142863
958.589,68.93793809523814
960.954,86.6098714285715
963.318,85.78255238095247
965.68,107.26678571428579
968.041,123.68284761904769
970.4,116.07980476190481
972.757,94.74465333333337
975.113,62.0116461904762
977.467,32.64417619047621
979.819,14.023878571428588
982.17,9.818242619047625
984.519,6.2662966666666815
986.866,28.892607380952413
989.212,34.31677047619051
991.556,58.825275952381
993.899,85.13267666666673
996.24,97.33440476190484
998.579,112.19292857142864
1000.92,124.5178666666667
1003.25,97.88071904761908
1005.59,52.18647380952383
1007.92,43.62542380952385
1010.25,43.38768809523815
1012.58,80.75901428571436
1014.91,105.50088333333338
1017.24,121.5174714285715
1019.56,104.52275238095244
1021.88,107.61154285714294
1024.2,116.68770000000009
1026.52,157.4647714285715
1028.84,176.65633333333346
1031.16,190.1662857142858
1033.48,200.47004761904776
1035.79,206.8520952380954
1038.1,219.9779047619049
1040.41,251.70347619047635
1042.72,276.2182857142859
1045.03,251.9021904761906
1047.33,232.13480952380965
1049.64,185.00957142857155
1051.94,168.6206666666668
1054.24,175.20438095238103
1056.54,190.18804761904772
1058.84,186.95114285714294
1061.13,175.87295238095246
1063.43,149.5230000000001
1065.72,170.85261904761916
1068.01,158.66904761904772
1070.3,177.8754761904763
1072.59,177.13690476190487
1074.87,186.45147619047634
1077.16,196.76985714285726
1079.44,237.51876190476207
1081.72,240.55314285714303
1084.0,289.5380952380954
1086.28,322.1380952380955
1088.56,404.8279047619051
1090.84,502.74823809523843
1093.11,599.4685238095243
1095.38,633.0821428571433
1097.65,604.7300476190479
1099.92,524.7430952380955
1102.19,432.5010000000002
1104.46,375.8110476190478
1106.72,343.38557142857167
1108.98,349.46080952380976
1111.24,380.93942857142883
1113.5,415.34314285714316
1115.76,455.9087142857146
1118.02,492.39609523809554
1120.28,501.70800000000025
1122.53,509.50909523809554
1124.78,472.6548095238098
1127.03,417.09557142857165
1129.28,369.97271428571446
1131.53,321.23690476190495
1133.77,264.50552380952394
1136.02,245.53857142857157
1138.26,206.42980952380967
1140.5,198.8439523809525
1142.74,199.06528571428584
1144.98,210.09261904761917
1147.22,197.49552380952397
1149.45,206.891761904762
1151.69,216.04204761904774
1153.92,218.37328571428583
1156.15,199.97971428571438
1158.38,188.62214285714296
1160.61,163.2993333333334
1162.83,150.2956476190477
1165.06,137.7531476190477
1167.28,125.52803809523817
1169.5,102.71454761904768
1171.72,95.0736190476191
1173.94,99.3190952380953
1176.16,92.2118428571429
1178.37,77.13246190476195
1180.58,69.27107142857146
1182.8,43.29366190476193
1185.01,41.628483809523836
1187.22,42.98961000000001
1189.42,26.948277142857155
1191.63,18.028204285714295
1193.84,9.657991428571433
1196.04,5.218686190476219
1198.24,36.80573619047624
1200.44,83.99092380952388
1202.64,85.72700952380954
1204.84,77.39547714285717
1207.03,44.42558904761904
1209.23,17.056225714285734
1211.42,8.574030000000025
1213.61,29.17056380952382
1215.8,9.846967619047627
1217.99,25.60453904761907
1220.18,21.254233333333346
1222.36,29.36901904761907
1224.55,34.47438571428574
1226.73,40.2863342857143
1228.91,20.949620000000017
1231.09,23.990025714285725
1233.27,17.362049047619074
1235.44,42.781968571428614
1237.62,62.58556523809528
1239.79,78.96564380952384
1241.96,72.8770047619048
1244.13,69.32224285714291
1246.3,85.92288095238104
1248.47,129.8717857142858
1250.64,127.21950000000005
1252.8,127.58765714285721
1254.96,128.6933476190477
1257.13,147.5398285714287
1259.29,176.98679523809534
1261.44,216.89424761904772
1263.6,214.59880952380962
1265.76,211.86485714285726
1267.91,201.93390476190487
1270.06,209.9041523809525
1272.22,174.06427142857152
1274.37,153.70306666666676
1276.51,130.5858714285715
1278.66,120.57225714285723
1280.81,115.42779523809533
1282.95,133.39314285714292
1285.09,107.51920476190483
1287.23,122.42798095238102
1289.37,128.97974761904769
1291.51,130.74879428571435
1293.65,102.78598476190479
1295.78,69.23696476190479
1297.92,40.72367238095242
1300.05,36.58218380952385
1302.18,59.52971809523815
1304.31,78.04516571428576
1306.44,78.98834761904767
1308.57,85.02858571428578
1310.69,109.59719047619055
1312.82,116.60137619047629
1314.94,149.18648571428582
1317.06,160.49786666666677
1319.18,166.15690476190488
1321.3,192.642142857143
1323.41,205.813142857143
1325.53,233.43390476190493
1327.64,251.36361904761918
1329.75,257.74738095238115
1331.87,282.53947619047636
1333.98,278.9800952380954
1336.08,244.11861904761918
1338.19,227.62376190476203
1340.3,206.35423809523826
1342.4,223.59746666666683
1344.5,230.59330000000006
1346.6,206.34326666666678
1348.7,159.32493809523817
1350.8,125.7781333333334
1352.9,89.98954761904767
1354.99,93.34124761904768
1357.09,93.78723809523817
1359.18,106.80452857142863
1361.27,106.82271428571434
1363.36,103.65244761904766
1365.45,81.05634285714291
1367.54,86.7970857142858
1369.62,126.35180952380964
1371.7,169.8636142857144
1373.79,193.38073333333344
1375.87,218.28452380952393
1377.95,233.90866666666682
1380.03,235.06309523809534
1382.1,221.17647619047634
1384.18,198.10612380952387
1386.25,149.09011047619055
1388.33,103.98528904761909
1390.4,71.36283523809526
1392.47,45.746249047619074
1394.54,30.706592380952415
1396.6,26.14826523809526
1398.67,34.022900952380965
1400.74,26.377404761904785
1402.8,42.353823809523846
1404.86,44.52268095238097
1406.92,53.64483809523813
1408.98,50.38576666666668
1411.04,40.12518571428574
1413.09,31.62366666666669
1415.15,49.260609523809556
1417.2,55.51073809523814
1419.25,80.37242857142863
1421.3,99.41532380952384
1423.35,99.78044761904768
1425.4,82.60876190476193
1427.45,61.85050476190478
1429.49,42.93221904761907
1431.54,31.851704761904774
1433.58,17.08286190476192
1435.62,26.52807619047622
1437.66,41.23255238095241
1439.7,54.43183333333338
1441.74,58.123333333333356
1443.77,61.59009523809527
1445.81,62.59126190476195
1447.84,61.02881428571432
1449.87,64.61417619047623
1451.9,63.868233333333364
1453.93,58.454752380952435
1455.96,63.27554761904768
1457.98,100.61315238095247
1460.01,124.98833333333341
1462.03,138.25533333333343
1464.05,175.8397000000001
1466.07,211.97643809523822
1468.09,224.94800000000015
1470.11,249.79900000000018
1472.13,285.3832380952383
1474.14,268.17414285714307
1476.16,282.0260000000002
1478.17,281.17352380952394
1480.18,258.1850000000001
1482.19,217.1532857142858
1484.2,196.74153333333342
1486.21,143.09009047619054
1488.21,99.38670476190481
1490.22,66.43783333333337
1492.22,52.4313047619048
1494.22,44.174280952381
1496.22,51.80670000000005
1498.22,77.23119047619053
1500.22,79.25473333333338
1502.22,71.97028095238097
1504.21,42.232795238095235
1506.21,24.13542380952382
1508.2,0.723811904761917
1510.19,11.043838095238119
1512.18,27.046016666666695
1514.17,46.44301904761907
1516.16,37.423864285714316
1518.14,46.03473809523812
1520.13,49.03622380952384
1522.11,46.760464285714306
1524.09,35.96823809523811
1526.07,27.42040714285715
1528.05,24.44941904761908
1530.03,36.62575476190481
1532.01,60.805804761904795
1533.98,70.41740476190479
1535.96,67.0313666666667
1537.93,62.07564761904765
1539.9,55.93077142857146
1541.87,62.500995238095285
1543.84,60.928885714285755
1545.81,70.49966666666673
1547.78,92.54660000000005
1549.74,110.26015238095245
1551.7,121.11617142857152
1553.67,157.44801904761914
1555.63,165.54147619047626
1557.59,152.15814285714293
1559.55,164.96542857142867
1561.5,150.05842857142864
1563.46,162.770761904762
1565.41,160.62654761904767
1567.37,140.95923809523816
1569.32,125.00734761904772
1571.27,120.24789523809531
1573.22,98.39529047619055
1575.17,128.9740095238096
1577.11,143.0798857142858
1579.06,149.09432380952387
1581.0,167.92275238095243
1582.95,158.70890476190488
1584.89,149.5961904761906
1586.83,160.2521904761906
1588.77,170.9632857142858
1590.7,178.5877142857144
1592.64,165.50685714285723
1594.58,152.53138095238108
1596.51,144.70966666666692
1598.44,149.04254761904798
