Raman Shift,Processed Intensity
331.095,86.19517380952361
333.909,19.47506904761893
336.721,16.97611190476188
339.531,49.15558571428577
342.339,85.0657447619048
345.145,84.78299714285716
347.949,36.884824761904746
350.751,-7.669621428571441
353.55,-22.015430476190474
356.348,-33.953421428571424
359.144,-11.378532380952352
361.937,29.1011423809524
364.729,40.640397142857196
367.518,67.0141857142858
370.306,139.95134761904774
373.091,200.46738571428588
375.874,268.29293333333345
378.656,303.921942857143
381.435,275.8495876190477
384.212,183.09598047619053
386.988,82.58747047619049
389.761,22.060900476190497
392.532,9.539784761904787
395.301,2.049137619047631
398.068,15.329687619047629
400.833,22.36129523809524
403.596,4.601370476190478
406.358,3.7942680952380963
409.117,-7.885797142857169
411.874,-28.35859666666666
414.629,-8.78074476190474
417.382,20.930468095238126
420.133,41.573289523809564
422.882,70.184980952381
425.629,71.70897619047625
428.374,124.23275714285725
431.117,191.22541904761917
433.858,233.10960952380967
436.597,253.59440000000012
439.334,218.29473333333337
442.069,152.302561904762
444.802,130.7584095238096
447.533,118.04180000000008
450.262,134.43720952380966
452.989,181.65882857142867
455.714,213.84983809523823
458.438,203.10652857142867
461.159,163.2875333333334
463.878,136.9671857142858
466.595,132.7666761904763
469.31,133.68969523809534
472.024,139.12064761904767
474.735,113.44480952380957
477.444,86.61916190476197
480.152,87.17263809523816
482.857,97.91970476190482
485.561,95.24729047619054
488.262,117.82784761904772
490.962,141.04859047619058
493.659,156.6780476190477
496.355,148.2940571428572
499.048,126.85590476190482
501.74,84.4183952380953
504.43,83.32200000000006
507.118,104.90724285714293
509.804,124.46726666666676
512.488,165.81925238095246
515.17,185.63710476190485
517.85,183.976161904762
520.528,147.60597142857148
523.204,134.24794285714293
525.878,106.19545714285721
528.551,122.1230857142858
531.221,131.51401904761914
533.89,145.75673333333341
536.556,106.38222857142863
539.221,85.54025714285717
541.883,45.19022380952385
544.544,53.482161904761966
547.203,74.27964285714292
549.86,112.44642857142865
552.515,124.36980476190485
555.168,137.24626666666677
557.819,136.9389523809525
560.469,155.26328571428581
563.116,171.84373333333343
565.761,160.54297142857152
568.405,150.17518095238103
571.047,137.41202857142866
573.687,125.44822857142864
576.324,134.66920952380963
578.96,155.3166380952382
581.594,137.68028571428582
584.227,165.09633333333346
586.857,186.37804761904772
589.485,182.4802380952382
592.112,167.7390000000001
594.737,159.5845333333334
597.359,119.78110476190484
599.98,106.47282857142866
602.599,98.08994285714292
605.216,113.96635238095246
607.831,120.72213333333342
610.445,134.35727619047626
613.056,130.87205714285722
615.666,113.3614952380953
618.274,99.77749523809531
620.88,100.35715714285719
623.484,109.3378095238096
626.086,123.1465857142858
628.686,149.25825714285725
631.284,173.48012857142868
633.881,189.47710476190485
636.476,183.72266666666678
639.068,178.9287142857144
641.659,176.42609523809534
644.249,160.3068095238096
646.836,148.5672857142858
649.421,145.1093371428572
652.005,120.07200380952385
654.587,84.49946476190478
657.166,40.19745333333332
659.745,4.018788571428594
662.321,6.67363714285718
664.895,31.68164190476193
667.468,54.419546666666704
670.038,54.45438476190477
672.607,36.87695047619051
675.174,47.82574857142862
677.739,77.43893619047626
680.303,80.90242285714291
682.864,100.78300095238099
685.424,76.9808023809524
687.982,41.25306380952383
690.538,19.261910952380966
693.092,10.240596190476204
695.645,20.946371904761953
698.195,54.70790952380957
700.744,73.90153619047622
703.291,68.18930000000002
705.836,30.23331428571428
708.38,-8.209090476190449
710.921,31.66727619047626
713.461,86.14362857142865
715.999,123.54893809523817
718.535,142.30753809523816
721.069,115.3200190476191
723.602,75.67748571428578
726.133,72.28086190476195
728.662,79.22130952380958
731.189,69.73311333333338
733.714,53.24109666666669
736.238,43.979669523809555
738.759,44.61193666666669
741.279,42.563021904761946
743.798,45.59147761904765
746.314,82.31304190476196
748.829,91.29606190476196
751.342,108.15671904761912
753.853,131.74910000000006
756.362,124.35624761904765
758.869,75.2612666666667
761.375,52.31875238095239
763.879,21.907423809523827
766.381,7.406157142857176
768.882,29.146119047619088
771.38,59.50649523809527
773.877,65.96174761904764
776.372,64.74843333333337
778.866,49.817495238095255
781.357,42.0724285714286
783.847,54.083545714285755
786.335,54.51650285714288
788.821,47.32280095238098
791.306,43.54942571428574
793.789,60.1954676190477
796.27,104.64166952380961
798.749,149.79247428571438
801.227,170.79031428571437
803.702,175.15885714285724
806.176,187.9934285714287
808.649,222.2939047619049
811.119,242.10828571428584
813.588,237.38914285714299
816.055,205.32719047619054
818.521,172.35185714285723
820.984,141.1779714285715
823.446,116.56813809523815
825.906,100.38032380952387
828.365,102.28186190476198
830.821,110.60689523809533
833.276,142.2616238095239
835.729,149.15175238095242
838.181,133.27852857142864
840.631,90.54824761904766
843.079,80.4859571428572
845.525,75.71205714285719
847.97,90.94248571428577
850.412,89.51215714285716
852.854,85.3751047619048
855.293,55.43789523809528
857.731,72.36879580952385
860.167,60.88415390476193
862.601,51.938284000000024
865.034,42.580786095238125
867.465,47.0994125714286
869.894,50.87718247619053
872.321,75.2017767619048
874.747,59.31367142857145
877.171,48.453166666666704
879.594,45.28920476190479
882.014,42.586000000000034
884.433,51.91730000000005
886.851,63.90461904761909
889.266,84.64551428571437
891.68,114.19012857142863
894.092,123.54098571428578
896.503,110.31943809523816
898.912,121.90909047619054
901.319,109.6935476190477
903.724,140.3421000000001
906.128,147.8095857142858
908.53,143.76526666666675
910.931,139.116461904762
913.329,129.86572857142863
915.726,117.92046666666675
918.122,122.8072333333334
920.516,140.1476000000001
922.908,151.468061904762
925.298,149.15231428571434
927.687,104.67903809523816
930.074,92.5745047619048
932.459,84.55586666666676
934.843,89.76843809523814
937.225,89.45280952380958
939.605,69.70678571428574
941.984,50.62813333333338
944.361,62.93354285714291
946.736,78.3876904761905
949.11,56.4689523809524
951.482,55.65600952380956
953.853,43.95123333333337
956.222,48.88075238095243
958.589,69.68499523809527
960.954,80.1281285714286
963.318,57.45043333333336
965.68,51.035090476190504
968.041,37.931804761904786
970.4,42.23788571428575
972.757,62.09821428571432
975.113,60.943338095238104
977.467,35.537052380952396
979.819,33.40500476190478
982.17,26.31090000000002
984.519,20.58977619047622
986.866,32.67181904761907
989.212,57.654028571428626
991.556,80.9662552380953
993.899,87.70507666666671
996.24,85.77656285714289
998.579,73.41994714285718
1000.92,45.01725333333337
1003.25,59.90294333333338
1005.59,63.07766952380954
1007.92,49.113580952381
1010.25,52.20180000000004
1012.58,72.91422857142862
1014.91,76.9179447619048
1017.24,72.73702809523812
1019.56,43.84784190476192
1021.88,38.821952857142904
1024.2,54.230589523809584
1026.52,74.7881233333334
1028.84,106.97041619047627
1031.16,128.06297142857153
1033.48,135.06557142857153
1035.79,155.02552380952392
1038.1,179.8467142857144
1040.41,188.10000000000014
1042.72,192.78480952380963
1045.03,205.70980952380964
1047.33,195.5887142857144
1049.64,184.46833333333345
1051.94,174.39514285714296
1054.24,163.7490476190477
1056.54,154.48138095238104
1058.84,146.20971428571437
1061.13,139.31423809523818
1063.43,137.60314285714296
1065.72,156.59904761904772
1068.01,175.63409523809534
1070.3,182.03985714285724
1072.59,188.62433333333345
1074.87,185.62419047619056
1077.16,187.70428571428585
1079.44,198.24447619047632
1081.72,219.29066666666682
1084.0,224.79347619047635
1086.28,279.98933333333355
1088.56,363.7335238095241
1090.84,485.21471428571465
1093.11,575.2884285714289
1095.38,605.2384285714289
1097.65,528.9199047619051
1099.92,468.7120000000002
1102.19,399.94638095238116
1104.46,369.52576190476213
1106.72,348.9242380952383
1108.98,335.663904761905
1111.24,334.17104761904784
1113.5,388.25319047619075
1115.76,424.9085238095241
1118.02,470.80176190476215
1120.28,458.0259523809526
1122.53,437.9129523809527
1124.78,399.93638095238117
1127.03,348.5229523809526
1129.28,282.95628571428585
1131.53,257.99647619047636
1133.77,221.8316190476192
1136.02,214.41242857142868
1138.26,214.64133333333348
1140.5,212.135761904762
1142.74,199.4651904761906
1144.98,223.77071428571443
1147.22,212.76442857142868
1149.45,214.44466666666682
1151.69,213.38057142857153
1153.92,209.7609047619049
1156.15,220.72693333333348
1158.38,213.51479047619057
1160.61,172.69390476190486
1162.83,136.9772952380953
1165.06,111.17241904761912
1167.28,99.27782857142863
1169.5,92.10160952380957
1171.72,81.45147619047626
1173.94,96.37335238095244
1176.16,93.9135952380953
1178.37,97.88021904761911
1180.58,103.31957619047625
1182.8,92.65875238095244
1185.01,103.08681428571437
1187.22,123.41223809523815
1189.42,111.9672190476191
1191.63,94.46490571428575
1193.84,62.28534142857145
1196.04,42.427320952380995
1198.24,58.699406190476246
1200.44,82.19608761904769
1202.64,99.39273666666672
1204.84,105.81245809523813
1207.03,75.35938095238099
1209.23,63.55673619047624
1211.42,45.92791952380955
1213.61,44.80582000000004
1215.8,50.047280476190494
1217.99,24.98542000000001
1220.18,16.762943333333354
1222.36,23.522698095238102
1224.55,13.502833333333372
1226.73,44.79870952380958
1228.91,75.8391428571429
1231.09,95.76754285714293
1233.27,116.91751904761912
1235.44,116.81336190476196
1237.62,122.21761428571436
1239.79,108.84532857142862
1241.96,111.12610476190486
1244.13,139.29885238095247
1246.3,146.8884380952382
1248.47,160.7052904761906
1250.64,174.84555238095248
1252.8,178.4060952380954
1254.96,217.29295238095253
1257.13,242.12633333333346
1259.29,258.0032857142859
1261.44,253.63909523809536
1263.6,232.51166666666683
1265.76,234.1941904761906
1267.91,255.259761904762
1270.06,244.04376190476205
1272.22,238.3572857142858
1274.37,217.01166666666677
1276.51,199.05657142857154
1278.66,197.73204761904773
1280.81,217.5162380952382
1282.95,210.12571428571442
1285.09,178.4670000000001
1287.23,166.0188095238096
1289.37,160.7828380952382
1291.51,141.99979047619055
1293.65,133.67186666666674
1295.78,127.99182857142863
1297.92,108.9620095238096
1300.05,117.39464761904772
1302.18,140.76779047619056
1304.31,138.46480952380963
1306.44,145.5837142857144
1308.57,170.50771428571443
1310.69,192.42990476190488
1312.82,209.16223809523825
1314.94,225.99280952380965
1317.06,236.35247619047632
1319.18,236.05376190476204
1321.3,231.1943809523811
1323.41,239.5386666666668
1325.53,260.7080000000002
1327.64,292.18119047619064
1329.75,322.10352380952395
1331.87,320.3348571428573
1333.98,324.73476190476214
1336.08,323.68690476190494
1338.19,303.14619047619067
1340.3,279.3054761904764
1342.4,271.2145714285716
1344.5,240.39976190476204
1346.6,249.8159047619049
1348.7,247.37018095238105
1350.8,195.827061904762
1352.9,154.85550476190485
1354.99,136.2673190476191
1357.09,111.58869523809534
1359.18,141.5360142857144
1361.27,180.25437142857152
1363.36,210.7459047619049
1365.45,232.67933333333346
1367.54,221.67633333333345
1369.62,201.11952380952394
1371.7,202.48709523809538
1373.79,216.01947619047635
1375.87,260.0037619047621
1377.95,280.96557142857154
1380.03,288.85961904761916
1382.1,259.35390476190486
1384.18,208.92652380952393
1386.25,161.19833333333344
1388.33,131.78971428571435
1390.4,127.65417142857153
1392.47,129.46021904761912
1394.54,132.1137333333334
1396.6,119.28283809523815
1398.67,103.54026666666671
1400.74,96.88714285714292
1402.8,94.65760000000004
1404.86,91.32884761904769
1406.92,108.94945238095247
1408.98,99.61545238095245
1411.04,103.08960476190482
1413.09,101.37238571428576
1415.15,83.08331428571434
1417.2,94.93701428571434
1419.25,103.50553809523815
1421.3,97.8839714285715
1423.35,121.02514761904769
1425.4,127.26224285714292
1427.45,118.7380095238096
1429.49,111.88097619047625
1431.54,98.73855238095243
1433.58,89.21476666666675
1435.62,96.59504761904768
1437.66,103.02153333333338
1439.7,92.9696285714286
1441.74,75.247980952381
1443.77,46.95081904761908
1445.81,42.17222380952385
1447.84,43.387161904761946
1449.87,46.59422380952385
1451.9,57.41072380952386
1453.93,84.02572857142863
1455.96,114.2470857142858
1457.98,133.16799047619054
1460.01,145.45307619047625
1462.03,122.14774285714292
1464.05,118.58313333333344
1466.07,137.89987619047633
1468.09,194.6670666666668
1470.11,225.45361904761918
1472.13,256.7332380952382
1474.14,255.69361904761917
1476.16,248.09419047619056
1478.17,231.40833333333347
1480.18,218.68080000000012
1482.19,174.14675238095245
1484.2,141.0412190476191
1486.21,104.02797142857149
1488.21,70.77080000000005
1490.22,47.26690952380956
1492.22,48.560823809523846
1494.22,51.88745238095243
1496.22,68.76741904761909
1498.22,74.24542857142859
1500.22,47.98502142857144
1502.22,40.55471904761909
1504.21,39.71320714285717
1506.21,58.4574428571429
1508.2,61.165311904761936
1510.19,70.88161428571432
1512.18,71.4128428571429
1514.17,80.85135714285718
1516.16,74.336980952381
1518.14,88.7240590476191
1520.13,56.72410190476192
1522.11,55.382257142857185
1524.09,44.36247047619049
1526.07,29.51926761904765
1528.05,20.70735809523812
1530.03,50.686318095238136
1532.01,48.215724761904795
1533.98,67.34099619047622
1535.96,64.06001428571432
1537.93,67.32313809523814
1539.9,68.5093333333334
1541.87,90.85510000000006
1543.84,95.97745238095244
1545.81,107.11294761904767
1547.78,109.02167619047627
1549.74,113.89252380952388
1551.7,119.34338095238104
1553.67,129.89676190476197
1555.63,143.45590476190486
1557.59,162.92461904761916
1559.55,185.7774285714287
1561.5,189.77542857142868
1563.46,188.53685714285726
1565.41,169.10809523809533
1567.37,147.01223809523822
1569.32,140.62933333333342
1571.27,167.86338095238108
1573.22,168.80923809523821
1575.17,181.41847619047627
1577.11,179.35709523809535
1579.06,173.24409523809538
1581.0,178.45966666666678
1582.95,185.43214285714294
1584.89,185.20885714285725
1586.83,196.5037142857144
1588.77,194.7925238095239
1590.7,202.59933333333345
1592.64,209.35238095238108
1594.58,203.0755476190476
1596.51,183.79290476190485
1598.44,148.00461904761937
