Raman Shift,Processed Intensity
331.095,39.44556275240575
333.909,-34.057945364199895
336.721,-43.709206696154524
339.531,-13.674883992991454
342.339,34.97360592525092
345.145,51.09342941850855
347.949,35.97033994380854
350.751,33.12820578191395
353.55,66.8528234782616
356.348,133.57287414105167
359.144,211.47897497742542
361.937,229.28558797251253
364.729,223.51673809227577
367.518,262.69649339113766
370.306,327.15849273863523
373.091,380.90309259372
375.874,410.54975187428226
378.656,379.3846549219252
381.435,322.0750011334012
384.212,263.85948506823433
386.988,186.64353846111408
389.761,93.71361985332851
392.532,36.59436136706154
395.301,4.048572622540178
398.068,5.267720845668009
400.833,43.77669668993667
403.596,48.386199522306924
406.358,27.335599449100755
409.117,-7.849914943815747
411.874,-44.6926650413302
414.629,-55.952950678152774
417.382,-13.295710007109847
420.133,8.757100475821971
422.882,43.11221341875262
425.629,104.43837549044247
428.374,182.88062568324813
431.117,298.0126736129887
433.858,403.7416587711873
436.597,460.40338596778975
439.334,490.4766083929362
442.069,492.2496916311088
444.802,482.20156338957577
447.533,450.09694894111453
450.262,428.27208275721387
452.989,460.9680391888819
455.714,509.6640631474652
458.438,532.8394722140388
461.159,500.5927016059359
463.878,433.54606342899615
466.595,420.60764878695136
469.31,408.6379917955737
472.024,400.5929240730188
474.735,403.90452446824884
477.444,358.19540212280253
480.152,376.56440810398635
482.857,421.919966085688
485.561,429.36102207679824
488.262,461.5579941496421
490.962,482.7051507398264
493.659,484.9015603746684
496.355,500.6272794968595
499.048,540.7909688595605
501.74,586.6822718262706
504.43,668.3527640992543
507.118,714.7588082098723
509.804,776.0472651517725
512.488,840.5078726807433
515.17,935.478004566955
517.85,1018.009334609108
520.528,1107.8202149342887
523.204,1131.8194828692658
525.878,1152.0588392403574
528.551,1168.3995123875748
531.221,1199.2265412263914
533.89,1224.353534499984
536.556,1240.5940966981348
539.221,1235.190396833274
541.883,1234.289356264153
544.544,1204.7997889004623
547.203,1172.1543033122161
549.86,1147.6902524581938
552.515,1161.3163977000877
555.168,1217.7986204357026
557.819,1275.2837289702393
560.469,1338.156598720921
563.116,1376.6115981358985
565.761,1418.9859193750617
568.405,1481.6167185146628
571.047,1535.8887319424189
573.687,1584.3295118002216
576.324,1648.2760899982932
578.96,1684.1606898483815
581.594,1686.034532935047
584.227,1629.234503129806
586.857,1545.906953462421
589.485,1508.4838939445617
592.112,1482.1591793934795
594.737,1406.507554398519
597.359,1307.0560792400224
599.98,1211.1888891415692
602.599,1151.2900487603001
605.216,1115.6959304867773
607.831,1108.9809260781785
610.445,1094.6717297200585
613.056,1133.7235258500232
615.666,1234.8533198385321
618.274,1372.206602003047
620.88,1531.2621068602648
623.484,1708.4984771402587
626.086,1894.9656897053837
628.686,2058.4279100406156
631.284,2140.268251505786
633.881,2149.250677444959
636.476,2127.5676175815315
639.068,2028.8875844133213
641.659,1866.4980277029058
644.249,1638.8291413489096
646.836,1386.4538607334803
649.421,1134.849764831682
652.005,928.1133592732585
654.587,733.007692737734
657.166,571.0575923971346
659.745,449.83537554918667
662.321,382.3417993457506
664.895,344.5298676641082
667.468,313.114352263965
670.038,270.76226632540283
672.607,196.7595284630247
675.174,133.9633410258084
677.739,106.51647315887976
680.303,105.94249624622535
682.864,123.52673363912936
685.424,127.03054371794406
687.982,101.92941247766612
690.538,66.31771278018186
693.092,37.71822551126843
695.645,1.7011845471256493
698.195,17.884280927960845
700.744,22.64695689850805
703.291,57.60660491503404
705.836,67.76143534803123
708.38,91.01429906922749
710.921,79.60127194336883
713.461,88.85357265333005
715.999,113.19757576332313
718.535,152.91672954401383
721.069,135.2944261785865
723.602,139.80449101642853
726.133,97.68262420777091
728.662,62.40260424308235
731.189,12.866777206751522
733.714,-14.308215873983954
736.238,-20.93428310868876
738.759,-14.58520201385545
741.279,-14.73946511113627
743.798,29.69591985101897
746.314,34.29019958352228
748.829,37.42221484739139
751.342,19.470882901634013
753.853,-11.089558144097282
756.362,-38.880019262572205
758.869,-38.568935203944875
761.375,-8.919877285968596
763.879,15.256067806894862
766.381,3.766962803473689
768.882,2.89716081637107
771.38,6.264446312442942
773.877,18.248604654704195
776.372,57.658086882339376
778.866,75.87286496689967
781.357,104.51109659231724
783.847,101.7148375539532
786.335,117.86432558623437
788.821,150.5303594283696
791.306,184.33143979484157
793.789,225.60043415542123
796.27,288.4798129437472
798.749,349.3978381468569
801.227,442.40189475185707
803.702,536.7299174306936
806.176,586.9532457963437
808.649,626.0242415637695
811.119,635.8953342823065
813.588,603.757114687086
816.055,575.133570907612
818.521,532.6439913429949
820.984,443.76486753718973
823.446,373.0679875304186
825.906,334.8871006391669
828.365,281.7941060457083
830.821,248.55143186381474
833.276,236.06441420447436
835.729,216.1908190987433
838.181,200.50274537297992
840.631,191.19138466693857
843.079,144.97178145186444
845.525,106.93997400096578
847.97,89.85870678845959
850.412,77.01457146004304
852.854,86.55133827956297
855.293,75.99376376615555
857.731,87.05711261710758
860.167,98.07572724976126
862.601,96.33635924818418
865.034,78.12578652412321
867.465,67.96890666844092
869.894,38.29540173112173
872.321,58.72545062033441
874.747,55.87925102529789
877.171,55.615112767716255
879.594,52.45802734368999
882.014,43.21871365610559
884.433,42.803139937496326
886.851,73.59347424433872
889.266,77.0671301894422
891.68,107.03486029338546
894.092,127.49789695500476
896.503,153.933664850455
898.912,177.2005409513231
901.319,193.58547168559517
903.724,152.51825676529688
906.128,146.57154729984495
908.53,151.07989152844084
910.931,201.04449483818735
913.329,221.27607502029286
915.726,217.2996222881859
918.122,190.3067783432448
920.516,166.06059639291152
922.908,163.41934878784332
925.298,196.43176323050238
927.687,221.05130660278542
930.074,229.23142117461362
932.459,228.59218938394497
934.843,216.5631890929833
937.225,202.8120631300951
939.605,190.29213645078175
941.984,189.90908091769506
944.361,182.80662769970195
946.736,167.89037490904275
949.11,149.87540476230447
951.482,137.71485312234586
953.853,143.36181237355777
956.222,170.6264723923614
958.589,198.0332615177058
960.954,202.53513037870357
963.318,185.32307381750934
965.68,159.25470043124665
968.041,134.80661163773948
970.4,112.64582836029922
972.757,103.34407485536622
975.113,80.28253873062522
977.467,49.31853572502678
979.819,16.690269726904717
982.17,1.0644499349509715
984.519,16.060098495377588
986.866,65.15331231788036
989.212,88.10583453566505
991.556,115.91743723481386
993.899,121.5402089455622
996.24,94.35474689547232
998.579,91.59873021499357
1000.92,82.60501695253902
1003.25,77.84926489909844
1005.59,86.99755241284288
1007.92,78.47780876754177
1010.25,70.62267307241473
1012.58,73.52663890626309
1014.91,77.61748466589233
1017.24,87.84675153357466
1019.56,96.49926906356768
1021.88,110.43125219719286
1024.2,144.11792208744555
1026.52,149.7011269236
1028.84,141.13220085105195
1031.16,123.07672765307257
1033.48,124.58120919445855
1035.79,144.45401957947843
1038.1,181.6463593098092
1040.41,200.10939991866758
1042.72,195.17523812875538
1045.03,192.50927858163277
1047.33,185.39594990042633
1049.64,194.50061122872444
1051.94,208.67907781709073
1054.24,207.07286089529453
1056.54,202.68059802073458
1058.84,205.83424533161747
1061.13,204.58003170490315
1063.43,209.58322243806083
1065.72,205.98526388319647
1068.01,195.59426141452946
1070.3,198.4564097768182
1072.59,200.5702805766357
1074.87,241.07730024983834
1077.16,255.83318040998734
1079.44,265.1222053396309
1081.72,264.2286623387356
1084.0,273.05589112072084
1086.28,300.6500951132716
1088.56,396.00986704485535
1090.84,495.5623811979058
1093.11,577.544347566776
1095.38,597.2401088728243
1097.65,572.8864042461762
1099.92,509.43427576461863
1102.19,448.168117849644
1104.46,400.75329809105665
1106.72,372.09330188111426
1108.98,372.8059246677126
1111.24,390.60422611232843
1113.5,436.05843662891584
1115.76,484.02453058946617
1118.02,521.8347042914743
1120.28,601.0592824968273
1122.53,634.0305297325986
1124.78,599.2712234966016
1127.03,547.8756084153347
1129.28,475.41415992572433
1131.53,410.3145384330685
1133.77,377.9092101356432
1136.02,339.43544880169316
1138.26,324.98771849880427
1140.5,330.75577060898854
1142.74,375.2151217961414
1144.98,430.93657959255734
1147.22,459.5386251282955
1149.45,475.68741490816956
1151.69,474.8586873506406
1153.92,448.7187169457543
1156.15,411.4576493654622
1158.38,355.2656937168024
1160.61,302.2378862236437
1162.83,259.56456819415143
1165.06,227.43614970253043
1167.28,199.28120660410468
1169.5,170.95695850278435
1171.72,121.46355624233183
1173.94,103.32503606430328
1176.16,88.87503567074509
1178.37,68.87584362022812
1180.58,50.75649634292131
1182.8,46.37468467948611
1185.01,35.58818422948093
1187.22,43.39771427120081
1189.42,35.66122525294145
1191.63,0.8081898683760755
1193.84,-35.350867772839365
1196.04,-43.71960127827538
1198.24,-29.201547206271243
1200.44,8.585593899410242
1202.64,62.69090902391599
1204.84,85.54455396595472
1207.03,87.76727366153182
1209.23,100.5989701267265
1211.42,97.1367942099962
1213.61,114.5732373444871
1215.8,128.71993758605367
1217.99,136.86481898461943
1220.18,153.58161190791407
1222.36,170.39651622235442
1224.55,165.3120073310697
1226.73,176.2830231643045
1228.91,162.12172259839758
1231.09,137.73557720808958
1233.27,126.17498682835503
1235.44,102.6332760686173
1237.62,128.78002416029653
1239.79,166.8562995662685
1241.96,258.1984660188882
1244.13,347.5238933199207
1246.3,427.4547633785687
1248.47,513.089495297118
1250.64,649.1455990280053
1252.8,796.6263385547081
1254.96,992.2969188821512
1257.13,1179.8273396937827
1259.29,1337.3162013896022
1261.44,1494.7192730289485
1263.6,1583.4209174161454
1265.76,1603.424563805191
1267.91,1525.78127584254
1270.06,1435.4945099860686
1272.22,1274.7105882097599
1274.37,1137.861551660773
1276.51,982.2842047926952
1278.66,844.1248737845128
1280.81,713.1965459119665
1282.95,652.9312470141376
1285.09,579.2371808647983
1287.23,540.6415828294762
1289.37,508.52881161775485
1291.51,522.8070124641504
1293.65,547.2414469756511
1295.78,562.6925848840208
1297.92,579.4970529409529
1300.05,608.5628695275168
1302.18,652.9408697397882
1304.31,715.0627971411568
1306.44,789.8841574193843
1308.57,850.9794529960561
1310.69,919.1136081122143
1312.82,964.3372034378099
1314.94,1024.1769487763825
1317.06,1055.7309176745157
1319.18,1096.85902012652
1321.3,1106.3734752791238
1323.41,1098.5626174695012
1325.53,1016.3813689299564
1327.64,945.8798077307126
1329.75,844.4412595322201
1331.87,769.0680083850846
1333.98,679.9527218157139
1336.08,593.3355901976647
1338.19,519.3614661230015
1340.3,437.3655752022164
1342.4,355.96875067367773
1344.5,296.5060013464024
1346.6,221.93127001902826
1348.7,188.24600142259555
1350.8,188.35628159189173
1352.9,169.64426295109024
1354.99,165.34911320890274
1357.09,135.9003452061197
1359.18,75.1559086679083
1361.27,57.59266290849678
1363.36,48.544468583472735
1365.45,59.2974222992234
1367.54,82.37556741286403
1369.62,98.30280019676047
1371.7,138.6028712411612
1373.79,145.56129161872036
1375.87,168.701524763311
1377.95,178.59451168217333
1380.03,164.28724378710717
1382.1,156.8741928685256
1384.18,147.0211220218912
1386.25,105.39365847890622
1388.33,115.60967596251794
1390.4,107.3345341847787
1392.47,90.18584215423311
1394.54,68.40012624520614
1396.6,21.59473636232974
1398.67,-2.422628847308488
1400.74,-13.844396782019658
1402.8,-1.7202601046726613
1404.86,23.09044567539854
1406.92,32.823505903589876
1408.98,32.190780768911964
1411.04,49.2849711697213
1413.09,75.43676553182786
1415.15,146.786272340893
1417.2,238.6639764843501
1419.25,322.73360035523297
1421.3,369.61115543218625
1423.35,387.76970814519154
1425.4,395.1584314555846
1427.45,365.15498976939375
1429.49,298.32744766021483
1431.54,235.7199881158881
1433.58,171.47196411850996
1435.62,135.91314070063459
1437.66,116.70655604909803
1439.7,115.75328737074119
1441.74,111.24007390099746
1443.77,124.11551134104866
1445.81,138.80434153307488
1447.84,164.87412308788726
1449.87,162.36856867922438
1451.9,166.37897757613837
1453.93,178.56804912776693
1455.96,196.26512481953296
1457.98,255.0376208055427
1460.01,337.83388901240914
1462.03,433.17369729068855
1464.05,570.1006143282323
1466.07,728.8010612302
1468.09,942.8900297657451
1470.11,1220.1729910908853
1472.13,1510.693518757094
1474.14,1788.6856736246484
1476.16,2036.1454363950318
1478.17,2158.0688068099917
1480.18,2152.737521898233
1482.19,2055.100012317329
1484.2,1886.9142634575571
1486.21,1646.9382955933393
1488.21,1371.3111202251728
1490.22,1069.6479821358314
1492.22,781.6594109703894
1494.22,548.1036061495711
1496.22,417.5483455926278
1498.22,320.2281325354518
1500.22,243.28229472964472
1502.22,160.89784554634502
1504.21,101.40472603244211
1506.21,61.27580887154522
1508.2,45.46023567829184
1510.19,23.859611435506622
1512.18,15.899437026605028
1514.17,-5.470886803430403
1516.16,-10.920912629931763
1518.14,18.641809993381003
1520.13,27.357452216577713
1522.11,17.318670050625315
1524.09,-0.8103457612219245
1526.07,-10.412915110123322
1528.05,-20.586532935970126
1530.03,-19.476200390852682
1532.01,8.67795719441574
1533.98,32.635927271844594
1535.96,22.58637828247811
1537.93,35.19427548165618
1539.9,22.934211049989926
1541.87,34.99516277576345
1543.84,49.04239559447956
1545.81,61.45555360459343
1547.78,62.23341874991502
1549.74,60.089145692487136
1551.7,80.83121097117441
1553.67,137.6967431126361
1555.63,187.97056702800796
1557.59,230.7947246000649
1559.55,257.8351381275222
1561.5,241.99589281695762
1563.46,261.6097097509262
1565.41,288.53318076083156
1567.37,281.6705747283727
1569.32,257.59288198222475
1571.27,206.1568586947244
1573.22,148.93359508807703
1575.17,117.92279792626914
1577.11,130.36231110222457
1579.06,132.6328743201966
1581.0,136.115262730538
1582.95,145.61885513590187
1584.89,149.0006783879203
1586.83,142.49873749817175
1588.77,136.82725051104308
1590.7,98.93855004326701
1592.64,59.975461013931636
1594.58,41.91415456496634
1596.51,33.34985912447837
1598.44,32.44923813675632
