Raman Shift,Processed Intensity
331.095,75.07767418148933
333.909,-11.98920171243526
336.721,-0.36327737017745676
339.531,60.78878804294118
342.339,83.87177893570924
345.145,123.57621650666897
347.949,103.42598529305951
350.751,118.61167400550039
353.55,135.27629731504658
356.348,201.94387478311182
359.144,197.04324788662552
361.937,228.95570656700556
364.729,251.53880625531792
367.518,271.88828013553984
370.306,286.05233236019876
373.091,351.50783602793035
375.874,366.3508168753142
378.656,398.15360363538457
381.435,364.20293077708993
384.212,278.30946981619854
386.988,161.14117014997964
389.761,85.88993322524175
392.532,17.7478105158807
395.301,-12.426322309089755
398.068,-33.44009121750014
400.833,-27.33904488408689
403.596,-48.26379131929252
406.358,-34.87856673875467
409.117,-30.990283635280775
411.874,-35.54853692740289
414.629,-6.359899884753304
417.382,12.054919158882512
420.133,-5.77703659649751
422.882,28.052342019502703
425.629,38.641736415427204
428.374,81.94704867212522
431.117,153.06710074996545
433.858,251.67219515751503
436.597,319.00411261097497
439.334,346.5903954079072
442.069,329.6729165152419
444.802,322.7793058001539
447.533,312.4848524514132
450.262,310.31726454358386
452.989,306.090000029812
455.714,299.378454877457
458.438,334.7104369180238
461.159,347.804258744703
463.878,326.56873537183765
466.595,296.62699141817575
469.31,237.93550638537863
472.024,226.73649326985196
474.735,264.5578962222007
477.444,291.9276739209772
480.152,311.5642734226067
482.857,351.8051992494129
485.561,335.36891581098007
488.262,315.5453212540815
490.962,318.0528879792805
493.659,333.1338983956166
496.355,389.45920448481957
499.048,449.08060641314705
501.74,514.1451359051266
504.43,558.2283872363514
507.118,629.1916577500733
509.804,666.0867074214211
512.488,744.6795660406692
515.17,824.0219594441187
517.85,884.1655928878345
520.528,948.4954820404469
523.204,1053.348998261638
525.878,1091.3968186425582
528.551,1132.5476855700304
531.221,1195.6150710526786
533.89,1174.9362219994332
536.556,1154.134062640896
539.221,1153.831477903087
541.883,1111.2227396383314
544.544,1075.8830280942507
547.203,1101.1017629065645
549.86,1108.9302198061723
552.515,1158.3720044690854
555.168,1226.621145413993
557.819,1248.0144726140984
560.469,1268.4125675375462
563.116,1276.2473798544984
565.761,1276.807939382314
568.405,1300.192734697388
571.047,1359.6430441279504
573.687,1386.0191238897123
576.324,1428.8478247929443
578.96,1449.8463994257509
581.594,1450.970118861148
584.227,1441.2217941260596
586.857,1414.7470119560348
589.485,1346.1674657880385
592.112,1276.3428581818494
594.737,1212.704231812856
597.359,1181.3015861791537
599.98,1185.565780022912
602.599,1177.9751956565146
605.216,1186.293831860135
607.831,1191.7141586840548
610.445,1193.4761627272005
613.056,1255.5816305109015
615.666,1331.4608128050327
618.274,1457.5914699065515
620.88,1609.8798216799278
623.484,1762.7081642642465
626.086,1886.1729629707906
628.686,2035.5610404187164
631.284,2131.9210027659615
633.881,2210.9203802258844
636.476,2167.178958060061
639.068,2064.6021075711137
641.659,1921.6664980479068
644.249,1719.5153325202818
646.836,1480.1012025614064
649.421,1233.9956097568052
652.005,965.9603919352767
654.587,752.233435114114
657.166,588.2429568728899
659.745,432.51226591771683
662.321,338.5645216455073
664.895,294.6846365653696
667.468,265.63355967239113
670.038,246.17208363095642
672.607,171.34655671996006
675.174,126.53649953992726
677.739,101.78793600585414
680.303,94.0991052924237
682.864,101.94426901732095
685.424,92.60704223408447
687.982,60.70420061541563
690.538,57.13805906507332
693.092,18.42980271071565
695.645,10.100443073670704
698.195,25.956541891446705
700.744,-0.0050154314017163415
703.291,-4.644626214527307
705.836,6.320044870509719
708.38,22.36170021961425
710.921,58.14342415648616
713.461,82.23298417802744
715.999,94.1028487463168
718.535,98.17782412820543
721.069,117.59697694920715
723.602,146.64222341404138
726.133,124.2145375748023
728.662,77.07206436103024
731.189,58.92537546692756
733.714,18.96129666715069
736.238,6.938163704024191
738.759,-8.909398015720853
741.279,-41.01331277183226
743.798,-64.18632245284425
746.314,-44.76482590695605
748.829,-43.70410359100697
751.342,4.231212538366435
753.853,34.800473924432936
756.362,26.620345724275012
758.869,23.831470456025272
761.375,37.28894116991751
763.879,27.848012714577635
766.381,44.69743205093664
768.882,65.74038761376323
771.38,67.59450629223738
773.877,63.401374220054095
776.372,52.54081947028726
778.866,51.24995665502047
781.357,62.575564858305825
783.847,76.27884652150306
786.335,98.8830434714805
788.821,98.34010056785337
791.306,130.887805540704
793.789,180.1450240664044
796.27,274.73074436724073
798.749,373.8831218110445
801.227,467.6023330346279
803.702,550.2220014957966
806.176,619.3615754063035
808.649,642.6882294743368
811.119,667.9644809327142
813.588,663.0958055670862
816.055,607.1782537441268
818.521,548.879399773069
820.984,475.91452936246606
823.446,454.7133032674333
825.906,401.08642093689105
828.365,364.7494270179491
830.821,308.94175595552633
833.276,271.7124432586438
835.729,261.4915510524165
838.181,251.23302220148162
840.631,185.70039157627525
843.079,151.32392589073743
845.525,109.81966830192141
847.97,120.61800681911882
850.412,147.24462366536181
852.854,136.74906368654774
855.293,109.99044561770643
857.731,89.16126858735379
860.167,73.59693290756832
862.601,81.01383229263729
865.034,71.12839845865119
867.465,74.65709810404724
869.894,65.17357274730284
872.321,60.870540469386924
874.747,63.1312214657446
877.171,38.576954074461355
879.594,0.25766794729133835
882.014,26.50902388734403
884.433,55.571458448689555
886.851,47.68541901214212
889.266,98.6151702896293
891.68,112.22021987616904
894.092,128.45531523042087
896.503,166.46567875047526
898.912,178.4917666591664
901.319,147.77402788938798
903.724,149.36242487417007
906.128,126.1164305272282
908.53,154.56216808065574
910.931,160.03526520832747
913.329,161.63323195882253
915.726,160.97736249787886
918.122,128.06987494607756
920.516,110.10343216890533
922.908,101.46113875729588
925.298,84.14510943673554
927.687,104.68122795257023
930.074,141.7381916695881
932.459,168.8417942668491
934.843,204.04158938489536
937.225,184.91088760629282
939.605,160.26103915046065
941.984,156.47476418753968
944.361,169.45853077131096
946.736,197.11874229591604
949.11,203.5522106668725
951.482,198.42710566255982
953.853,163.12580905761456
956.222,113.55443541298496
958.589,74.90473381837091
960.954,58.368370587041454
963.318,53.23216433160974
965.68,67.35427342076105
968.041,79.02133581692692
970.4,90.18656129492001
972.757,82.85068080342216
975.113,56.58575296933191
977.467,49.963732506868155
979.819,27.080276721921337
982.17,17.84045677830136
984.519,16.72065944017686
986.866,33.24477725121437
989.212,53.74611483114768
991.556,65.60548736800479
993.899,82.53693815794622
996.24,88.63536090701655
998.579,73.51936012813303
1000.92,74.95030201426653
1003.25,91.73707959733315
1005.59,61.4027826689985
1007.92,49.6132724633751
1010.25,39.558137292107176
1012.58,21.903076750882747
1014.91,-4.16247597882375
1017.24,-1.2586842089594938
1019.56,25.66088598541978
1021.88,53.49974477117007
1024.2,91.54229076370893
1026.52,86.025242281293
1028.84,81.3757352659527
1031.16,76.21132596633811
1033.48,95.91142219198787
1035.79,121.90300028188926
1038.1,129.75584588255128
1040.41,120.03969948798567
1042.72,150.60997340825793
1045.03,161.2744211189879
1047.33,167.45980661085832
1049.64,169.73571659626373
1051.94,169.766944144528
1054.24,160.50396755522024
1056.54,140.3258101838503
1058.84,132.4209955056599
1061.13,137.21612122702982
1063.43,129.89967149212794
1065.72,143.3744005181311
1068.01,139.40019242091762
1070.3,132.92739723123987
1072.59,135.52540500614123
1074.87,149.14455327369933
1077.16,159.2589868587272
1079.44,170.81904151798994
1081.72,213.44172281352417
1084.0,252.6488040335696
1086.28,279.72397173254694
1088.56,330.5699712710384
1090.84,393.9467047367157
1093.11,483.99504315098807
1095.38,561.1415910565959
1097.65,555.5272606290205
1099.92,476.2453695974118
1102.19,407.1987867845769
1104.46,320.33803002790523
1106.72,309.28031648125716
1108.98,319.6905176787543
1111.24,339.7097336461909
1113.5,362.2410098695864
1115.76,418.52076854945335
1118.02,450.26166842649786
1120.28,503.0811788930248
1122.53,520.1206302948258
1124.78,489.90235947116184
1127.03,455.2820933899809
1129.28,410.11561849742907
1131.53,365.7349738768794
1133.77,329.18654916986566
1136.02,294.8025158303453
1138.26,288.6770202837315
1140.5,351.7614247049671
1142.74,425.7214525585073
1144.98,475.8895722335428
1147.22,501.8364282982791
1149.45,474.7994156113509
1151.69,429.9207772427683
1153.92,411.7237976329518
1156.15,365.73185289463163
1158.38,306.84936587664674
1160.61,250.45704694203323
1162.83,204.22142046039926
1165.06,167.57101796695883
1167.28,172.22019036918914
1169.5,159.40720586777002
1171.72,155.56091930609728
1173.94,107.72934628170378
1176.16,80.15109440052993
1178.37,52.87441357881812
1180.58,32.94767491643756
1182.8,-3.390150429793948
1185.01,-17.328536182308426
1187.22,-31.247303021849575
1189.42,-34.049949586965795
1191.63,-6.973175802222158
1193.84,15.746447467152848
1196.04,2.3962811273011084
1198.24,3.3114198301657325
1200.44,16.065162200045506
1202.64,5.7071003581047535
1204.84,33.85835265099149
1207.03,47.140131354048435
1209.23,40.50707288008948
1211.42,59.056758464369295
1213.61,66.5535205638364
1215.8,96.23796354209571
1217.99,153.35077006865754
1220.18,181.41841228008866
1222.36,183.91981532211685
1224.55,178.33397327269404
1226.73,155.42566030315265
1228.91,153.6263799346043
1231.09,171.41531429433394
1233.27,146.17646384838122
1235.44,118.34150141983582
1237.62,139.96119763570937
1239.79,177.37208446904015
1241.96,228.57740449528683
1244.13,319.9613934820575
1246.3,382.14642012169315
1248.47,476.9453638590969
1250.64,646.3139927195562
1252.8,823.9700078032411
1254.96,1034.250183017789
1257.13,1240.7294095727955
1259.29,1445.2206928552541
1261.44,1602.7751493049955
1263.6,1714.6820032901253
1265.76,1727.5638220776987
1267.91,1662.5669888996333
1270.06,1516.7902712567156
1272.22,1366.9038654130927
1274.37,1199.2446313669384
1276.51,1066.8160897258913
1278.66,945.5265138205759
1280.81,827.4746408657543
1282.95,737.5687164548028
1285.09,656.9550628637189
1287.23,601.5895044979741
1289.37,578.4278409584224
1291.51,575.9020343929176
1293.65,570.4440158955613
1295.78,581.5333014297491
1297.92,590.3636553702731
1300.05,630.4621349977956
1302.18,676.9271826123722
1304.31,737.0952890755368
1306.44,792.01718116192
1308.57,819.7435327203823
1310.69,855.1821044065855
1312.82,892.4310738917522
1314.94,930.0171279761876
1317.06,978.8954594647078
1319.18,1048.6878592801593
1321.3,1059.2065228626539
1323.41,1057.596904187849
1325.53,1014.4805697852319
1327.64,942.7647194230628
1329.75,845.880278221897
1331.87,806.1628459109595
1333.98,726.9479317988105
1336.08,670.38047545829
1338.19,617.414843601948
1340.3,533.0529221955571
1342.4,446.8203038097297
1344.5,373.76628449533405
1346.6,283.74957494463433
1348.7,219.77163070004235
1350.8,172.2147442676353
1352.9,145.60394675448106
1354.99,142.5117666488236
1357.09,154.74870288598527
1359.18,162.60131696188387
1361.27,147.40365837988702
1363.36,126.96583295480605
1365.45,123.95495206926716
1367.54,114.18084383484938
1369.62,119.88176425321808
1371.7,128.48629885345008
1373.79,123.94669290078787
1375.87,127.78646731968115
1377.95,162.48136795015853
1380.03,175.2212671851605
1382.1,158.9577798935818
1384.18,131.4994983909412
1386.25,103.51198931480349
1388.33,60.32731430973149
1390.4,60.753550712233846
1392.47,35.93193128333769
1394.54,1.813037611854952
1396.6,-29.747958863310487
1398.67,-14.753194904632437
1400.74,-8.585918083241722
1402.8,46.275230794629124
1404.86,68.63717162840908
1406.92,79.16381416813624
1408.98,59.757015610417966
1411.04,81.6518239086713
1413.09,114.08314965479804
1415.15,171.4762474846657
1417.2,209.54195938835142
1419.25,278.1814818299083
1421.3,322.05779953379556
1423.35,353.1195002236959
1425.4,369.172208408949
1427.45,355.2595429805144
1429.49,328.75836052121986
1431.54,305.2835224255316
1433.58,263.9259953526614
1435.62,206.01476120348525
1437.66,184.97396519269523
1439.7,157.41815915904976
1441.74,164.00944963752545
1443.77,155.12416974099347
1445.81,151.09097961331986
1447.84,151.90515735865802
1449.87,172.32384235169343
1451.9,172.6279452145518
1453.93,196.76501017466398
1455.96,246.58731551786673
1457.98,288.9471168986415
1460.01,362.60141445987665
1462.03,458.7833866193005
1464.05,609.7738238559109
1466.07,802.3773244011797
1468.09,1039.9699185016707
1470.11,1291.7847879197602
1472.13,1563.769414005785
1474.14,1822.6332019606587
1476.16,2077.180819384216
1478.17,2228.3122014902074
1480.18,2270.3082706070218
1482.19,2204.92617948792
1484.2,2031.685030811762
1486.21,1774.0563585884788
1488.21,1480.4165143264545
1490.22,1159.808577009434
1492.22,877.1804535496206
1494.22,641.2896459074373
1496.22,468.7984944017667
1498.22,350.5598972106693
1500.22,249.9030298721009
1502.22,184.91906478463784
1504.21,129.31831927962207
1506.21,91.23978464568836
1508.2,69.67970277233462
1510.19,75.63442850778551
1512.18,49.24329201685282
1514.17,32.97908018641465
1516.16,-1.1614819690987588
1518.14,-45.89582133079716
1520.13,-38.131701936509444
1522.11,0.794684877963391
1524.09,26.261577520078617
1526.07,40.6949731301454
1528.05,37.80671855628043
1530.03,12.023077519849949
1532.01,8.770440638047376
1533.98,8.046749732191302
1535.96,10.373874516972137
1537.93,21.79760833731484
1539.9,26.601950424889992
1541.87,49.07100720224685
1543.84,68.9651793012315
1545.81,63.52115810521127
1547.78,67.64239848178045
1549.74,83.51816294403761
1551.7,107.00447057376346
1553.67,159.38599832555974
1555.63,209.3760775690737
1557.59,232.25954777408697
1559.55,251.51180067179166
1561.5,252.7511577494015
1563.46,270.07220012570997
1565.41,284.37909842665385
1567.37,261.2903712323043
1569.32,233.90078638100636
1571.27,207.49564322589572
1573.22,173.97934060570492
1575.17,146.0182305298572
1577.11,140.27870995879107
1579.06,116.37959829857164
1581.0,112.08261013359947
1582.95,117.72092319741046
1584.89,120.00869872443627
1586.83,102.13631608747528
1588.77,106.1513217208801
1590.7,80.43461613897784
1592.64,71.12902190687214
1594.58,63.9488039921946
1596.51,53.44157106923785
1598.44,34.60731968022674
