Raman Shift,Processed Intensity
331.095,75.59568812024827
333.909,50.13674098963202
336.721,32.16580659457941
339.531,29.182892494340194
342.339,48.04516422379993
345.145,122.56219094796006
347.949,184.44833397354387
350.751,147.37037335585364
353.55,148.2332297437083
356.348,143.5133052720148
359.144,174.9727768352932
361.937,255.85007983738387
364.729,274.4789633697442
367.518,268.05040253259267
370.306,312.32689170844014
373.091,367.2138806927687
375.874,429.7597822532812
378.656,457.2035987367708
381.435,420.68921534266883
384.212,368.26540768229506
386.988,278.69537314763284
389.761,159.45673847057424
392.532,74.31299585360739
395.301,30.980177195725446
398.068,25.36495688978175
400.833,61.51704033413216
403.596,51.86726672997429
406.358,-27.105716692717124
409.117,-74.54211378259379
411.874,-79.91525762195306
414.629,-76.22208229780426
417.382,-16.88789011022527
420.133,26.94791806169951
422.882,39.86038767484979
425.629,55.75802953192078
428.374,113.21612763421263
431.117,184.61957545487485
433.858,292.82952812356416
436.597,369.99292355759644
439.334,403.1615274026417
442.069,393.43478749721726
444.802,366.8169740514659
447.533,358.74098649260986
450.262,400.73501745324893
452.989,451.3273119977671
455.714,491.6175935153865
458.438,480.46753723228494
461.159,433.2626722951327
463.878,395.10285528320765
466.595,397.2784580062189
469.31,398.2703648259471
472.024,375.55949378741116
474.735,346.9125082262117
477.444,337.90562361397906
480.152,356.8769858323835
482.857,410.21238278048804
485.561,418.25000360114154
488.262,434.42329314546123
490.962,460.97523500874286
493.659,472.33930123305345
496.355,479.9013543907554
499.048,531.5710734775607
501.74,570.734332186536
504.43,643.586529563062
507.118,740.5611587550407
509.804,792.1869471916566
512.488,842.3259491431008
515.17,952.4116382802854
517.85,1046.2584288060002
520.528,1121.0140537289035
523.204,1193.8262288518108
525.878,1236.080745331411
528.551,1256.1633717617797
531.221,1298.174137210271
533.89,1286.0225666343777
536.556,1306.95148772715
539.221,1294.346552048337
541.883,1307.4028990126594
544.544,1290.9346770209545
547.203,1300.9940884008224
549.86,1319.5856724425262
552.515,1375.5234455777422
555.168,1355.3356606059292
557.819,1384.6457563968956
560.469,1403.17235521241
563.116,1450.4435457421046
565.761,1554.4635470917474
568.405,1628.9984203905647
571.047,1671.0998756366603
573.687,1718.20050711386
576.324,1713.6376002371267
578.96,1693.7483669693952
581.594,1684.1556574288902
584.227,1650.8155762583451
586.857,1633.39843232755
589.485,1601.860164626385
592.112,1534.585196729276
594.737,1483.8150055453702
597.359,1394.4576424496654
599.98,1320.563921080814
602.599,1255.6131289484379
605.216,1238.0844533261652
607.831,1253.5998357160906
610.445,1316.4953977418127
613.056,1337.488105136702
615.666,1431.675765065505
618.274,1552.9179758268979
620.88,1764.407552746527
623.484,1998.099096927181
626.086,2209.8042306656384
628.686,2343.7154042980933
631.284,2455.83446495033
633.881,2515.782177668858
636.476,2508.1791751234696
639.068,2410.3126215955094
641.659,2211.802876966146
644.249,1910.4606368951272
646.836,1593.3821682376274
649.421,1314.6635920801332
652.005,1036.2104048715623
654.587,834.9279519353445
657.166,657.1499962195926
659.745,508.49585847583285
662.321,440.91803362821975
664.895,362.6069499998853
667.468,286.7528713964316
670.038,251.92684680847606
672.607,192.6997553522865
675.174,164.40420835327313
677.739,195.8964514294903
680.303,191.6039808608316
682.864,158.14458852967437
685.424,126.08826400436783
687.982,56.004810908430045
690.538,4.9400347183245685
693.092,-13.155688486388954
695.645,7.5725912614680055
698.195,17.979639771363964
700.744,32.87242194153123
703.291,34.39105728556251
705.836,38.53263455376509
708.38,27.675029769482535
710.921,32.24358492241754
713.461,45.33017146777274
715.999,71.16939947591482
718.535,104.51958868680367
721.069,148.32945385013727
723.602,136.50002816073402
726.133,133.78944383677344
728.662,112.38437936469882
731.189,76.99531626792259
733.714,36.380367304105675
736.238,9.392914186249072
738.759,-45.494564220035954
741.279,-26.571425604008255
743.798,-25.84122648871653
746.314,-36.92647015553666
748.829,-40.83049742587036
751.342,-73.12794887139353
753.853,-84.29808416717788
756.362,-34.296196682899335
758.869,0.7797261486516618
761.375,18.11757155879559
763.879,17.857765408279192
766.381,-15.954349561691743
768.882,-3.3685164307958075
771.38,13.660909389531298
773.877,41.846386026182245
776.372,46.04337291921547
778.866,33.39318526336638
781.357,25.275372259085998
783.847,75.2600953635656
786.335,106.87003035129192
788.821,138.00893604127123
791.306,211.0568896909158
793.789,259.72742715183267
796.27,328.2103973113326
798.749,470.88624510535783
801.227,570.2307707218993
803.702,631.9103649948806
806.176,695.2581971789932
808.649,679.0837360578712
811.119,649.815604385587
813.588,642.3587190424423
816.055,619.6180978574143
818.521,586.4036188115629
820.984,515.7633506699935
823.446,456.4121217090701
825.906,385.6362789198074
828.365,321.1984472112631
830.821,300.6232409948857
833.276,269.00678529266816
835.729,231.7309987500712
838.181,220.08263855370114
840.631,214.9199643966108
843.079,199.57749768170152
845.525,191.58030453463425
847.97,175.07256453104128
850.412,145.86518704277114
852.854,124.34057044128303
855.293,141.1668851105601
857.731,136.15521360288403
860.167,129.7357384136585
862.601,134.52916785145726
865.034,88.68006666999008
867.465,85.76161527148406
869.894,93.5375117672188
872.321,93.39054070471911
874.747,95.41780846161964
877.171,75.85931197285618
879.594,75.57412650548395
882.014,90.9927839096813
884.433,87.45060325070881
886.851,93.52102144086393
889.266,98.53940006191988
891.68,97.74587980661454
894.092,109.38061587251423
896.503,128.0647276416039
898.912,120.08601026462384
901.319,118.01797957874942
903.724,128.76748845383645
906.128,183.62234313867748
908.53,183.58463389295957
910.931,208.60882752399493
913.329,210.125574209163
915.726,186.89884765168517
918.122,166.16879952211548
920.516,184.27080437601944
922.908,166.49259980974693
925.298,164.02666471145085
927.687,164.06545465495174
930.074,163.84901824599183
932.459,156.6649944208698
934.843,168.5628954593576
937.225,169.7826757119069
939.605,176.70710985066398
941.984,175.8141711204853
944.361,185.43893339947408
946.736,189.297378021427
949.11,192.43877202684962
951.482,188.38852260445537
953.853,178.2910315326576
956.222,173.14778771631245
958.589,187.29355496155313
960.954,180.01541689348096
963.318,155.64801235004597
965.68,136.47829458545675
968.041,129.36457618787335
970.4,110.7365263780548
972.757,112.59516830800385
975.113,62.79859064532138
977.467,17.25242106232963
979.819,0.3383949632875556
982.17,16.62863849732412
984.519,34.74281044826739
986.866,48.538577493070534
989.212,66.87351970972941
991.556,93.27179798997167
993.899,105.06701192812807
996.24,125.21172437667246
998.579,135.18222409699501
1000.92,92.12138364828434
1003.25,78.55294584781905
1005.59,71.09581023127612
1007.92,53.89260522732002
1010.25,34.08587937980974
1012.58,29.389530665249822
1014.91,17.803092953096893
1017.24,46.94507008511846
1019.56,77.29103185950726
1021.88,102.55456895983252
1024.2,89.11586693160689
1026.52,71.926470635045
1028.84,49.84262012639192
1031.16,58.149062729734396
1033.48,66.9400079659506
1035.79,78.73817771975519
1038.1,96.20909450197814
1040.41,117.92298875946062
1042.72,111.21194428019476
1045.03,138.50323407464953
1047.33,151.22408482852575
1049.64,124.51596516503605
1051.94,115.47268343100632
1054.24,117.66419976867928
1056.54,108.23186675896113
1058.84,129.93605101703474
1061.13,122.34661193083593
1063.43,123.03338039953246
1065.72,117.89949471485215
1068.01,135.94330787099307
1070.3,146.25839011262656
1072.59,149.6049600543306
1074.87,155.21941103812287
1077.16,189.5762184433811
1079.44,189.4831803300881
1081.72,206.65284855826872
1084.0,234.5596741931481
1086.28,289.01143862458343
1088.56,393.14925611507533
1090.84,493.9713858715804
1093.11,551.237996498287
1095.38,535.3759304493817
1097.65,496.95489705324553
1099.92,443.40176077474894
1102.19,385.09578185849637
1104.46,335.8448093530253
1106.72,322.2662360397676
1108.98,307.4060486001065
1111.24,339.88168730624125
1113.5,426.6439533310963
1115.76,464.7389160582384
1118.02,501.4507727727412
1120.28,539.9208988282455
1122.53,561.0049930521086
1124.78,543.2254612457982
1127.03,547.3428473043225
1129.28,470.97488338328867
1131.53,397.83458768500304
1133.77,332.9207431969528
1136.02,312.7559954779108
1138.26,299.91066472975626
1140.5,361.8598912026316
1142.74,429.22173298104735
1144.98,483.28097805570087
1147.22,508.5605754429055
1149.45,516.535923446889
1151.69,486.5872531601733
1153.92,473.28534529729495
1156.15,435.96296131423355
1158.38,386.00056024213836
1160.61,339.1596345686655
1162.83,264.96366516693615
1165.06,195.65050479592355
1167.28,145.64857112465143
1169.5,97.19589689924032
1171.72,89.14965630044571
1173.94,99.5099770154768
1176.16,69.08660945267025
1178.37,39.16559595616832
1180.58,-7.205012360358069
1182.8,-9.73896258950731
1185.01,-3.5784641488087345
1187.22,-4.008472699194726
1189.42,-14.170975088738032
1191.63,-19.303084193472387
1193.84,-17.451324654318114
1196.04,-2.0906820396564854
1198.24,10.875393510090817
1200.44,4.924505547943909
1202.64,14.058162697775288
1204.84,53.51605972932839
1207.03,78.34750200862209
1209.23,81.93521235890717
1211.42,76.09056649305808
1213.61,64.62501892215073
1215.8,70.8739098164192
1217.99,115.55360519955457
1220.18,150.80911333347694
1222.36,195.9283677697722
1224.55,204.53270087731016
1226.73,191.19588879844196
1228.91,168.2060535480507
1231.09,159.27994606498055
1233.27,142.22961021585047
1235.44,149.62904679886333
1237.62,161.86182992856925
1239.79,195.9782472301556
1241.96,241.3619638432565
1244.13,335.01573404482065
1246.3,454.13282715768537
1248.47,607.0017867924937
1250.64,782.4349996134165
1252.8,993.530597437207
1254.96,1164.1962640941645
1257.13,1381.2444708605217
1259.29,1617.2972357003562
1261.44,1810.214692031317
1263.6,1941.6188955855857
1265.76,1980.0842979375116
1267.91,1885.7091724121901
1270.06,1761.3537066607194
1272.22,1602.306666664026
1274.37,1417.4282512128832
1276.51,1234.0072321022226
1278.66,1050.8085705159128
1280.81,885.6924619829774
1282.95,787.6619527623739
1285.09,707.7676990849202
1287.23,662.107964490461
1289.37,665.0667124031231
1291.51,666.3612225160946
1293.65,664.9944690811685
1295.78,680.1122611030446
1297.92,698.6222872955377
1300.05,726.1464943711217
1302.18,819.1163224733268
1304.31,887.010797751991
1306.44,945.832720176616
1308.57,992.203898968759
1310.69,1041.1270547011068
1312.82,1078.4143880632055
1314.94,1134.9256724367192
1317.06,1175.1396798040196
1319.18,1215.3922733234458
1321.3,1233.495452285515
1323.41,1258.8802065929394
1325.53,1215.3107998120759
1327.64,1099.8847665100752
1329.75,978.9376714968098
1331.87,854.3764404953554
1333.98,747.6793574791541
1336.08,691.515109628217
1338.19,643.8380227615226
1340.3,583.1737729598854
1342.4,506.7146219983538
1344.5,410.08131944527213
1346.6,296.7992904756361
1348.7,229.87006177967487
1350.8,214.86649699525287
1352.9,201.5518416640689
1354.99,191.30829199738946
1357.09,172.51794459416215
1359.18,147.84850806389068
1361.27,144.96758607808397
1363.36,149.35219851693682
1365.45,129.66973118744772
1367.54,148.6826950653367
1369.62,152.72491410839757
1371.7,167.13009402222588
1373.79,172.08896245451865
1375.87,180.50640918938052
1377.95,171.7157691987618
1380.03,192.24072474152695
1382.1,180.84292174822372
1384.18,190.2362528725289
1386.25,157.80114054268665
1388.33,132.2512009653276
1390.4,112.49038431977442
1392.47,80.08916257138503
1394.54,35.33214585633641
1396.6,36.17046077116106
1398.67,-4.683014194850557
1400.74,-18.420314276035015
1402.8,-0.5193359833835984
1404.86,1.351405289546392
1406.92,20.761348863559988
1408.98,54.47027183689261
1411.04,83.5235294399713
1413.09,113.34729757875198
1415.15,171.74857728282245
1417.2,246.91519915350386
1419.25,326.84439924051935
1421.3,392.67615682343467
1423.35,445.3122464788046
1425.4,465.41624252827864
1427.45,415.08019015337777
1429.49,375.96746698644984
1431.54,294.5985018444958
1433.58,247.06506489155845
1435.62,215.1731292296913
1437.66,200.0143039184959
1439.7,191.44202889942108
1441.74,197.07157944387814
1443.77,173.51816583944446
1445.81,168.4445568855981
1447.84,150.9420367227824
1449.87,169.24469499480983
1451.9,191.6818122493546
1453.93,205.67786438606527
1455.96,254.18109853324972
1457.98,291.80639463884495
1460.01,364.3114603947174
1462.03,496.45397854191174
1464.05,650.0392303663784
1466.07,825.5867668137473
1468.09,1076.0446986517225
1470.11,1354.1706532991445
1472.13,1676.3889221312475
1474.14,1990.5999887372986
1476.16,2267.9900571782314
1478.17,2456.6977231014243
1480.18,2563.8139781888167
1482.19,2537.096500319295
1484.2,2359.9220389691864
1486.21,2035.905467279417
1488.21,1645.3759769798087
1490.22,1299.615178075288
1492.22,996.0475794844747
1494.22,752.9072601544487
1496.22,555.1902544612465
1498.22,401.940270943679
1500.22,269.58203008477585
1502.22,209.01650685512982
1504.21,143.33522087528922
1506.21,101.29643134005346
1508.2,72.03942718086978
1510.19,78.65596008537022
1512.18,73.8569156121439
1514.17,56.496127162650964
1516.16,45.80847566742227
1518.14,20.171798796066923
1520.13,-16.797866499380007
1522.11,-14.389136679214062
1524.09,7.299960927290385
1526.07,16.31437177492535
1528.05,31.746777217643057
1530.03,11.880452861737467
1532.01,-14.667873080969002
1533.98,-23.852780487559812
1535.96,-8.390632304166957
1537.93,13.478520377822406
1539.9,36.80045928926347
1541.87,40.43060480279769
1543.84,65.27210746668516
1545.81,55.56155858625175
1547.78,68.63089128152751
1549.74,98.90737678297842
1551.7,144.00885882247894
1553.67,171.26755945285868
1555.63,207.06340867696872
1557.59,234.30023121960767
1559.55,286.07240948992785
1561.5,325.4267846390808
1563.46,340.505509998806
1565.41,326.0698569009803
1567.37,290.88116335430414
1569.32,273.79606843527495
1571.27,279.3855562029696
1573.22,248.1730472328743
1575.17,243.11058538880934
1577.11,217.2455007853298
1579.06,160.38707275012212
1581.0,129.6303356435492
1582.95,115.97512277343253
1584.89,108.13558650031018
1586.83,135.25448024745333
1588.77,153.80791670136136
1590.7,136.22441172653998
1592.64,117.98011875646648
1594.58,72.71787270836921
1596.51,38.628138659911656
1598.44,37.044246240153825
