Raman Shift,Processed Intensity
331.095,85.64982761904724
333.909,4.1909538095234495
336.721,-11.04254476190502
339.531,7.555348571428587
342.339,11.875817142857137
345.145,2.1917561904761698
347.949,-31.793362857142892
350.751,-60.993452380952405
353.55,-69.41588095238099
356.348,-61.82815714285715
359.144,-49.04350238095239
361.937,-12.397061904761886
364.729,20.254245238095287
367.518,62.674033333333426
370.306,134.43770238095254
373.091,269.6463428571431
375.874,401.5932571428574
378.656,428.4780952380954
381.435,407.88343809523826
384.212,294.58391142857147
386.988,164.92769238095244
389.761,72.83615619047623
392.532,40.85136476190477
395.301,-17.29257714285712
398.068,-3.14543619047618
400.833,16.602063809523827
403.596,15.59414285714286
406.358,17.571990476190493
409.117,10.897542857142842
411.874,-11.589328571428567
414.629,8.714642857142888
417.382,20.08125714285715
420.133,12.069495238095268
422.882,49.811323809523856
425.629,96.24980952380963
428.374,140.18661428571443
431.117,236.9960095238097
433.858,281.81596190476205
436.597,287.6899523809526
439.334,269.2818571428573
442.069,238.30476190476205
444.802,210.75814285714304
447.533,208.2140952380954
450.262,240.5316666666668
452.989,279.4273809523811
455.714,298.238142857143
458.438,264.30180952380965
461.159,235.19470476190483
463.878,158.49432380952385
466.595,120.1119333333334
469.31,90.91210476190481
472.024,98.75991428571434
474.735,80.33056666666673
477.444,107.87090476190485
480.152,127.10509047619058
482.857,159.61400952380964
485.561,198.55152857142872
488.262,241.2135809523811
490.962,209.37343333333342
493.659,194.08977142857154
496.355,157.99356666666677
499.048,134.81086666666675
501.74,120.22071904761911
504.43,126.3298857142858
507.118,124.43695238095248
509.804,154.17304761904776
512.488,204.1220952380954
515.17,274.4396666666668
517.85,308.23328571428584
520.528,313.51485714285735
523.204,287.1068571428573
525.878,228.30700000000013
528.551,201.36580952380965
531.221,187.86652380952393
533.89,173.2018095238096
536.556,151.81170476190482
539.221,123.61253809523815
541.883,98.75850476190483
544.544,107.45079523809531
547.203,110.1761714285715
549.86,109.80225238095247
552.515,138.3390380952382
555.168,190.93895238095251
557.819,207.89752380952393
560.469,210.6519523809525
563.116,211.7824285714287
565.761,189.72576190476204
568.405,200.77538095238108
571.047,227.46238095238107
573.687,203.50828571428585
576.324,187.49138095238106
578.96,191.41776190476202
581.594,189.38833333333346
584.227,208.3604761904763
586.857,221.76733333333343
589.485,205.37514285714298
592.112,198.7596666666668
594.737,181.5907142857144
597.359,197.4903809523811
599.98,200.31800000000013
602.599,202.31338095238107
605.216,205.0021142857144
607.831,183.7184476190477
610.445,166.89137142857152
613.056,164.37807619047624
615.666,152.03537142857152
618.274,155.29063809523822
620.88,192.7143523809525
623.484,204.44757142857156
626.086,243.0595714285716
628.686,299.7857619047621
631.284,369.90890476190503
633.881,425.9014285714288
636.476,458.4262380952383
639.068,445.09842857142877
641.659,382.4846190476192
644.249,326.77042857142874
646.836,297.6174285714287
649.421,249.73433333333347
652.005,216.59165714285726
654.587,149.9452428571429
657.166,76.74112380952386
659.745,37.97275714285718
662.321,36.91948571428574
664.895,36.574616190476235
667.468,46.02664714285715
670.038,39.22092761904764
672.607,29.864820476190484
675.174,10.33225952380953
677.739,8.378139523809551
680.303,34.75735571428575
682.864,56.89148285714291
685.424,77.77360333333337
687.982,84.39683428571432
690.538,70.61147619047622
693.092,56.02983809523813
695.645,50.931052380952416
698.195,39.54668095238096
700.744,22.7751523809524
703.291,10.80068
705.836,0.8552919047618988
708.38,-4.304992380952379
710.921,-11.590606190476192
713.461,-5.387949523809506
715.999,15.631049047619063
718.535,26.175584761904794
721.069,57.955180952381006
723.602,84.63181904761908
726.133,95.58203219047623
728.662,84.46827790476192
731.189,51.85792247619049
733.714,29.842361142857172
736.238,23.56083676190478
738.759,36.390706476190516
741.279,59.56683695238098
743.798,79.0384190476191
746.314,75.70720952380957
748.829,77.85608571428574
751.342,42.81570476190478
753.853,54.29760190476195
756.362,44.77581619047622
758.869,49.53376571428574
761.375,53.23599333333336
763.879,49.69002761904764
766.381,53.60837809523815
768.882,89.75095904761909
771.38,90.59251428571432
773.877,64.98864761904764
776.372,68.41419047619051
778.866,50.439323809523856
781.357,68.34856190476197
783.847,85.85522380952385
786.335,94.10139047619053
788.821,90.32425714285722
791.306,108.04691428571435
793.789,113.98329047619058
796.27,139.7515523809525
798.749,141.92314285714295
801.227,158.87857142857155
803.702,182.85590476190487
806.176,213.80723809523826
808.649,249.78047619047632
811.119,245.25180952380964
813.588,197.602761904762
816.055,156.54752380952388
818.521,143.37257142857155
820.984,167.45914285714298
823.446,189.9032857142858
825.906,191.5627142857144
828.365,189.62914285714297
830.821,173.10285714285723
833.276,170.60404761904772
835.729,159.13385714285724
838.181,136.55066666666676
840.631,139.52185714285724
843.079,146.1444761904763
845.525,139.46695238095248
847.97,144.25299047619055
850.412,126.2661714285715
852.854,110.79377142857147
855.293,82.88481428571433
857.731,76.16031333333338
860.167,50.14552047619051
862.601,54.98527904761909
865.034,53.395808095238124
867.465,53.04571714285718
869.894,62.84186809523816
872.321,94.69118000000006
874.747,125.88140952380962
877.171,157.50998095238106
879.594,158.8648857142858
882.014,131.04372380952387
884.433,110.1440666666667
886.851,96.0255238095239
889.266,127.69052380952391
891.68,173.95097142857156
894.092,207.38093333333347
896.503,227.88776190476204
898.912,202.378761904762
901.319,170.5710000000001
903.724,183.1339523809525
906.128,208.35604761904776
908.53,223.71628571428582
910.931,230.5030476190477
913.329,215.62380952380963
915.726,206.98619047619064
918.122,199.64090476190486
920.516,185.06723809523822
922.908,170.36309523809533
925.298,154.76974285714294
927.687,157.6234000000001
930.074,136.97471428571433
932.459,98.35057142857147
934.843,53.801757142857184
937.225,49.997676190476255
939.605,76.46544285714293
941.984,98.68435238095243
944.361,94.46707619047625
946.736,88.7215285714286
949.11,75.59353809523816
951.482,83.18153809523815
953.853,106.86957142857149
956.222,80.08944761904763
958.589,62.79665714285718
960.954,35.3276666666667
963.318,66.59036190476198
965.68,87.34980000000006
968.041,114.1804666666667
970.4,81.13307142857145
972.757,54.2106523809524
975.113,40.89243809523814
977.467,36.99098571428573
979.819,32.74709523809526
982.17,30.877833333333335
984.519,34.004900000000035
986.866,35.464161904761944
989.212,60.400952380952404
991.556,59.05557142857148
993.899,83.14451428571435
996.24,87.76486190476196
998.579,96.29937619047622
1000.92,75.60679047619053
1003.25,70.16468571428575
1005.59,92.59350476190484
1007.92,111.32300476190483
1010.25,110.44930000000006
1012.58,91.25900952380957
1014.91,78.65750952380958
1017.24,81.59774285714293
1019.56,129.27069047619057
1021.88,138.9145571428572
1024.2,123.76760000000007
1026.52,108.0677238095239
1028.84,130.14846666666676
1031.16,146.34297142857156
1033.48,183.74576190476202
1035.79,215.40416190476208
1038.1,248.07938095238111
1040.41,291.4370476190478
1042.72,336.90566666666683
1045.03,332.91233333333344
1047.33,306.4084285714287
1049.64,261.9167142857144
1051.94,250.8166190476192
1054.24,240.4879047619049
1056.54,237.02471428571442
1058.84,243.7585714285716
1061.13,239.97357142857152
1063.43,206.38200000000012
1065.72,213.553761904762
1068.01,210.10604761904776
1070.3,215.79890476190494
1072.59,235.34476190476207
1074.87,258.12228571428585
1077.16,273.65300000000013
1079.44,282.8398095238097
1081.72,311.87076190476216
1084.0,341.1245238095241
1086.28,386.979666666667
1088.56,506.1954761904766
1090.84,647.10280952381
1093.11,732.556428571429
1095.38,791.7921904761909
1097.65,741.8547142857146
1099.92,637.3131904761908
1102.19,552.5453333333336
1104.46,498.3106666666669
1106.72,445.3207142857146
1108.98,446.5731904761908
1111.24,458.87414285714317
1113.5,500.0308095238099
1115.76,566.9924761904765
1118.02,620.2803333333337
1120.28,638.6057142857146
1122.53,611.0614285714289
1124.78,571.2154285714289
1127.03,514.493904761905
1129.28,447.1320000000003
1131.53,383.26990476190497
1133.77,337.80938095238116
1136.02,295.5096666666669
1138.26,271.4629523809525
1140.5,255.9050952380954
1142.74,244.59500000000017
1144.98,247.48247619047635
1147.22,276.231142857143
1149.45,318.12438095238116
1151.69,309.635523809524
1153.92,297.4287619047621
1156.15,262.54923809523825
1158.38,233.04227619047631
1160.61,197.6193238095239
1162.83,179.04023809523818
1165.06,128.58810000000005
1167.28,93.30814761904767
1169.5,64.05543333333338
1171.72,73.92321428571435
1173.94,83.14714761904769
1176.16,101.9634571428572
1178.37,89.7510904761905
1180.58,70.46055238095241
1182.8,61.85182380952386
1185.01,68.30417142857148
1187.22,88.7205952380953
1189.42,60.956771428571436
1191.63,31.39216190476193
1193.84,31.882671428571477
1196.04,71.1887333333334
1198.24,88.07147619047626
1200.44,133.4826476190477
1202.64,118.70710476190482
1204.84,108.22050666666672
1207.03,86.26066142857145
1209.23,63.63671476190477
1211.42,7.872692380952393
1213.61,4.968913809523821
1215.8,-2.0744685714285525
1217.99,29.647826190476223
1220.18,41.08883000000003
1222.36,44.96365619047622
1224.55,54.65411904761909
1226.73,65.20907142857148
1228.91,91.05828095238101
1231.09,110.86985238095241
1233.27,96.31194761904767
1235.44,81.57668095238101
1237.62,91.09425238095244
1239.79,91.77150000000007
1241.96,124.89616666666676
1244.13,140.37514285714295
1246.3,146.4011904761906
1248.47,184.16704761904776
1250.64,218.15123809523823
1252.8,235.21352380952396
1254.96,279.2615714285716
1257.13,306.53619047619065
1259.29,326.08771428571447
1261.44,367.29990476190494
1263.6,369.84252380952404
1265.76,344.8612857142859
1267.91,337.1691904761907
1270.06,321.48366666666686
1272.22,299.99823809523826
1274.37,284.2879523809525
1276.51,257.1180952380954
1278.66,219.9206190476192
1280.81,197.98466666666678
1282.95,205.3136666666668
1285.09,199.4825238095239
1287.23,183.11409523809533
1289.37,193.11690476190486
1291.51,199.4945142857144
1293.65,184.82196666666675
1295.78,169.29374285714295
1297.92,132.53212857142864
1300.05,100.92217142857153
1302.18,116.563061904762
1304.31,142.21975238095246
1306.44,167.89652380952393
1308.57,179.02571428571437
1310.69,170.99152380952393
1312.82,178.65523809523822
1314.94,212.2589047619049
1317.06,227.94876190476202
1319.18,248.01428571428585
1321.3,243.22085714285728
1323.41,264.3817619047621
1325.53,323.5956190476192
1327.64,370.3899523809526
1329.75,382.1970952380954
1331.87,389.02004761904783
1333.98,382.14800000000025
1336.08,396.489285714286
1338.19,394.0469523809526
1340.3,351.10980952380964
1342.4,274.2530952380954
1344.5,221.76523809523823
1346.6,205.45866666666677
1348.7,194.09828571428585
1350.8,179.401142857143
1352.9,178.7985238095239
1354.99,163.34090476190488
1357.09,153.12585714285723
1359.18,169.39428571428581
1361.27,189.67238095238108
1363.36,211.62880952380965
1365.45,221.7896666666668
1367.54,200.82366666666672
1369.62,180.01833333333346
1371.7,181.3756666666668
1373.79,203.6590952380954
1375.87,278.25109523809544
1377.95,323.81961904761926
1380.03,312.8423809523811
1382.1,310.7491904761906
1384.18,264.0647142857144
1386.25,211.0279523809525
1388.33,193.68713333333343
1390.4,144.70919523809528
1392.47,94.99939047619051
1394.54,67.70093523809525
1396.6,23.95669476190478
1398.67,13.05228476190479
1400.74,34.65383380952385
1402.8,63.85623238095244
1404.86,82.08733047619052
1406.92,72.10816380952383
1408.98,55.25103571428574
1411.04,27.943295238095267
1413.09,40.754940476190534
1415.15,77.06530952380959
1417.2,100.82529523809531
1419.25,116.31845714285721
1421.3,130.06680952380958
1423.35,123.63971428571435
1425.4,129.51080000000007
1427.45,102.43958571428577
1429.49,99.23312380952389
1431.54,116.98377619047628
1433.58,121.16531904761912
1435.62,129.5845857142858
1437.66,130.9525047619048
1439.7,94.21856666666673
1441.74,94.85556190476197
1443.77,90.2889428571429
1445.81,78.7536190476191
1447.84,69.15106666666671
1449.87,97.14439523809533
1451.9,130.77799523809534
1453.93,148.57190476190482
1455.96,131.80828571428577
1457.98,129.76936666666674
1460.01,139.1658380952382
1462.03,195.8987285714287
1464.05,260.1550380952383
1466.07,296.16890476190497
1468.09,358.6511428571431
1470.11,402.0741904761908
1472.13,432.0060476190478
1474.14,434.7761428571431
1476.16,387.04776190476207
1478.17,325.4362857142859
1480.18,280.03347619047634
1482.19,236.64519047619058
1484.2,207.8870285714287
1486.21,177.70790952380958
1488.21,148.771361904762
1490.22,115.50267619047622
1492.22,73.66050000000004
1494.22,55.194180952380975
1496.22,41.433828571428585
1498.22,14.090919047619057
1500.22,12.495866666666673
1502.22,10.1221142857143
1504.21,11.824185714285736
1506.21,38.980528571428614
1508.2,59.731585714285735
1510.19,52.88460952380954
1512.18,38.29456190476191
1514.17,32.62599333333335
1516.16,14.448360000000017
1518.14,15.426429523809535
1520.13,21.46317333333335
1522.11,29.033043809523825
1524.09,28.610638571428588
1526.07,17.051569523809526
1528.05,22.973388095238118
1530.03,25.470009523809555
1532.01,36.7305785714286
1533.98,42.89673333333336
1535.96,56.49132380952385
1537.93,53.17993809523815
1539.9,81.05665238095244
1541.87,90.07325714285719
1543.84,95.41940952380958
1545.81,90.95163333333339
1547.78,84.24082857142862
1549.74,98.28650476190484
1551.7,127.0402476190477
1553.67,152.07329523809534
1555.63,187.86177142857156
1557.59,215.16714285714298
1559.55,215.17976190476205
1561.5,209.56623809523822
1563.46,199.32652380952393
1565.41,178.60340952380963
1567.37,147.49271904761912
1569.32,129.61334285714292
1571.27,116.87037619047626
1573.22,120.16881904761914
1575.17,130.08047142857149
1577.11,120.12932857142866
1579.06,125.03050476190484
1581.0,141.9269857142858
1582.95,142.53398095238106
1584.89,146.18520476190486
1586.83,152.69080000000008
1588.77,152.43247619047634
1590.7,183.31604761904774
1592.64,198.05619047619055
1594.58,187.36845238095268
1596.51,183.75330952381017
1598.44,204.87809523809614
