Raman Shift,Processed Intensity
331.095,138.5175311714284
333.909,-10.031162342857272
336.721,-64.89153701428566
339.531,-59.12245194285714
342.339,-34.33080303809524
345.145,-15.980025123809517
347.949,19.44411989523812
350.751,41.83804535238098
353.55,51.33756029523811
356.348,42.46061758095239
359.144,20.72653666666668
361.937,16.513069523809566
364.729,39.77074428571434
367.518,79.40373714285724
370.306,150.17517142857156
373.091,256.46818571428594
375.874,371.4296476190479
378.656,454.9220190476193
381.435,420.28569047619067
384.212,315.6720047619049
386.988,163.85333809523812
389.761,30.698547619047634
392.532,-11.969109523809488
395.301,3.1990104761904985
398.068,9.648760476190503
400.833,31.399173333333326
403.596,-1.9098271428571767
406.358,-26.39828380952381
409.117,-28.089182380952394
411.874,-35.38455142857144
414.629,-15.541666666666663
417.382,-9.33975238095239
420.133,-6.222895238095202
422.882,14.7477428571429
425.629,78.7505380952382
428.374,161.77520000000015
431.117,228.76538571428586
433.858,286.5234952380954
436.597,302.3296666666668
439.334,267.8940000000002
442.069,231.8324761904763
444.802,205.4769523809525
447.533,182.6363809523811
450.262,218.16880952380973
452.989,271.5999523809526
455.714,320.2181904761906
458.438,290.4563333333334
461.159,237.31899047619058
463.878,164.81191904761914
466.595,111.18002857142866
469.31,104.85898571428581
472.024,144.9521523809525
474.735,151.13525714285723
477.444,155.98861904761912
480.152,129.99894761904767
482.857,125.84324761904772
485.561,146.00857619047633
488.262,179.69736190476203
490.962,185.111761904762
493.659,195.59709523809533
496.355,172.21414285714295
499.048,168.35609523809535
501.74,185.46500000000012
504.43,156.88742857142867
507.118,150.7796666666668
509.804,206.01219047619065
512.488,237.78961904761923
515.17,283.2203809523811
517.85,327.74704761904775
520.528,298.2877619047621
523.204,273.7609523809525
525.878,259.7515238095239
528.551,230.13004761904776
531.221,187.67152380952393
533.89,180.48447619047633
536.556,192.86704761904775
539.221,186.45109523809535
541.883,192.7251904761906
544.544,196.65338095238104
547.203,153.2000476190477
549.86,138.66214285714295
552.515,139.38371428571435
555.168,132.18533333333346
557.819,183.02976190476204
560.469,230.83147619047634
563.116,230.60004761904779
565.761,253.82028571428583
568.405,239.6436666666668
571.047,235.69747619047635
573.687,253.4653333333335
576.324,278.19233333333347
578.96,273.1708571428573
581.594,288.5496190476192
584.227,308.19123809523825
586.857,317.3865714285716
589.485,314.3301428571431
592.112,294.073523809524
594.737,280.0011904761907
597.359,255.97276190476208
599.98,239.60942857142868
602.599,237.53176190476205
605.216,268.1220000000002
607.831,239.7140952380954
610.445,242.4507142857144
613.056,216.9028095238096
615.666,167.68819047619058
618.274,163.37671428571443
620.88,223.0618571428573
623.484,244.74080952380967
626.086,295.6960000000002
628.686,343.1144761904764
631.284,384.8969523809526
633.881,432.1345238095241
636.476,476.77476190476216
639.068,472.7643809523812
641.659,444.0502857142859
644.249,400.6740000000002
646.836,328.5339047619049
649.421,279.33788571428585
652.005,205.50739047619055
654.587,149.79699047619056
657.166,92.6281523809524
659.745,59.66003333333336
662.321,15.837204761904772
664.895,-3.609804761904767
667.468,-19.30811428571426
670.038,25.877385714285765
672.607,54.89109047619054
675.174,111.39195238095245
677.739,129.7529047619048
680.303,93.34716190476195
682.864,80.97629047619053
685.424,70.77574761904765
687.982,53.45212857142862
690.538,66.66479523809527
693.092,84.59665542857147
695.645,69.52622400000004
698.195,54.06526704761905
700.744,32.49269409523811
703.291,20.325500380952406
705.836,27.74756209523813
708.38,27.466779238095242
710.921,26.42938571428572
713.461,7.438971428571444
715.999,12.394633333333374
718.535,45.81460952380958
721.069,95.07468571428578
723.602,106.78894285714293
726.133,128.90504285714292
728.662,134.13286666666673
731.189,106.51587619047623
733.714,93.76386666666673
736.238,76.82547619047622
738.759,83.03050476190484
741.279,112.18456190476198
743.798,128.42744761904765
746.314,120.56562380952386
748.829,93.69114761904765
751.342,79.46810000000008
753.853,84.08457142857148
756.362,91.77587142857148
758.869,75.63520952380958
761.375,94.37484761904767
763.879,74.46900952380958
766.381,80.67785238095243
768.882,83.99970952380957
771.38,76.24278571428576
773.877,88.31055714285722
776.372,108.63055238095244
778.866,106.67807619047626
781.357,119.92832857142865
783.847,105.09485238095243
786.335,103.4153095238096
788.821,98.41303809523814
791.306,92.65910476190484
793.789,126.82029523809534
796.27,171.03918095238106
798.749,186.07774761904776
801.227,231.22215238095254
803.702,236.9963333333335
806.176,247.210142857143
808.649,268.7693333333335
811.119,267.76942857142865
813.588,242.78276190476203
816.055,225.61961904761918
818.521,210.2807142857144
820.984,192.8149523809525
823.446,177.22366666666676
825.906,183.50771428571437
828.365,158.33533333333344
830.821,156.32661904761915
833.276,163.5308095238096
835.729,160.5210476190477
838.181,147.1082857142858
840.631,168.29404761904772
843.079,170.60398095238105
845.525,160.75419523809532
847.97,158.1752476190477
850.412,132.77385238095243
852.854,120.9802476190477
855.293,111.65360000000005
857.731,118.27233333333339
860.167,83.02890000000004
862.601,76.25870476190481
865.034,89.5830752380953
867.465,86.57552761904765
869.894,75.61923619047624
872.321,101.19279619047624
874.747,104.67947428571435
877.171,108.89096095238102
879.594,118.87725142857147
882.014,110.49767142857151
884.433,117.46889523809534
886.851,152.55532857142867
889.266,184.4259238095239
891.68,201.32109523809535
894.092,183.19585714285722
896.503,198.3854761904763
898.912,194.51200000000009
901.319,200.95871428571442
903.724,200.44223809523822
906.128,205.34580952380963
908.53,190.8149047619049
910.931,199.80404761904774
913.329,194.4591904761906
915.726,196.40166666666678
918.122,182.20533333333344
920.516,144.824880952381
922.908,125.45319047619054
925.298,116.23586190476198
927.687,106.12779047619055
930.074,118.22679523809532
932.459,126.72535238095246
934.843,126.10253333333343
937.225,130.78912380952391
939.605,128.02592380952387
941.984,113.76757619047626
944.361,94.49292380952386
946.736,89.96603333333339
949.11,83.38020000000004
951.482,75.49944285714291
953.853,74.1833952380953
956.222,95.95842857142864
958.589,95.63628095238101
960.954,102.93356666666672
963.318,89.28136666666671
965.68,96.77708095238101
968.041,97.37547619047626
970.4,107.36470952380958
972.757,102.31830952380956
975.113,66.95286190476192
977.467,35.50884761904764
979.819,24.607433333333354
982.17,31.96512190476194
984.519,27.96504809523812
986.866,47.371215238095274
989.212,47.75718047619052
991.556,69.07742952380958
993.899,76.81015761904767
996.24,114.81431238095247
998.579,137.85381904761914
1000.92,141.31143809523815
1003.25,130.8555714285715
1005.59,103.48788095238098
1007.92,53.733709523809566
1010.25,38.92768095238099
1012.58,44.59513809523813
1014.91,42.21344761904766
1017.24,65.6885666666667
1019.56,74.45000000000005
1021.88,88.68914285714293
1024.2,106.07340000000006
1026.52,112.7464095238096
1028.84,126.8515380952382
1031.16,152.00860952380964
1033.48,171.21785714285724
1035.79,201.7176666666668
1038.1,220.7463809523811
1040.41,251.30395238095258
1042.72,276.77123809523823
1045.03,275.3867142857144
1047.33,244.05461904761918
1049.64,198.20366666666678
1051.94,174.45252380952394
1054.24,189.99100952380962
1056.54,185.10443809523818
1058.84,178.74490476190485
1061.13,139.4352333333334
1063.43,97.46060000000008
1065.72,111.05833809523818
1068.01,117.65606666666675
1070.3,148.06248095238107
1072.59,194.08631428571442
1074.87,213.77400000000017
1077.16,225.07647619047637
1079.44,248.04066666666682
1081.72,263.7128095238097
1084.0,309.6153333333335
1086.28,379.5089523809527
1088.56,484.77295238095274
1090.84,604.4537142857147
1093.11,696.9308095238099
1095.38,743.8217142857147
1097.65,695.9819523809526
1099.92,595.0289523809528
1102.19,481.8178571428574
1104.46,430.1568095238098
1106.72,395.043904761905
1108.98,392.3346190476193
1111.24,429.17009523809554
1113.5,466.31038095238125
1115.76,509.8961428571432
1118.02,597.6876190476195
1120.28,624.5397619047621
1122.53,598.6410952380955
1124.78,555.1804761904764
1127.03,474.39385714285737
1129.28,404.65995238095263
1131.53,354.83390476190493
1133.77,299.1518095238097
1136.02,260.9921904761907
1138.26,232.40109523809537
1140.5,216.8048571428573
1142.74,235.67728571428586
1144.98,240.2543809523811
1147.22,260.01061904761923
1149.45,274.61023809523823
1151.69,253.1940000000001
1153.92,211.80723809523818
1156.15,191.2572857142858
1158.38,155.44680952380963
1160.61,163.94533333333345
1162.83,180.7509238095239
1165.06,176.19451428571438
1167.28,138.94059047619052
1169.5,106.70143333333336
1171.72,57.4272285714286
1173.94,39.25891904761909
1176.16,38.62310952380955
1178.37,57.6605428571429
1180.58,63.178771428571466
1182.8,63.556795238095255
1185.01,47.554557142857156
1187.22,33.979652380952395
1189.42,9.734978571428583
1191.63,7.866247619047634
1193.84,21.085992857142884
1196.04,36.86863809523813
1198.24,64.73625952380957
1200.44,75.0205666666667
1202.64,76.33897619047623
1204.84,80.1186047619048
1207.03,89.21517619047624
1209.23,72.62737142857146
1211.42,66.63965714285716
1213.61,41.441395238095254
1215.8,28.364809523809548
1217.99,32.45668095238098
1220.18,37.478076761904774
1222.36,26.09501580952382
1224.55,11.735524952380946
1226.73,-9.124568190476198
1228.91,-11.19981123809523
1231.09,-12.394992761904758
1233.27,17.004142476190513
1235.44,43.52183238095241
1237.62,73.11074380952387
1239.79,92.39070380952387
1241.96,89.83863238095242
1244.13,99.97940476190485
1246.3,122.43285714285722
1248.47,143.29544761904774
1250.64,181.52083809523822
1252.8,237.01556190476205
1254.96,271.1141904761907
1257.13,331.29490476190495
1259.29,374.8451904761907
1261.44,390.19547619047637
1263.6,386.6814285714288
1265.76,378.35304761904786
1267.91,348.4979523809526
1270.06,316.21380952380974
1272.22,290.69366666666684
1274.37,243.60652380952394
1276.51,222.19338095238106
1278.66,217.60000000000014
1280.81,207.5434285714287
1282.95,214.40733333333344
1285.09,194.29014285714297
1287.23,176.86133333333345
1289.37,183.36238095238107
1291.51,202.84380952380963
1293.65,194.11842857142867
1295.78,183.9510952380953
1297.92,142.9170476190477
1300.05,133.92414285714295
1302.18,126.16623809523819
1304.31,132.55147619047628
1306.44,145.3214761904763
1308.57,163.76514285714296
1310.69,195.41023809523824
1312.82,248.4500952380954
1314.94,255.3646190476192
1317.06,260.7288095238097
1319.18,265.4033809523811
1321.3,260.24866666666685
1323.41,287.17304761904785
1325.53,337.94166666666683
1327.64,373.7964761904764
1329.75,433.0739523809526
1331.87,469.2061904761907
1333.98,460.81533333333357
1336.08,444.99985714285737
1338.19,405.9061428571431
1340.3,349.15642857142876
1342.4,305.8490476190478
1344.5,257.511142857143
1346.6,233.95519047619067
1348.7,221.85087619047633
1350.8,183.48687619047627
1352.9,155.7708000000001
1354.99,144.46721904761915
1357.09,152.91213333333346
1359.18,175.15568571428582
1361.27,204.10540000000012
1363.36,186.33514285714296
1365.45,195.41876190476208
1367.54,211.3586190476192
1369.62,240.9659523809525
1371.7,258.1477619047621
1373.79,283.3820476190478
1375.87,316.2423333333336
1377.95,328.7774285714288
1380.03,322.322523809524
1382.1,295.45023809523826
1384.18,241.82885714285726
1386.25,189.64966666666677
1388.33,177.437761904762
1390.4,160.00312476190487
1392.47,126.82275095238099
1394.54,94.23055428571433
1396.6,44.084096666666696
1398.67,40.954954285714344
1400.74,72.5096414285715
1402.8,107.3671152380953
1404.86,99.00318095238102
1406.92,106.22703333333338
1408.98,76.65686666666673
1411.04,81.0061095238096
1413.09,105.51178095238102
1415.15,112.69656190476198
1417.2,98.98771428571435
1419.25,108.90762857142863
1421.3,116.21648095238103
1423.35,121.19816666666674
1425.4,113.42236666666672
1427.45,108.03006190476196
1429.49,85.35232857142863
1431.54,91.95810000000009
1433.58,116.84538571428578
1435.62,128.77330476190482
1437.66,125.64436666666673
1439.7,109.83689047619053
1441.74,104.68143809523818
1443.77,99.2704714285715
1445.81,131.41053333333343
1447.84,154.2413095238096
1449.87,149.617380952381
1451.9,119.82118095238101
1453.93,110.32617142857148
1455.96,84.65270476190487
1457.98,121.46406666666678
1460.01,162.61416190476203
1462.03,202.67133333333348
1464.05,247.01338095238114
1466.07,305.25614285714306
1468.09,352.6814285714288
1470.11,395.71485714285734
1472.13,432.7337619047622
1474.14,475.4018571428574
1476.16,485.0490952380955
1478.17,476.9576666666669
1480.18,425.9813333333335
1482.19,351.97419047619064
1484.2,265.313742857143
1486.21,199.90196666666677
1488.21,136.87833809523815
1490.22,83.19200000000005
1492.22,50.69712857142862
1494.22,45.628709523809555
1496.22,44.26942952380956
1498.22,39.85466761904763
1500.22,27.81015428571429
1502.22,7.847403809523817
1504.21,6.63046380952382
1506.21,6.680567619047634
1508.2,18.471462857142875
1510.19,28.76267142857145
1512.18,37.599547619047634
1514.17,34.075138095238096
1516.16,18.282628571428567
1518.14,4.077254285714288
1520.13,-7.590457619047613
1522.11,4.849235238095259
1524.09,17.77568904761906
1526.07,23.282647619047633
1528.05,30.225877619047647
1530.03,39.794621904761925
1532.01,43.94005523809527
1533.98,54.94679333333336
1535.96,49.337652380952406
1537.93,48.11172857142861
1539.9,57.98243809523813
1541.87,61.23477142857148
1543.84,67.91570952380958
1545.81,84.73883333333339
1547.78,80.13231904761909
1549.74,96.95299047619055
1551.7,115.77176190476199
1553.67,130.39781904761912
1555.63,137.6404857142858
1557.59,152.02339047619054
1559.55,144.49914285714294
1561.5,164.78185714285723
1563.46,163.82395238095245
1565.41,160.00638095238105
1567.37,143.04366666666675
1569.32,145.22190476190485
1571.27,140.4938095238096
1573.22,147.04985714285723
1575.17,151.89080952380962
1577.11,152.3025714285715
1579.06,160.04757142857153
1581.0,157.79338095238103
1582.95,158.06419047619056
1584.89,142.14638095238104
1586.83,158.0882857142858
1588.77,147.74776190476197
1590.7,146.9348095238096
1592.64,150.98404761904771
1594.58,173.56273809523793
1596.51,184.0765238095235
1598.44,164.52623809523783
