Raman Shift,Processed Intensity
331.095,56.44121547619043
333.909,44.07160952380954
336.721,23.94133809523811
339.531,0.9883428571428468
342.339,-34.730873809523814
345.145,-8.63530476190476
347.949,-7.927935714285726
350.751,-17.762661904761913
353.55,-29.6727826666667
356.348,-39.38047838095241
359.144,-44.891930095238095
361.937,-20.163967333333332
364.729,-4.342160571428554
367.518,6.9058806666667145
370.306,86.96185161904776
373.091,227.4473028571431
375.874,380.79552190476215
378.656,460.6315714285717
381.435,418.58224761904773
384.212,279.75260952380955
386.988,143.86830000000003
389.761,41.22829047619051
392.532,6.943292857142874
395.301,-28.684171428571446
398.068,-13.016459523809496
400.833,4.919742857142857
403.596,9.051716666666682
406.358,28.54673809523812
409.117,52.05012857142859
411.874,16.494690476190492
414.629,15.767342857142845
417.382,-11.95733333333335
420.133,-36.07453809523809
422.882,-16.88244285714282
425.629,48.65561904761914
428.374,120.62554761904775
431.117,204.35294761904777
433.858,271.49796190476206
436.597,279.05585714285723
439.334,227.92800000000008
442.069,194.35009523809535
444.802,157.6069047619049
447.533,162.651142857143
450.262,213.76919047619066
452.989,274.3448095238097
455.714,300.52390476190493
458.438,309.1200476190478
461.159,273.9482380952382
463.878,223.44309523809537
466.595,183.08720952380963
469.31,132.3170190476191
472.024,125.23570476190486
474.735,121.28045714285723
477.444,145.27089523809536
480.152,166.35935238095246
482.857,170.0328761904763
485.561,147.254761904762
488.262,180.51252380952394
490.962,193.86547619047633
493.659,215.42123809523824
496.355,223.76352380952392
499.048,199.28604761904774
501.74,171.8113333333334
504.43,151.06685714285723
507.118,142.16114285714298
509.804,146.96452380952394
512.488,181.30028571428585
515.17,241.2768571428573
517.85,260.47919047619064
520.528,260.34976190476203
523.204,263.1397142857144
525.878,236.95800000000014
528.551,194.43680952380961
531.221,198.30366666666677
533.89,166.8095714285715
536.556,163.25333333333344
539.221,163.36142857142863
541.883,177.6226666666668
544.544,169.33459047619056
547.203,141.65201904761912
549.86,133.30075238095247
552.515,157.1968380952382
555.168,155.92284761904773
557.819,188.58425714285724
560.469,188.61978095238103
563.116,173.2773809523811
565.761,169.66166666666678
568.405,204.30509523809536
571.047,197.97857142857157
573.687,226.59452380952396
576.324,227.06542857142873
578.96,255.11266666666677
581.594,237.88600000000014
584.227,246.96266666666676
586.857,215.06285714285727
589.485,194.95338095238105
592.112,185.30566666666678
594.737,193.93319047619062
597.359,188.55433333333346
599.98,188.60038095238107
602.599,175.8833809523811
605.216,189.50095238095253
607.831,218.7877142857144
610.445,228.45885714285725
613.056,204.896380952381
615.666,170.9093333333334
618.274,128.68747619047627
620.88,156.80157142857155
623.484,199.82123809523827
626.086,242.17300000000017
628.686,275.7596666666669
631.284,335.7686190476193
633.881,381.4341428571432
636.476,420.41909523809545
639.068,432.7666666666669
641.659,409.80542857142876
644.249,344.7210000000001
646.836,297.50755238095246
649.421,231.82596857142866
652.005,135.9558185714286
654.587,80.55712952380958
657.166,39.4325904761905
659.745,17.003674285714318
662.321,22.834190476190486
664.895,26.059639047619058
667.468,18.719839523809547
670.038,30.759256190476197
672.607,11.74129428571429
675.174,18.324455238095258
677.739,12.929094285714303
680.303,23.21360190476194
682.864,44.74117333333338
685.424,64.26545238095242
687.982,67.34967142857147
690.538,77.31898095238097
693.092,51.59389904761906
695.645,22.356932380952383
698.195,6.076493333333337
700.744,1.9830366666666728
703.291,-10.740425714285724
705.836,-4.291570000000004
708.38,-14.9154961904762
710.921,-11.237964285714266
713.461,13.020295238095269
715.999,50.32924761904766
718.535,70.77820476190482
721.069,85.50438571428576
723.602,88.69291428571434
726.133,84.9576047619048
728.662,94.43648571428578
731.189,95.26756571428577
733.714,80.06539857142859
736.238,37.587592857142866
738.759,20.0682023809524
741.279,28.50336047619053
743.798,58.17509571428577
746.314,86.88927952380958
748.829,81.21397809523812
751.342,69.8604904761905
753.853,54.539876190476235
756.362,81.44008095238101
758.869,93.98674285714291
761.375,106.03451904761909
763.879,84.9144428571429
766.381,62.43407619047622
768.882,58.9244333333334
771.38,65.52690000000004
773.877,72.66828095238102
776.372,95.87094285714291
778.866,98.80003809523814
781.357,77.88291428571434
783.847,83.97550000000004
786.335,69.36274761904767
788.821,57.52011428571433
791.306,78.68522380952386
793.789,79.80973333333338
796.27,95.89333333333343
798.749,133.9357761904763
801.227,175.69893333333346
803.702,212.7067047619049
806.176,238.43546666666677
808.649,242.02804761904775
811.119,217.43766666666676
813.588,211.52176190476206
816.055,203.75723809523822
818.521,202.19276190476202
820.984,186.40047619047633
823.446,193.6670000000001
825.906,159.47004761904773
828.365,157.1912380952382
830.821,154.8796761904763
833.276,141.6322476190477
835.729,120.21216190476198
838.181,112.43099047619053
840.631,119.86168571428581
843.079,146.02977142857154
845.525,165.93724761904772
847.97,167.77659047619056
850.412,145.64518571428576
852.854,108.21221428571435
855.293,93.24158571428576
857.731,86.02143809523814
860.167,85.79215047619051
862.601,69.50863142857145
865.034,57.31646761904765
867.465,39.12308285714288
869.894,47.59788190476195
872.321,42.2198266666667
874.747,58.896679047619095
877.171,78.10732857142864
879.594,102.18825238095245
882.014,114.8568857142858
884.433,117.97336190476196
886.851,101.58847619047626
889.266,92.37223809523816
891.68,117.99433333333343
894.092,144.55319047619057
896.503,150.81423809523818
898.912,154.49509523809536
901.319,175.64657142857152
903.724,189.6056190476192
906.128,213.89928571428584
908.53,227.19766666666678
910.931,202.40928571428583
913.329,184.96580952380964
915.726,176.91838095238106
918.122,157.9372380952382
920.516,161.40638095238106
922.908,165.66318095238105
925.298,153.23476666666673
927.687,120.69565238095244
930.074,106.76388571428575
932.459,66.34754285714288
934.843,47.878385714285756
937.225,36.36008095238098
939.605,55.65307619047625
941.984,75.37946666666674
944.361,109.59023809523816
946.736,122.09816190476195
949.11,110.09687704761909
951.482,63.54191776190478
953.853,46.769830761904785
956.222,39.64053509523812
958.589,41.823821238095285
960.954,61.274970142857185
963.318,88.18729609523814
965.68,74.94455238095242
968.041,69.83516190476195
970.4,54.62367619047621
972.757,40.02694285714288
975.113,32.047441904761925
977.467,27.401839523809528
979.819,18.140076190476204
982.17,14.264376666666669
984.519,3.538775714285724
986.866,0.7748138095238222
989.212,22.736329047619083
991.556,54.28224476190483
993.899,89.84288047619054
996.24,112.84823333333341
998.579,135.15703809523814
1000.92,115.19908571428576
1003.25,102.4517476190477
1005.59,104.01114285714291
1007.92,76.97347619047623
1010.25,67.19646190476195
1012.58,75.20451428571432
1014.91,70.95044285714292
1017.24,83.10091904761912
1019.56,97.27487142857149
1021.88,93.37687619047624
1024.2,90.83531428571436
1026.52,111.31619047619058
1028.84,164.39052380952393
1031.16,191.7714285714287
1033.48,216.26766666666677
1035.79,223.40166666666676
1038.1,230.88666666666686
1040.41,267.0070952380954
1042.72,315.2850952380954
1045.03,299.8618571428573
1047.33,275.06928571428585
1049.64,210.42876190476198
1051.94,170.41476190476203
1054.24,167.59676190476205
1056.54,197.0199523809525
1058.84,221.44385714285727
1061.13,237.62814285714296
1063.43,213.0465238095239
1065.72,197.36333333333346
1068.01,202.7663809523811
1070.3,198.11004761904778
1072.59,221.62919047619062
1074.87,205.60680952380963
1077.16,188.99300000000017
1079.44,207.59404761904779
1081.72,240.83552380952403
1084.0,308.61942857142884
1086.28,403.03761904761933
1088.56,505.56314285714325
1090.84,666.5265238095242
1093.11,783.9241904761909
1095.38,799.0860952380957
1097.65,741.8190000000004
1099.92,604.3578571428575
1102.19,491.9374285714289
1104.46,458.6023333333336
1106.72,458.44447619047645
1108.98,486.8889523809527
1111.24,499.8374285714289
1113.5,537.763047619048
1115.76,564.0912380952385
1118.02,601.9617142857146
1120.28,633.4189523809528
1122.53,668.4122857142861
1124.78,637.3198095238099
1127.03,588.9478571428575
1129.28,511.6747142857145
1131.53,432.92585714285735
1133.77,361.3175714285716
1136.02,322.847142857143
1138.26,288.70261904761924
1140.5,290.07161904761927
1142.74,329.5232857142859
1144.98,335.3882380952383
1147.22,315.9975714285716
1149.45,298.9680000000002
1151.69,265.58290476190496
1153.92,257.07866666666683
1156.15,240.2629523809525
1158.38,200.18119047619055
1160.61,170.3082380952382
1162.83,158.54723809523819
1165.06,145.8964095238096
1167.28,134.49751428571435
1169.5,95.58732857142863
1171.72,78.54551428571433
1173.94,86.37133809523814
1176.16,84.54044761904767
1178.37,89.38551428571435
1180.58,100.04884761904768
1182.8,107.95876666666672
1185.01,85.1150847619048
1187.22,53.94629714285715
1189.42,5.9766247619047626
1191.63,-7.650712380952342
1193.84,13.302933333333375
1196.04,55.600257142857174
1198.24,80.33746380952385
1200.44,81.94416285714289
1202.64,49.70725285714288
1204.84,40.24702000000003
1207.03,47.42220904761909
1209.23,54.757905714285755
1211.42,65.16047190476192
1213.61,66.6791123809524
1215.8,42.55361904761907
1217.99,28.023823809523844
1220.18,48.23459047619051
1222.36,63.28280952380956
1224.55,44.40848571428574
1226.73,55.70898095238098
1228.91,50.04324761904764
1231.09,41.937180952381
1233.27,43.726176190476224
1235.44,75.5554428571429
1237.62,56.093695238095286
1239.79,85.9149476190477
1241.96,110.2593333333334
1244.13,121.79584761904769
1246.3,136.9555380952382
1248.47,163.59818095238103
1250.64,173.2024285714287
1252.8,228.53276190476208
1254.96,293.4968095238097
1257.13,352.28714285714307
1259.29,384.4781904761907
1261.44,393.16757142857165
1263.6,380.50114285714307
1265.76,358.62438095238116
1267.91,332.3020476190478
1270.06,322.58419047619066
1272.22,262.5691904761906
1274.37,225.11676190476206
1276.51,230.6110952380954
1278.66,243.4833809523811
1280.81,237.68871428571447
1282.95,247.08704761904775
1285.09,199.8243333333334
1287.23,154.56985714285727
1289.37,163.04109523809535
1291.51,173.62157142857154
1293.65,175.7904761904763
1295.78,176.264761904762
1297.92,163.1425714285715
1300.05,129.0455476190477
1302.18,121.64361904761914
1304.31,134.1773095238096
1306.44,150.41157142857153
1308.57,173.7297380952382
1310.69,235.61095238095254
1312.82,245.819761904762
1314.94,243.59709523809536
1317.06,237.70714285714294
1319.18,210.2954285714287
1321.3,200.65019047619063
1323.41,258.1076190476192
1325.53,293.38419047619067
1327.64,329.5776666666669
1329.75,355.7857619047621
1331.87,377.010523809524
1333.98,389.0164761904764
1336.08,410.3295714285717
1338.19,391.0945714285716
1340.3,370.31380952380977
1342.4,313.13238095238114
1344.5,287.1710476190478
1346.6,256.6699523809525
1348.7,234.86914285714298
1350.8,191.15119047619058
1352.9,144.75600000000009
1354.99,133.01866666666677
1357.09,138.464761904762
1359.18,165.09547619047632
1361.27,186.76938095238106
1363.36,172.63071428571436
1365.45,167.4899523809525
1367.54,192.8250000000001
1369.62,194.49400000000014
1371.7,218.35480952380965
1373.79,266.8368571428573
1375.87,267.70304761904777
1377.95,292.4777619047621
1380.03,306.2570952380954
1382.1,284.56500000000017
1384.18,244.497142857143
1386.25,229.81569523809534
1388.33,164.52090952380962
1390.4,126.27949523809531
1392.47,113.32939047619053
1394.54,94.67043333333339
1396.6,60.73085714285717
1398.67,65.0342428571429
1400.74,42.722685714285745
1402.8,52.224071428571484
1404.86,74.7280047619048
1406.92,83.09068095238099
1408.98,77.88260476190483
1411.04,92.38827619047623
1413.09,72.22521904761909
1415.15,82.9634952380953
1417.2,122.22064761904772
1419.25,138.09000476190485
1421.3,165.23674285714293
1423.35,177.6590000000001
1425.4,169.16418095238103
1427.45,148.5598714285715
1429.49,139.93917142857148
1431.54,113.44235714285722
1433.58,93.3055952380953
1435.62,75.71709523809528
1437.66,97.57908095238102
1439.7,109.60340476190483
1441.74,119.54928571428579
1443.77,129.6047095238096
1445.81,120.62433809523816
1447.84,97.70052380952387
1449.87,107.49730952380959
1451.9,104.77400000000006
1453.93,113.05142857142866
1455.96,119.46985714285724
1457.98,138.0267142857144
1460.01,155.1952380952382
1462.03,198.1630952380954
1464.05,248.83261904761923
1466.07,322.20080952380977
1468.09,368.0741904761907
1470.11,416.16461904761934
1472.13,438.5168095238098
1474.14,441.17557142857163
1476.16,427.71019047619075
1478.17,380.26090476190495
1480.18,330.3484761904764
1482.19,264.3517142857145
1484.2,214.1251904761906
1486.21,145.4282857142858
1488.21,132.21110476190483
1490.22,87.56670952380955
1492.22,74.01656476190476
1494.22,35.27310523809525
1496.22,11.381898571428572
1498.22,-6.944833809523774
1500.22,26.81469857142859
1502.22,32.61129571428574
1504.21,39.1575242857143
1506.21,38.35650095238097
1508.2,20.34951285714287
1510.19,24.94459714285717
1512.18,31.33079666666669
1514.17,42.79249714285718
1516.16,46.280770000000025
1518.14,56.461077142857164
1520.13,32.951295238095256
1522.11,28.083680952380973
1524.09,30.80955714285717
1526.07,34.74705238095241
1528.05,43.56191904761908
1530.03,53.53909047619049
1532.01,40.10637238095241
1533.98,26.310693809523823
1535.96,22.19907809523811
1537.93,31.485034761904807
1539.9,58.12058761904767
1541.87,73.62905571428576
1543.84,80.29571047619051
1545.81,58.02487619047622
1547.78,56.67332857142864
1549.74,89.81193333333341
1551.7,133.4407095238096
1553.67,170.65450476190486
1555.63,172.1197238095239
1557.59,127.7884476190477
1559.55,128.8510380952382
1561.5,133.25978095238105
1563.46,143.06234285714297
1565.41,162.21086666666676
1567.37,172.70561904761914
1569.32,159.49871428571439
1571.27,163.97128571428578
1573.22,158.55195238095246
1575.17,134.38342857142865
1577.11,137.32285714285723
1579.06,164.98976190476202
1581.0,189.47928571428582
1582.95,190.22061904761915
1584.89,208.45214285714295
1586.83,194.17361904761918
1588.77,194.4329047619049
1590.7,196.46861904761914
1592.64,183.85238095238103
1594.58,158.18
1596.51,141.52292857142882
1598.44,147.7146666666673
