Raman Shift,Processed Intensity
331.095,58.992309523809716
333.909,70.55950238095252
336.721,35.22010952380959
339.531,-17.0902023809524
342.339,-41.86475714285715
345.145,-25.12009285714284
347.949,-5.2522114285714165
350.751,17.48701952380952
353.55,15.275562857142855
356.348,-8.326229047619057
359.144,-11.661418095238083
361.937,5.785590952380973
364.729,17.38885047619052
367.518,53.09589047619059
370.306,177.42671428571447
373.091,285.76059523809545
375.874,413.192466666667
378.656,441.6761428571431
381.435,378.9288285714287
384.212,258.43213333333347
386.988,168.43067142857146
389.761,58.12378476190478
392.532,15.712408571428574
395.301,-27.076701904761915
398.068,-37.94343714285715
400.833,-38.633011428571436
403.596,-8.936400952380957
406.358,-16.49958666666668
409.117,-20.061795238095247
411.874,-17.979176190476196
414.629,-3.701123809523801
417.382,-1.8654999999999902
420.133,1.7013476190476107
422.882,-8.396371428571411
425.629,19.589966666666747
428.374,102.839742857143
431.117,218.3435809523811
433.858,300.37949047619065
436.597,335.79810476190494
439.334,326.92809523809535
442.069,278.9090476190477
444.802,196.7392857142858
447.533,184.37066666666684
450.262,191.04214285714306
452.989,250.94595238095258
455.714,324.7520476190478
458.438,322.70280952380966
461.159,247.2321904761906
463.878,184.91766666666672
466.595,137.62337142857152
469.31,119.54799047619055
472.024,116.84326666666674
474.735,135.13767619047627
477.444,143.67950476190484
480.152,151.62246666666678
482.857,184.3589904761906
485.561,202.99628571428585
488.262,215.9278571428573
490.962,234.40514285714298
493.659,230.8699047619049
496.355,219.05009523809534
499.048,192.7692380952382
501.74,156.4222857142858
504.43,150.16695238095247
507.118,153.01804761904773
509.804,190.08561904761922
512.488,246.47966666666684
515.17,317.78642857142876
517.85,343.4970476190478
520.528,331.2934761904764
523.204,306.7616666666669
525.878,265.5830952380954
528.551,232.15357142857158
531.221,227.63047619047632
533.89,197.69471428571438
536.556,177.6939047619049
539.221,165.49857142857152
541.883,185.26509523809537
544.544,203.48338095238108
547.203,215.78533333333348
549.86,194.2312857142858
552.515,179.9284761904763
555.168,157.26947619047633
557.819,187.02761904761917
560.469,212.4522857142859
563.116,238.03023809523822
565.761,256.3903333333335
568.405,265.6850000000001
571.047,274.6850000000002
573.687,305.1130952380954
576.324,325.2156190476192
578.96,336.0002380952383
581.594,321.99704761904775
584.227,299.0223809523811
586.857,260.4149047619049
589.485,264.94152380952397
592.112,280.27380952380975
594.737,300.5587142857144
597.359,293.32290476190497
599.98,282.37895238095257
602.599,270.0622380952383
605.216,286.18366666666685
607.831,284.3637142857144
610.445,278.7458571428573
613.056,234.7581904761906
615.666,200.44771428571443
618.274,200.95561904761922
620.88,227.13757142857156
623.484,245.32447619047636
626.086,296.32328571428593
628.686,352.03500000000025
631.284,440.3129523809527
633.881,472.15257142857166
636.476,490.59738095238123
639.068,468.78452380952405
641.659,444.4229523809526
644.249,419.8873333333336
646.836,399.64747619047637
649.421,307.2203904761906
652.005,218.2184714285715
654.587,137.30080000000007
657.166,96.46007619047626
659.745,67.06957142857146
662.321,37.073757142857154
664.895,2.988376190476189
667.468,-3.6228952380952144
670.038,13.660271428571479
672.607,68.54391904761911
675.174,97.97255714285717
677.739,86.36666190476193
680.303,89.28984800000006
682.864,74.40082800000003
685.424,72.54865219047625
687.982,65.53491485714288
690.538,41.1616183809524
693.092,12.944938476190496
695.645,25.210941809523813
698.195,3.1901761904761976
700.744,8.589818095238092
703.291,-10.45422380952382
705.836,-1.3296899999999852
708.38,-1.5193247619047525
710.921,20.92293285714288
713.461,24.8956542857143
715.999,43.63125238095242
718.535,53.457266666666726
721.069,86.22542857142861
723.602,92.83531428571433
726.133,104.61512380952387
728.662,103.17921428571434
731.189,97.18980952380957
733.714,89.26137619047624
736.238,70.67545238095242
738.759,65.23769047619054
741.279,71.9439190476191
743.798,102.7905952380953
746.314,117.25044285714293
748.829,109.74870000000004
751.342,83.28223333333337
753.853,65.70538571428575
756.362,48.91987142857149
758.869,83.8280714285715
761.375,137.09396666666674
763.879,146.52480476190482
766.381,145.45175238095243
768.882,133.7777285714286
771.38,93.88170952380959
773.877,71.09555714285719
776.372,64.5603285714286
778.866,44.893800000000034
781.357,32.523261904761945
783.847,64.20980952380958
786.335,92.09504761904766
788.821,94.94010000000006
791.306,103.9825333333334
793.789,113.07866190476199
796.27,143.13320952380968
798.749,182.81236666666683
801.227,216.06843809523826
803.702,238.7108095238097
806.176,264.8827142857144
808.649,261.2507142857144
811.119,272.7676666666668
813.588,251.6243809523811
816.055,226.631142857143
818.521,233.74095238095254
820.984,233.5260952380954
823.446,226.93971428571444
825.906,214.17314285714295
828.365,194.6562380952382
830.821,178.3901523809525
833.276,159.42410476190486
835.729,139.5211714285715
838.181,118.58766666666673
840.631,120.62527619047628
843.079,115.06400000000008
845.525,134.71503809523819
847.97,125.38992380952389
850.412,130.32875238095244
852.854,112.4858333333334
855.293,107.33949047619053
857.731,98.79656666666673
860.167,109.62107809523815
862.601,78.76781142857146
865.034,68.14405142857146
867.465,55.08539333333336
869.894,52.213418095238154
872.321,60.48312571428576
874.747,87.1351352380953
877.171,87.88630000000008
879.594,124.78723809523821
882.014,163.60251904761915
884.433,214.38249523809537
886.851,197.5587857142858
889.266,176.99119047619058
891.68,136.39692857142865
894.092,141.4460000000001
896.503,149.28416666666678
898.912,180.20014285714296
901.319,200.1495238095239
903.724,206.039761904762
906.128,193.54071428571442
908.53,201.1794761904763
910.931,175.62614285714295
913.329,169.07404761904775
915.726,185.81247619047633
918.122,196.65366666666682
920.516,201.74395238095252
922.908,190.27690476190486
925.298,173.30361904761915
927.687,151.73166666666674
930.074,133.61242857142867
932.459,136.23433333333344
934.843,147.55304857142863
937.225,113.3336366666667
939.605,79.81754000000004
941.984,54.57936809523814
944.361,65.76501619047626
946.736,74.99669380952389
949.11,127.65821047619053
951.482,130.37194761904766
953.853,95.99799047619054
956.222,100.58710000000006
958.589,101.71328571428575
960.954,81.28442380952389
963.318,102.82701428571433
965.68,88.48682380952383
968.041,68.59986190476195
970.4,66.35946190476193
972.757,42.72048571428574
975.113,32.256933333333365
977.467,58.780779047619085
979.819,55.53252809523812
982.17,51.943050000000014
984.519,29.966988095238094
986.866,15.130280476190501
989.212,19.86357000000005
991.556,75.0737471428572
993.899,86.71484190476195
996.24,99.07439523809529
998.579,108.10642857142864
1000.92,108.9552371428572
1003.25,75.95559190476195
1005.59,84.6803266666667
1007.92,54.60667000000002
1010.25,41.64054571428576
1012.58,46.44955380952383
1014.91,38.605818095238114
1017.24,25.205176190476227
1019.56,30.390909523809544
1021.88,49.639700000000055
1024.2,63.99932857142863
1026.52,117.7555380952382
1028.84,166.33690952380962
1031.16,193.5526761904763
1033.48,191.35485714285727
1035.79,212.0767142857144
1038.1,195.4796666666668
1040.41,262.7532380952383
1042.72,296.8017619047621
1045.03,303.4813333333335
1047.33,286.2672380952382
1049.64,259.25385714285727
1051.94,221.20185714285728
1054.24,218.91933333333347
1056.54,179.6432857142858
1058.84,153.41990476190483
1061.13,139.00980952380962
1063.43,138.0779523809525
1065.72,173.860761904762
1068.01,176.73771428571436
1070.3,167.4210000000001
1072.59,153.6710000000001
1074.87,154.5809523809525
1077.16,154.6250000000001
1079.44,212.41990476190492
1081.72,265.67838095238113
1084.0,311.68357142857167
1086.28,385.7195238095241
1088.56,474.64090476190506
1090.84,591.5408095238099
1093.11,711.6547619047623
1095.38,755.1237619047623
1097.65,689.1833333333336
1099.92,569.0213809523813
1102.19,451.11180952380977
1104.46,413.97595238095266
1106.72,386.563904761905
1108.98,391.9683333333336
1111.24,410.80580952380984
1113.5,443.644904761905
1115.76,508.3407619047622
1118.02,576.6051904761908
1120.28,588.6739047619051
1122.53,584.7346190476194
1124.78,537.4988571428574
1127.03,474.53557142857164
1129.28,427.9379523809526
1131.53,361.0843333333336
1133.77,294.6867142857145
1136.02,279.12361904761923
1138.26,272.5828095238097
1140.5,271.44304761904783
1142.74,286.2734285714288
1144.98,274.8809523809525
1147.22,278.4540952380954
1149.45,294.2762380952383
1151.69,296.393142857143
1153.92,292.3740952380954
1156.15,250.5977142857144
1158.38,207.3000000000001
1160.61,179.86014285714296
1162.83,153.4662380952382
1165.06,131.02170476190483
1167.28,114.23891428571433
1169.5,80.16376190476196
1171.72,72.41357142857149
1173.94,80.41567619047626
1176.16,77.83483809523814
1178.37,96.14599047619053
1180.58,93.15732380952385
1182.8,82.77236666666671
1185.01,60.894720000000014
1187.22,39.285327142857135
1189.42,4.609835238095256
1191.63,8.91496809523811
1193.84,11.628592380952403
1196.04,26.178550952380974
1198.24,59.897780952381
1200.44,62.30951571428575
1202.64,65.88961714285719
1204.84,78.63768428571434
1207.03,79.69655523809529
1209.23,69.25666333333339
1211.42,73.12774666666668
1213.61,72.97632476190482
1215.8,58.27902000000003
1217.99,48.988392380952405
1220.18,49.295532380952395
1222.36,32.86761619047621
1224.55,31.895777142857185
1226.73,54.90441523809525
1228.91,29.466009523809525
1231.09,27.629052380952412
1233.27,34.061347619047645
1235.44,44.288014285714354
1237.62,100.45288095238102
1239.79,121.6526714285715
1241.96,112.69846190476198
1244.13,134.3536238095239
1246.3,153.23892380952393
1248.47,177.21346190476203
1250.64,223.70700952380963
1252.8,255.57904761904777
1254.96,294.5456666666669
1257.13,362.13276190476216
1259.29,404.86657142857166
1261.44,443.51123809523835
1263.6,438.1162380952383
1265.76,411.01747619047643
1267.91,379.45519047619064
1270.06,347.76500000000016
1272.22,281.9973333333335
1274.37,255.6785238095239
1276.51,201.3351904761906
1278.66,197.68404761904776
1280.81,207.7279523809525
1282.95,225.80242857142872
1285.09,215.148761904762
1287.23,222.1504761904763
1289.37,208.1916190476192
1291.51,222.22709523809536
1293.65,212.9266666666668
1295.78,209.38785714285723
1297.92,173.3759523809525
1300.05,166.8461904761906
1302.18,184.9444761904763
1304.31,211.43542857142873
1306.44,226.03623809523825
1308.57,251.46395238095252
1310.69,261.3407619047621
1312.82,271.00309523809545
1314.94,282.21566666666683
1317.06,300.83833333333354
1319.18,282.3499047619049
1321.3,289.84857142857163
1323.41,304.28985714285733
1325.53,326.81928571428597
1327.64,381.2491904761908
1329.75,449.9155238095241
1331.87,474.6305238095241
1333.98,508.4444761904764
1336.08,474.5030476190479
1338.19,423.71347619047646
1340.3,359.2688571428573
1342.4,306.9332857142859
1344.5,262.32847619047635
1346.6,234.0281904761906
1348.7,203.08219047619062
1350.8,197.35014285714294
1352.9,177.16766666666678
1354.99,172.58433333333343
1357.09,164.31638095238105
1359.18,163.4609047619049
1361.27,185.44823809523822
1363.36,189.70923809523822
1365.45,195.86457142857154
1367.54,197.5826666666668
1369.62,202.81714285714304
1371.7,245.4267619047621
1373.79,287.174523809524
1375.87,304.3000952380954
1377.95,313.8045714285716
1380.03,305.54595238095254
1382.1,263.7633809523811
1384.18,246.1243333333335
1386.25,239.53432380952393
1388.33,209.32730000000012
1390.4,175.8848380952382
1392.47,160.39749047619054
1394.54,124.24650952380959
1396.6,91.09835714285718
1398.67,93.76282380952384
1400.74,66.33480000000003
1402.8,60.2902714285715
1404.86,76.43834285714291
1406.92,77.87347619047623
1408.98,60.547380952381005
1411.04,79.50680952380958
1413.09,100.79822857142867
1415.15,134.42069523809533
1417.2,154.3728095238096
1419.25,182.12958095238105
1421.3,196.45147619047628
1423.35,187.66990476190486
1425.4,176.25938095238104
1427.45,147.6946190476191
1429.49,142.21185714285724
1431.54,157.42814285714294
1433.58,161.05595238095245
1435.62,160.28338095238104
1437.66,157.63214285714292
1439.7,137.90961904761917
1441.74,162.9705238095239
1443.77,172.00290476190486
1445.81,165.76652380952387
1447.84,151.97323809523817
1449.87,156.00133333333343
1451.9,146.6577142857144
1453.93,177.84461904761918
1455.96,179.4645238095239
1457.98,160.27628571428582
1460.01,149.99200000000013
1462.03,184.8942857142859
1464.05,228.79009523809546
1466.07,324.2961428571431
1468.09,416.36200000000025
1470.11,479.3654761904765
1472.13,514.9711904761907
1474.14,534.7475238095241
1476.16,511.2633809523812
1478.17,484.0877142857145
1480.18,455.74171428571447
1482.19,383.2702857142858
1484.2,277.33776190476203
1486.21,195.51271428571437
1488.21,143.07838095238105
1490.22,111.27061904761912
1492.22,123.27788571428579
1494.22,129.24053809523815
1496.22,118.82306666666672
1498.22,89.83260000000006
1500.22,66.40997619047621
1502.22,32.60084285714288
1504.21,17.260550000000013
1506.21,15.863247619047634
1508.2,6.169145238095236
1510.19,1.7956142857142963
1512.18,6.883950000000018
1514.17,38.71842380952385
1516.16,45.20240476190479
1518.14,44.858471428571434
1520.13,17.82834761904762
1522.11,9.682400000000023
1524.09,28.229256190476235
1526.07,50.706153809523826
1528.05,44.921860000000024
1530.03,44.780422380952395
1532.01,29.566976190476208
1533.98,21.28094142857145
1535.96,25.540879047619057
1537.93,19.155869523809546
1539.9,36.36345142857148
1541.87,65.83004000000005
1543.84,96.03129238095245
1545.81,114.68134285714294
1547.78,113.54166666666673
1549.74,114.27887619047627
1551.7,138.9398761904763
1553.67,152.00095238095247
1555.63,182.65200000000013
1557.59,196.7025238095239
1559.55,181.96204761904772
1561.5,162.5255714285715
1563.46,164.96404761904773
1565.41,163.5160000000001
1567.37,166.8000000000001
1569.32,154.67338095238102
1571.27,137.85033333333342
1573.22,129.56866666666676
1575.17,142.35219047619054
1577.11,135.53464285714293
1579.06,111.54438095238103
1581.0,104.71507142857149
1582.95,122.5225238095239
1584.89,154.5859761904763
1586.83,182.57233333333343
1588.77,195.6720476190477
1590.7,192.790142857143
1592.64,200.21261904761914
1594.58,207.1536904761905
1596.51,199.2802619047619
1598.44,166.59250000000003
