Raman Shift,Processed Intensity
331.095,74.99263195176854
333.909,-32.30055967823364
336.721,-54.400814919798904
339.531,-20.474792947274636
342.339,35.81086204962321
345.145,85.50381407240366
347.949,106.27080471084673
350.751,110.39766063530215
353.55,149.02739632707835
356.348,160.4935549040806
359.144,172.51069180358718
361.937,169.79342989359975
364.729,166.2469431556292
367.518,180.63363084366983
370.306,225.09693450031318
373.091,317.87563116335286
375.874,384.9705075247716
378.656,445.620557899249
381.435,396.92203933553265
384.212,324.0665743468494
386.988,175.86496792703292
389.761,86.12816742378936
392.532,15.952984316732909
395.301,7.055435043034777
398.068,-19.229251510249924
400.833,-15.089483656709945
403.596,0.09603463557778014
406.358,-30.432166399296875
409.117,-28.909556092745333
411.874,-30.619027574809024
414.629,-26.128992470944013
417.382,-2.0076697523318217
420.133,57.415002358888614
422.882,110.19021293201013
425.629,192.17883890185294
428.374,244.86096430832686
431.117,331.95492334550454
433.858,415.36967674404787
436.597,472.5381405345852
439.334,522.2743243348959
442.069,547.4399934466219
444.802,517.1827595233949
447.533,491.41226647706253
450.262,505.60970971723964
452.989,524.6373553908747
455.714,540.7861548599094
458.438,565.2519306075114
461.159,524.0401335728766
463.878,489.53726715269613
466.595,454.32040644070867
469.31,449.2524317529719
472.024,413.1010716769415
474.735,396.68175564436615
477.444,382.85760936132465
480.152,426.30135500016286
482.857,449.9238780580995
485.561,498.58850850153885
488.262,471.82530191039905
490.962,452.49770157481134
493.659,438.80253392515806
496.355,449.3176230097206
499.048,483.47797640090585
501.74,525.6710187205181
504.43,586.9984918316977
507.118,652.7050216975199
509.804,677.8923995253149
512.488,734.4719581490772
515.17,819.2598055547292
517.85,907.0244393577746
520.528,1019.2962660428489
523.204,1073.3675963937535
525.878,1083.7688313996778
528.551,1091.9351243518977
531.221,1090.7778048452392
533.89,1095.4938980176298
536.556,1122.4232628372774
539.221,1087.6676351517435
541.883,1077.138242165589
544.544,1053.6986550132538
547.203,1035.6885937128982
549.86,1040.5429702154756
552.515,1061.6014076442716
555.168,1059.7749023915849
557.819,1101.8315338344642
560.469,1137.9678883361512
563.116,1192.8090546760982
565.761,1289.3133813847521
568.405,1358.153424554519
571.047,1452.8111813650266
573.687,1542.7685617036245
576.324,1601.8883359763545
578.96,1620.5569876808336
581.594,1650.160899312471
584.227,1644.800633508768
586.857,1626.2433094317257
589.485,1573.4464077216712
592.112,1497.7006230701486
594.737,1406.0108120308855
597.359,1315.7626551164872
599.98,1248.9131284189466
602.599,1197.4666895158548
605.216,1144.427653852823
607.831,1110.0859044592262
610.445,1116.3026016639556
613.056,1139.3197023349726
615.666,1175.6170981664882
618.274,1287.4364206328014
620.88,1425.876274513565
623.484,1588.4160428476293
626.086,1748.4396918868815
628.686,1901.6643379548568
631.284,1961.8069095434334
633.881,2013.7269998857278
636.476,1981.2840052432725
639.068,1882.7656917646264
641.659,1743.507238534452
644.249,1555.9864710987872
646.836,1322.0143330855503
649.421,1093.8777387774371
652.005,857.768139970512
654.587,652.638664261382
657.166,520.4898247629349
659.745,392.7504679153253
662.321,288.3730070112374
664.895,194.50008429258878
667.468,159.5598044757926
670.038,115.50382541987437
672.607,111.80735355649813
675.174,85.85009170094463
677.739,69.15432972023336
680.303,31.86113043933983
682.864,46.15889649979226
685.424,46.61670626665409
687.982,61.27955810336152
690.538,87.52552435490134
693.092,104.25624358485084
695.645,101.1826509076468
698.195,74.9202321303892
700.744,47.65570646606375
703.291,0.48037591343245367
705.836,5.961569875021723
708.38,14.047423108429939
710.921,44.733558492459
713.461,62.01548471814522
715.999,99.12670972146589
718.535,128.20542554462236
721.069,150.77071700684837
723.602,144.19877037521928
726.133,116.72289155925819
728.662,75.19542906746483
731.189,59.2306493447868
733.714,55.77618353866592
736.238,37.68447426508783
738.759,8.284222374627916
741.279,-24.381499614839868
743.798,-30.364753133052545
746.314,-22.003191553210854
748.829,-26.110520708684362
751.342,-21.21458163066245
753.853,-38.70019742301338
756.362,-40.19011804046431
758.869,-19.87834814357484
761.375,-17.387288529589114
763.879,1.37511823050545
766.381,10.834432631121217
768.882,10.987810690251536
771.38,-1.0245702590141263
773.877,2.1757237468323183
776.372,21.157761474185463
778.866,63.49076752193969
781.357,74.69650049395295
783.847,99.01115498103081
786.335,108.95678735244155
788.821,131.57940821408738
791.306,174.54421772382784
793.789,231.46893614489
796.27,295.3047534469024
798.749,369.62204081168875
801.227,447.61034785334505
803.702,525.4117331716525
806.176,571.3588568102505
808.649,594.4035489052849
811.119,612.0215688102562
813.588,590.641173744671
816.055,539.2145445855601
818.521,491.31302118279973
820.984,418.5556710077715
823.446,354.79976256393
825.906,300.2360007021273
828.365,250.62661907879215
830.821,220.82918689982625
833.276,204.74898709306763
835.729,209.33901352837415
838.181,193.5999682377037
840.631,173.91359196853546
843.079,168.4712328325311
845.525,156.03574828752562
847.97,152.41769283380108
850.412,138.04674380560664
852.854,108.97169859125188
855.293,104.52713851986891
857.731,118.09533084340842
860.167,125.58241643292104
862.601,120.1326927129362
865.034,113.27146802441007
867.465,129.61934455910796
869.894,128.65412034160386
872.321,128.80602454461427
874.747,135.07676232814242
877.171,107.75379777385683
879.594,84.6484463432796
882.014,89.52444352645034
884.433,72.76460872868688
886.851,104.89465201448525
889.266,132.34507608951844
891.68,128.68926875881562
894.092,142.73873824209522
896.503,179.54311039385425
898.912,199.15203068536152
901.319,228.37706618665356
903.724,200.69646469139207
906.128,180.30277098457213
908.53,177.19806215784752
910.931,164.33680197248145
913.329,180.62583807943315
915.726,189.73392304897607
918.122,161.7107592098355
920.516,183.70128158357193
922.908,186.8027979618157
925.298,159.6364146977869
927.687,161.91846249782088
930.074,169.270017450983
932.459,151.0740411063066
934.843,147.95156816906956
937.225,165.5236084827916
939.605,172.07781091599009
941.984,166.66369867751018
944.361,190.3307617747114
946.736,174.4141685192758
949.11,167.91571512825772
951.482,162.83715627750485
953.853,132.41829755984259
956.222,124.51794508611874
958.589,139.99485508624275
960.954,146.23154065308404
963.318,143.4676022958954
965.68,101.94258230325886
968.041,81.08643815365645
970.4,86.61477783079613
972.757,93.81457132941637
975.113,94.9251002563251
977.467,84.09033600286193
979.819,21.216079822131178
982.17,9.017579096702093
984.519,27.495715034884824
986.866,46.69890678662432
989.212,72.19930221309596
991.556,100.47373056106858
993.899,78.76084561346488
996.24,60.584935506587726
998.579,65.18449445210854
1000.92,73.32174684000529
1003.25,79.2826475319755
1005.59,64.5435488215162
1007.92,52.43786739400775
1010.25,18.584656048698434
1012.58,23.983842087358425
1014.91,38.5400371314995
1017.24,60.39587262983537
1019.56,61.1700972705039
1021.88,84.81472201234214
1024.2,84.23406987805606
1026.52,96.42763527120815
1028.84,69.29960995986426
1031.16,75.5636471554817
1033.48,78.60000654417377
1035.79,109.5984136036925
1038.1,136.60568082516374
1040.41,156.38285274435952
1042.72,143.88139859200987
1045.03,129.71940494410705
1047.33,125.13395884840065
1049.64,118.40972142708392
1051.94,136.3551205270944
1054.24,157.2547338466054
1056.54,162.9645292043715
1058.84,144.6261524281274
1061.13,140.38121524298367
1063.43,144.27605935029555
1065.72,160.21413955415687
1068.01,162.47983545931334
1070.3,175.02416793099655
1072.59,162.22670603093934
1074.87,177.27652157244006
1077.16,189.4102865325715
1079.44,215.00751332153436
1081.72,238.209604575821
1084.0,289.1579505704235
1086.28,335.3748837739115
1088.56,425.0970143558741
1090.84,516.5133275991323
1093.11,603.2889955976643
1095.38,660.2796651449994
1097.65,655.7219360988151
1099.92,577.5190778407659
1102.19,485.6219838315494
1104.46,406.26726902312043
1106.72,356.12012917566085
1108.98,355.3695811269306
1111.24,376.91894115685636
1113.5,425.1477319235496
1115.76,468.86406558979775
1118.02,537.0665507590893
1120.28,598.1347708402
1122.53,617.924524316551
1124.78,623.6249697774631
1127.03,568.4729138065643
1129.28,458.6575750606605
1131.53,389.17772930099454
1133.77,346.69885442449663
1136.02,323.64837073314106
1138.26,378.0251669175834
1140.5,400.68531651698913
1142.74,432.62779437886456
1144.98,468.13733597603164
1147.22,496.16539196170197
1149.45,501.80632081977615
1151.69,496.5354862770573
1153.92,440.7806880487949
1156.15,377.3983544889925
1158.38,312.76878285976227
1160.61,258.4151891244901
1162.83,249.05132916957587
1165.06,224.15292954997312
1167.28,169.19578490140316
1169.5,112.27480773351658
1171.72,100.24688774687252
1173.94,62.349941626104055
1176.16,75.72672473785337
1178.37,65.52007140013166
1180.58,40.777658961205134
1182.8,16.78534330704565
1185.01,17.971922940214654
1187.22,1.3377125825579697
1189.42,-15.83116724760157
1191.63,-27.15326075299481
1193.84,-28.913675804502645
1196.04,-12.968841802008228
1198.24,11.96777693234776
1200.44,46.27805960993146
1202.64,38.772558352106216
1204.84,44.16668597156581
1207.03,42.509284706048675
1209.23,58.13500447585989
1211.42,87.09287161758584
1213.61,106.38438142733617
1215.8,131.48730498970122
1217.99,147.1652102924147
1220.18,160.9436500077029
1222.36,155.49111117838743
1224.55,152.09520299923338
1226.73,140.85313031257306
1228.91,139.90978615155655
1231.09,124.36251095006037
1233.27,131.16585175259843
1235.44,117.60774999565979
1237.62,134.02382452714596
1239.79,178.8926070067546
1241.96,232.88315825874156
1244.13,314.2360179580114
1246.3,414.2393924114517
1248.47,515.4672471011747
1250.64,652.731684942044
1252.8,801.3686578725367
1254.96,975.0474879694129
1257.13,1184.3899123719182
1259.29,1390.351032967879
1261.44,1563.9812184607572
1263.6,1659.7118159605086
1265.76,1647.6408625744457
1267.91,1557.1521303314373
1270.06,1430.6770282489501
1272.22,1279.36126630487
1274.37,1137.4458051236002
1276.51,989.1716151859789
1278.66,823.8272931820475
1280.81,689.4157259828655
1282.95,603.1302784218453
1285.09,559.4976477427667
1287.23,549.5207180477742
1289.37,538.0595099834761
1291.51,537.7835589984791
1293.65,530.6957221723387
1295.78,551.2274136159504
1297.92,567.1433636814584
1300.05,582.2559019816836
1302.18,608.8535261238387
1304.31,699.7485180622859
1306.44,789.3721794989137
1308.57,880.1557815692338
1310.69,948.9591335760967
1312.82,1010.2610564853087
1314.94,1064.0641421355372
1317.06,1119.8947505434537
1319.18,1158.6125310183982
1321.3,1151.1723242294295
1323.41,1130.719397605705
1325.53,1087.684680736862
1327.64,1022.9276198210298
1329.75,929.7361749699701
1331.87,808.9696746570903
1333.98,683.3445273083055
1336.08,609.5294567024307
1338.19,526.8121659430042
1340.3,473.28981095391805
1342.4,407.96423587981076
1344.5,349.8372084864634
1346.6,267.52946508500395
1348.7,229.4711840275354
1350.8,189.37817348848444
1352.9,165.2042497221414
1354.99,155.8079010344827
1357.09,139.71418985023
1359.18,123.25760716086188
1361.27,130.86778411548357
1363.36,148.92663218313578
1365.45,133.53024521986345
1367.54,128.63175391674008
1369.62,86.27941834312333
1371.7,111.14043477563223
1373.79,150.0247425271175
1375.87,193.45644982325462
1377.95,223.5309739648476
1380.03,227.15313387109086
1382.1,193.56095690854045
1384.18,169.32567619628344
1386.25,142.87553743490844
1388.33,99.0672247830953
1390.4,60.66204863897087
1392.47,8.89737151670306
1394.54,18.248510113566226
1396.6,21.238256424626115
1398.67,32.77020936184931
1400.74,1.366870225451521
1402.8,-7.163688161449272
1404.86,-27.82305376140198
1406.92,20.910863947850203
1408.98,50.13145815456414
1411.04,75.02723607879716
1413.09,95.02468010075972
1415.15,180.78825174630788
1417.2,215.41087186292157
1419.25,266.7948769861539
1421.3,322.080594753706
1423.35,334.7892050337807
1425.4,332.1084581963014
1427.45,335.32125052697575
1429.49,281.5199139270899
1431.54,235.3205056132856
1433.58,215.81519305544293
1435.62,157.76273415265632
1437.66,135.01705264729958
1439.7,116.24152782481247
1441.74,106.95661754681782
1443.77,97.15890985566216
1445.81,92.6544602932438
1447.84,92.39212921984063
1449.87,123.1778715138878
1451.9,169.1033119860474
1453.93,194.30765412660253
1455.96,184.8348269480955
1457.98,210.10967944700496
1460.01,281.1284607797095
1462.03,386.5540623432139
1464.05,573.3350693796801
1466.07,741.2295744857242
1468.09,934.0432768359981
1470.11,1204.7247242639164
1472.13,1495.2700791519005
1474.14,1759.6755033692546
1476.16,2014.9847813052668
1478.17,2140.6702762356585
1480.18,2179.5376962128353
1482.19,2122.5356218609068
1484.2,1938.088843694509
1486.21,1653.1459851519176
1488.21,1335.7985541995924
1490.22,1008.2333282700436
1492.22,742.3514058663782
1494.22,552.625353404932
1496.22,399.48016158171845
1498.22,302.86467792934445
1500.22,209.01351556441068
1502.22,147.58991431585855
1504.21,104.87622090094305
1506.21,71.72627386311183
1508.2,37.18445517655073
1510.19,33.77140851740137
1512.18,16.293567058786493
1514.17,15.366966980121333
1516.16,19.179156214519708
1518.14,-1.891753946655399
1520.13,-14.038989630202423
1522.11,7.830032461562951
1524.09,24.379423131755402
1526.07,24.654346830832083
1528.05,16.84292875088431
1530.03,-7.199933318164312
1532.01,-15.143042846647631
1533.98,-24.607473661341146
1535.96,-10.54752073365421
1537.93,3.463585534720778
1539.9,32.04320046008365
1541.87,60.99926131814436
1543.84,84.56837917021448
1545.81,94.51107354654368
1547.78,123.68319760584268
1549.74,127.98831567576326
1551.7,133.85389031718978
1553.67,143.37413605519578
1555.63,161.6433493004763
1557.59,213.660666842208
1559.55,274.18720529328857
1561.5,285.74605767843445
1563.46,281.14609954609136
1565.41,256.8153188898614
1567.37,242.705574641368
1569.32,227.9116408774005
1571.27,216.76644150325387
1573.22,186.50771350749142
1575.17,172.03990831194892
1577.11,151.02942645507346
1579.06,177.76175703716194
1581.0,171.99861716560713
1582.95,163.69223425728524
1584.89,162.0805807218951
1586.83,149.0207038833871
1588.77,146.22681780615653
1590.7,149.9369665498043
1592.64,134.817782661999
1594.58,115.20257900467527
1596.51,83.09134534213354
1598.44,34.15074492913959
