Raman Shift,Processed Intensity
331.095,150.5762908219276
333.909,3.4800998106093175
336.721,-24.04752933371492
339.531,17.16008509868061
342.339,52.79346442744463
345.145,94.90031795853247
347.949,61.05222469392265
350.751,34.39226742227993
353.55,28.63504776200398
356.348,48.542891680477624
359.144,50.49729310854491
361.937,97.92750041214549
364.729,138.7867219115601
367.518,174.21880759114993
370.306,232.60588319003546
373.091,265.23503191183227
375.874,294.67926184867747
378.656,344.6546638814466
381.435,358.73471243710856
384.212,297.9693281508553
386.988,222.78965481392652
389.761,97.1985506071569
392.532,24.722984096433265
395.301,-14.347855486138542
398.068,-42.105400342006305
400.833,-48.54549858690916
403.596,-47.23506734602506
406.358,-19.407321741918167
409.117,-24.723675753396037
411.874,-30.702314820374795
414.629,-42.24200858039694
417.382,-52.09830717832847
420.133,-64.45497896173447
422.882,-14.11450039941883
425.629,22.168591091953658
428.374,89.11624182199239
431.117,179.4982821272847
433.858,235.32287659588565
436.597,275.9317361965691
439.334,302.71437802712626
442.069,306.34619458646966
444.802,294.55033257054583
447.533,297.2881430968273
450.262,291.9496319288164
452.989,360.9724811291053
455.714,366.5086897600654
458.438,345.3293098226227
461.159,265.49108695694304
463.878,174.8602440002578
466.595,142.44578835421999
469.31,171.73281935225987
472.024,162.82535943646826
474.735,159.97013771543106
477.444,146.74704018871762
480.152,128.59289330470983
482.857,174.80143799462485
485.561,194.71379467303677
488.262,200.0994176857307
490.962,196.48943070993437
493.659,217.12900977360732
496.355,216.69167103662176
499.048,238.42213000053334
501.74,264.89820833739805
504.43,317.7927407185812
507.118,340.7307197388068
509.804,412.860726554487
512.488,478.47398056968314
515.17,546.7186272173085
517.85,593.5997400260499
520.528,634.7888464968155
523.204,620.2429777887087
525.878,633.2522898335715
528.551,628.8686368314825
531.221,649.8103352224393
533.89,653.1288324199454
536.556,669.2087088779303
539.221,650.6248230148112
541.883,638.3327894708832
544.544,614.7642192704825
547.203,599.5886266508055
549.86,581.999145414552
552.515,595.1887214730332
555.168,643.5882101511934
557.819,701.9139973021538
560.469,780.1203823265178
563.116,822.7329135726327
565.761,863.4198189749472
568.405,927.4681985971383
571.047,1007.7364076514264
573.687,1040.0826299940873
576.324,1069.5553563828603
578.96,1052.4410055915082
581.594,1057.9305931434178
584.227,1055.786400045201
586.857,1014.6276891393372
589.485,957.5973738377702
592.112,910.7905916174172
594.737,871.1118489442442
597.359,844.9893090544929
599.98,832.0414606882864
602.599,770.6009296803641
605.216,715.9525762651201
607.831,676.000163810194
610.445,676.6473132643673
613.056,716.273695700685
615.666,800.0683677167344
618.274,868.9345354063526
620.88,953.2514611884753
623.484,1060.398275397894
626.086,1183.230168828391
628.686,1296.9831567044475
631.284,1357.9883664624867
633.881,1376.3863255321085
636.476,1374.3174395935052
639.068,1336.112470834893
641.659,1231.1973019242178
644.249,1071.664366647522
646.836,876.4631281663696
649.421,690.9715096562113
652.005,559.7101820876178
654.587,431.67589962655484
657.166,309.34150170132943
659.745,213.13210554572152
662.321,143.28225112307018
664.895,115.69304605036132
667.468,105.3131200461271
670.038,73.23386509263173
672.607,43.16562797900724
675.174,13.390093320577762
677.739,-12.334952469436757
680.303,-6.251805174005767
682.864,7.587641307297417
685.424,35.46475866424271
687.982,48.232285311949454
690.538,51.076237843360104
693.092,18.563540352541622
695.645,10.403939472270395
698.195,-0.8356996360053017
700.744,-3.5409049264076202
703.291,-8.430536619799113
705.836,-9.556774060234147
708.38,-3.5908172224053487
710.921,40.65331567131898
713.461,77.4092752619058
715.999,113.67267732124265
718.535,127.15349425780414
721.069,98.13320852709603
723.602,106.46482318494554
726.133,106.28715815508076
728.662,108.16771792528334
731.189,107.29317829115416
733.714,55.70749214750913
736.238,-2.4023856726144004
738.759,-22.087440225609043
741.279,-20.25563352305153
743.798,21.470963164450495
746.314,36.6133204681164
748.829,11.311647644195546
751.342,-8.198410702817455
753.853,-46.395292182689445
756.362,-41.94770084861875
758.869,-20.905077140698722
761.375,0.3500225875391152
763.879,13.530494586921577
766.381,14.682777926554536
768.882,-5.003626720832017
771.38,21.23240932551198
773.877,30.295066301602674
776.372,57.80299954597194
778.866,83.37504876120374
781.357,79.72547108499202
783.847,71.85441225643717
786.335,80.90504444901103
788.821,84.68737077018295
791.306,152.6782202372417
793.789,230.06886180073275
796.27,283.62214217742553
798.749,332.0534332070847
801.227,363.98300778068074
803.702,399.26936814954706
806.176,459.1997170916893
808.649,477.53757193522483
811.119,450.80847381992635
813.588,409.91903029209243
816.055,355.2997674232238
818.521,340.47655335727745
820.984,314.7848790007795
823.446,304.51271014150575
825.906,261.61476813859736
828.365,223.5696677555277
830.821,180.09419785021714
833.276,161.0480782556167
835.729,158.100621422195
838.181,171.3973940604285
840.631,165.27449783091106
843.079,145.92523098684455
845.525,146.87627382605115
847.97,142.51149319060755
850.412,142.31003268076165
852.854,132.1320219164727
855.293,91.88523817989835
857.731,48.28700615311732
860.167,46.483240512990506
862.601,55.47701233554881
865.034,67.08092502418731
867.465,67.9647283331035
869.894,44.46483715263935
872.321,34.63194553271842
874.747,23.135783563429413
877.171,13.169874255606146
879.594,18.784861849985646
882.014,28.983744888267438
884.433,42.150443944239896
886.851,81.62122838008622
889.266,85.30376215030992
891.68,99.67710198661393
894.092,96.55360034468367
896.503,91.93604644620427
898.912,85.20814065421837
901.319,102.56306408657247
903.724,104.33681013413229
906.128,110.10342074089567
908.53,104.72260363648434
910.931,97.43496861626568
913.329,106.43345429765668
915.726,97.2442786859599
918.122,93.96503259733981
920.516,80.78848736750933
922.908,88.28830732232404
925.298,98.22857177218225
927.687,117.51615414928892
930.074,113.34357733538877
932.459,101.1890118466431
934.843,93.67341687565477
937.225,96.65577657157723
939.605,98.23309822499436
941.984,102.21660092898787
944.361,81.7983804306848
946.736,60.07521683994469
949.11,41.28666805232683
951.482,53.67221079111118
953.853,58.614095935030264
956.222,65.97068003647883
958.589,62.02880445876758
960.954,61.789507846711786
963.318,42.825167168645976
965.68,51.27949590129674
968.041,45.91516126227498
970.4,29.30425858542185
972.757,22.399738077100437
975.113,12.487783953440612
977.467,-10.4312349938441
979.819,-5.880860204905275
982.17,3.6628869153666983
984.519,-9.6094467702369
986.866,-16.602650887082973
989.212,12.730767879511632
991.556,33.67629945427325
993.899,50.23361849834782
996.24,62.64039287296487
998.579,40.46752067453144
1000.92,11.85722441257667
1003.25,23.5230499496015
1005.59,28.749865440925305
1007.92,44.06052814386953
1010.25,46.930172631781716
1012.58,13.548118055689429
1014.91,-14.658319832154348
1017.24,-8.071445226144306
1019.56,19.64063112839881
1021.88,43.76208951621038
1024.2,59.434164663523234
1026.52,64.27419684060169
1028.84,52.899444869034824
1031.16,59.16518484331186
1033.48,72.54566599526106
1035.79,96.08649512990723
1038.1,110.97606868039043
1040.41,121.2122428581115
1042.72,109.88805142192655
1045.03,96.04885201877437
1047.33,104.5018534766773
1049.64,146.86373833584116
1051.94,152.79876157023023
1054.24,151.54256359485134
1056.54,159.52122136827575
1058.84,140.25601378087617
1061.13,135.934853709731
1063.43,144.41229150209938
1065.72,129.01904226842703
1068.01,126.94294174677361
1070.3,148.03847359581414
1072.59,146.9220109735527
1074.87,170.6861057350859
1077.16,189.61377763036512
1079.44,205.27375588290693
1081.72,235.7109588637486
1084.0,263.4464975749295
1086.28,284.47767913297184
1088.56,380.99229596664577
1090.84,476.0829150147281
1093.11,564.6992621618667
1095.38,601.5529876268226
1097.65,582.4033837316636
1099.92,494.48595981381686
1102.19,444.8457790428906
1104.46,421.1946047612962
1106.72,384.72042777725164
1108.98,345.0874698482655
1111.24,335.57904430747476
1113.5,356.049940499508
1115.76,396.6883320258694
1118.02,466.0633992760461
1120.28,518.030094815753
1122.53,552.2529563942223
1124.78,540.6346818562592
1127.03,519.6494659590596
1129.28,466.6287181414111
1131.53,377.046780292889
1133.77,299.09235880877054
1136.02,243.33519474017794
1138.26,240.7736863251796
1140.5,299.69203532941106
1142.74,362.0412029104923
1144.98,423.1055797681531
1147.22,446.9315610562628
1149.45,435.5656451043876
1151.69,412.6258654726737
1153.92,368.5398896734091
1156.15,290.3545464640033
1158.38,243.7834483780705
1160.61,186.77842378031937
1162.83,148.5295203500093
1165.06,135.17929427869785
1167.28,126.82281375370462
1169.5,114.74575767967076
1171.72,113.42441916202006
1173.94,90.62094708565996
1176.16,53.09763531272779
1178.37,35.66454521366745
1180.58,16.608080579263287
1182.8,1.8338482469575865
1185.01,12.628566346218122
1187.22,13.231498020858453
1189.42,-14.07030513767404
1191.63,-21.27532980991191
1193.84,-33.66759299751129
1196.04,-23.05473077509305
1198.24,-13.863232133061047
1200.44,-6.376533548485213
1202.64,-24.449306463140147
1204.84,-29.745555734976733
1207.03,-17.54814732345403
1209.23,-0.42548142368673325
1211.42,20.625640748424985
1213.61,43.65619593836004
1215.8,42.098260648120004
1217.99,41.62214455246112
1220.18,64.94590486750735
1222.36,77.45438452889198
1224.55,94.10396465559938
1226.73,108.37493606143539
1228.91,101.79529933791946
1231.09,85.79789827051627
1233.27,60.196600873910256
1235.44,53.61486137966335
1237.62,47.866663176251905
1239.79,76.86127127291661
1241.96,142.9841752397026
1244.13,204.43041790920847
1246.3,265.7284002688182
1248.47,368.6446387338772
1250.64,436.5647128970609
1252.8,548.3980228015528
1254.96,683.5301652618398
1257.13,825.7753101845137
1259.29,958.5666721271587
1261.44,1092.385077095346
1263.6,1142.6637198158135
1265.76,1152.7881591048872
1267.91,1072.191551332135
1270.06,965.3546457887878
1272.22,828.0914943418716
1274.37,715.3589706121518
1276.51,608.7805748663673
1278.66,526.1702389094605
1280.81,458.96089288156645
1282.95,419.53779395976676
1285.09,367.5242360122222
1287.23,337.4005925856443
1289.37,289.7424075118063
1291.51,265.8870569426256
1293.65,268.26707805190813
1295.78,292.4577834513841
1297.92,307.98678036864067
1300.05,343.09587077744277
1302.18,377.21723724233493
1304.31,425.83058114420487
1306.44,474.55835614393413
1308.57,525.1181445032016
1310.69,565.51312864337
1312.82,593.3654198472273
1314.94,658.439863151209
1317.06,692.0249850947521
1319.18,732.8853700410818
1321.3,774.1187984027615
1323.41,775.7752896291495
1325.53,705.3809070986208
1327.64,670.3187058679305
1329.75,570.6858708977688
1331.87,499.38895051641225
1333.98,457.5724232167033
1336.08,417.71393111970224
1338.19,353.7195134383328
1340.3,305.542649464845
1342.4,209.27949203446406
1344.5,124.12124384619165
1346.6,64.25891473598335
1348.7,46.026174188017194
1350.8,61.089822893585506
1352.9,86.25931192903295
1354.99,69.4391237112768
1357.09,50.438295810470436
1359.18,25.73232571505241
1361.27,21.272694644407693
1363.36,33.915438980576255
1365.45,67.65924814266327
1367.54,83.50261226504472
1369.62,109.15811616672363
1371.7,117.3857809397332
1373.79,133.5168817280155
1375.87,134.02538455392687
1377.95,143.48033552568518
1380.03,138.4982500448266
1382.1,130.6955020136552
1384.18,110.2597606617444
1386.25,96.33095118195774
1388.33,74.62031060456934
1390.4,30.79134843328211
1392.47,-12.492526052080393
1394.54,-18.996566969077094
1396.6,-10.58134715361166
1398.67,7.36868044634366
1400.74,-1.102428247490252
1402.8,-20.569720568456205
1404.86,-35.84638704539066
1406.92,-10.555182409427516
1408.98,19.58586551548933
1411.04,42.38250498771504
1413.09,53.735689374987714
1415.15,94.11777006389639
1417.2,122.38202270269016
1419.25,192.1436020155095
1421.3,261.20811566424254
1423.35,290.2382933484689
1425.4,297.0873225720811
1427.45,257.6559939337094
1429.49,196.32127498857858
1431.54,158.79345553893222
1433.58,127.30662625778928
1435.62,104.19010969365627
1437.66,68.63036746571538
1439.7,44.71862174472858
1441.74,46.35561959107736
1443.77,63.91830205471433
1445.81,105.02171137035089
1447.84,141.89994577169546
1449.87,128.120447639026
1451.9,140.9649583134294
1453.93,143.04856814913683
1455.96,165.7006713277574
1457.98,216.6792540058525
1460.01,268.313753891073
1462.03,324.2669674373542
1464.05,430.8683856115324
1466.07,552.1618153742461
1468.09,692.286334494172
1470.11,906.8096273146411
1472.13,1105.6803681393033
1474.14,1308.3234617606531
1476.16,1505.5448077980764
1478.17,1602.102731702562
1480.18,1586.136558618561
1482.19,1522.1666158172693
1484.2,1351.3323303680045
1486.21,1169.6303268095878
1488.21,952.4858581550518
1490.22,732.9909035630194
1492.22,531.6184564852736
1494.22,385.1272890048026
1496.22,287.1810018881263
1498.22,226.82421749477362
1500.22,156.81591554389797
1502.22,113.43895935708042
1504.21,86.78581257732458
1506.21,107.66330350710064
1508.2,97.2592942082913
1510.19,71.61887341166766
1512.18,14.644358950171863
1514.17,-15.999937903034606
1516.16,-26.2210433346188
1518.14,7.264587671043046
1520.13,-5.354640707810404
1522.11,-5.080703718442919
1524.09,-21.34405103212157
1526.07,-2.6702737180251006
1528.05,4.986561597679838
1530.03,23.101052548652206
1532.01,-1.4235422835486133
1533.98,-3.5410204641641485
1535.96,-0.25271470469988344
1537.93,11.39250418367169
1539.9,9.726795405407984
1541.87,28.796678175076067
1543.84,31.93445694992147
1545.81,44.1867904932094
1547.78,56.171832366135504
1549.74,59.603038086402876
1551.7,47.241543715369744
1553.67,89.1342587309125
1555.63,123.99481604314929
1557.59,156.58452201015507
1559.55,169.90283026321163
1561.5,198.85400600824119
1563.46,199.4375998510509
1565.41,206.31987400353432
1567.37,197.4528475374882
1569.32,189.50286544794653
1571.27,156.04107247842535
1573.22,134.4005536128318
1575.17,124.2477602816607
1577.11,130.5825079967608
1579.06,122.83321208133611
1581.0,117.71402816185923
1582.95,122.51056408854811
1584.89,94.60368709394311
1586.83,111.89809285625165
1588.77,100.58420789602519
1590.7,49.233425306169465
1592.64,14.940959529573774
1594.58,7.040129708159839
1596.51,11.507119222414076
1598.44,23.675259040434184
