Raman Shift,Processed Intensity
331.095,130.88255793554617
333.909,102.65566170331795
336.721,83.84699632708953
339.531,80.78990822660398
342.339,111.55586523251259
345.145,156.76399348230825
347.949,196.70013812577054
350.751,227.55497164945746
353.55,210.28114982025318
356.348,198.4028485812987
359.144,200.15863428125476
361.937,191.54909580832737
364.729,198.95590529573155
367.518,212.33230739857754
370.306,213.44122761838025
373.091,283.9981425323358
375.874,365.71871192736717
378.656,408.6521252198836
381.435,418.56206692315436
384.212,329.879110686114
386.988,236.70073237979113
389.761,145.07703746943298
392.532,76.43934552951669
395.301,10.647822377785815
398.068,-38.960887790704874
400.833,-40.66888741238972
403.596,-32.281774373527696
406.358,-26.842918738063418
409.117,-23.20488664274717
411.874,-43.45801044946893
414.629,-73.64467600417174
417.382,-42.378374239494406
420.133,-47.93894796883478
422.882,-12.986894657320136
425.629,17.817564263860277
428.374,63.24302781747565
431.117,117.48688709010548
433.858,186.79434629050093
436.597,198.17268190319464
439.334,178.77216850876266
442.069,146.83843317551964
444.802,144.3314765178793
447.533,130.49707470709382
450.262,160.5334195772375
452.989,201.8768063502248
455.714,217.3920832656013
458.438,223.0869107341273
461.159,235.87363953899785
463.878,169.99785570371068
466.595,132.51454440756834
469.31,109.14520628211858
472.024,96.18259275521768
474.735,88.15734615699785
477.444,117.36178268297226
480.152,112.37368507448355
482.857,123.38962815224431
485.561,133.08211387369693
488.262,159.93290813279464
490.962,183.89971089311302
493.659,207.9399691781059
496.355,208.9156424423213
499.048,208.11701556166872
501.74,201.16746420463278
504.43,224.59488687014255
507.118,278.5459940683081
509.804,348.5005975011436
512.488,437.1763754337758
515.17,510.2907809227909
517.85,548.3229500445723
520.528,555.8470386950776
523.204,566.3893689134202
525.878,577.6665275864093
528.551,613.5853699149934
531.221,638.1001657378351
533.89,668.2602220453696
536.556,643.4479816843277
539.221,635.331407776554
541.883,624.7211300425824
544.544,628.2847339823561
547.203,660.2610500559354
549.86,684.4125381023136
552.515,680.9776717582349
555.168,669.3852276389171
557.819,630.1590507092646
560.469,630.3466291788855
563.116,661.090526539962
565.761,664.6760040813206
568.405,672.0548338786843
571.047,656.0833974992102
573.687,609.4750704203088
576.324,572.0859397817949
578.96,519.9148078523231
581.594,475.67462406724417
584.227,463.7924884950353
586.857,447.50489339896467
589.485,447.6196314654294
592.112,435.13484688943936
594.737,437.9057055077137
597.359,445.40630302702675
599.98,474.77728753826295
602.599,500.11157726857346
605.216,552.6448402382857
607.831,588.6126405844825
610.445,578.107584884588
613.056,553.9364684799484
615.666,563.0964694184677
618.274,598.2037233496189
620.88,648.0171365146857
623.484,683.9145796893931
626.086,672.2262249836781
628.686,698.9964540700298
631.284,741.507671173732
633.881,855.2803065393055
636.476,902.5490103731345
639.068,912.8817039289552
641.659,861.6557734504868
644.249,774.1533117331028
646.836,645.7039787331323
649.421,547.1135764628689
652.005,430.1878619808185
654.587,326.7325508581439
657.166,260.60093969272657
659.745,210.74152862322808
662.321,182.0075486050623
664.895,147.87125059112213
667.468,129.70962328393352
670.038,82.66153945923907
672.607,46.1039499086296
675.174,14.889982144082296
677.739,13.20608672155413
680.303,18.71490246587109
682.864,17.03145657561936
685.424,11.580318477901983
687.982,23.02418417221361
690.538,1.6448432684373984
693.092,-13.752043263461474
695.645,-38.503591598284856
698.195,-44.89920053372953
700.744,-37.751963171604984
703.291,-2.9700827520819075
705.836,-6.366388591437499
708.38,8.198810609476823
710.921,19.627254106871533
713.461,29.96368437857427
715.999,46.39585000762281
718.535,13.82593713729193
721.069,-14.748475264361787
723.602,-19.472507759002383
726.133,-22.110168030615114
728.662,-8.377682824908334
731.189,34.15173956657327
733.714,9.666954104130582
736.238,11.214114273801442
738.759,2.030002599330146
741.279,10.399170677958864
743.798,33.93965064478334
746.314,57.93628568472923
748.829,21.293108163572015
751.342,1.9619082351550787
753.853,-15.962530884733951
756.362,-0.3376738349570587
758.869,17.026764069614728
761.375,19.51167115960152
763.879,12.450441351659265
766.381,11.938495136643269
768.882,28.261848186813495
771.38,36.03996567733611
773.877,30.320997560160322
776.372,14.200823361700714
778.866,4.442096980529186
781.357,-4.668613276844098
783.847,42.20298200648631
786.335,70.8198429174131
788.821,80.75454977240906
791.306,99.77025267712042
793.789,93.82066870500421
796.27,105.47865050454129
798.749,159.22189776359028
801.227,178.1948591499347
803.702,184.2563485375381
806.176,214.21763742327835
808.649,214.7948330579611
811.119,238.2755422916216
813.588,240.8998211331084
816.055,224.66969573824963
818.521,209.92058815991595
820.984,195.2736944790479
823.446,176.8740772213937
825.906,157.9144720599436
828.365,126.39718975545429
830.821,121.94363714458655
833.276,105.27050479471154
835.729,89.57071656347921
838.181,104.94199820601125
840.631,102.00592217256008
843.079,95.57457145379271
845.525,101.22196533083411
847.97,75.80786607767959
850.412,49.811109473144825
852.854,50.47245912232211
855.293,31.985079825665252
857.731,31.16120142425393
860.167,43.43211597839081
862.601,37.038651136676435
865.034,40.93592921936897
867.465,60.50765011126555
869.894,38.280374154581295
872.321,44.113995518021284
874.747,76.10650128013549
877.171,43.3082543222049
879.594,28.960085744934986
882.014,19.01710157085995
884.433,-8.80370102944039
886.851,1.6908491555429919
889.266,46.93199931874483
891.68,50.49383171788418
894.092,74.37897513977441
896.503,110.16145922177407
898.912,112.0343306779962
901.319,124.47631714457157
903.724,115.20420531062587
906.128,132.36331428735252
908.53,155.95606421518232
910.931,164.8895924899996
913.329,144.59479856079315
915.726,144.93110301301363
918.122,117.13882569955126
920.516,128.74394482409275
922.908,135.08190364352595
925.298,121.48808383701521
927.687,112.91685030364442
930.074,107.56059596006139
932.459,97.04021510955067
934.843,117.50033871586811
937.225,113.84742681993157
939.605,91.41643238508732
941.984,80.82794133284756
944.361,68.13102686434445
946.736,78.56515140082661
949.11,96.51254471463471
951.482,114.2124868220842
953.853,105.14225754300651
956.222,87.58856225076761
958.589,75.55229095561867
960.954,71.41518214995153
963.318,49.93981998688423
965.68,54.07915526837269
968.041,62.595550242844865
970.4,40.63220435521475
972.757,23.475056187372275
975.113,23.0765901605796
977.467,3.1986908569124353
979.819,0.6031187670894269
982.17,4.3372264788006305
984.519,-23.408896228990898
986.866,-6.778610561643291
989.212,11.27508357067427
991.556,25.799071564125143
993.899,57.459171216636605
996.24,60.540133384945875
998.579,80.89802625037964
1000.92,121.38881006081851
1003.25,136.1540547298066
1005.59,117.04951457851598
1007.92,92.07370307770634
1010.25,63.03456282777438
1012.58,73.5970879197439
1014.91,83.52142248674727
1017.24,125.32953068406732
1019.56,124.6861523834691
1021.88,113.01785410562366
1024.2,111.27493709539272
1026.52,114.83620253997265
1028.84,127.84228821560396
1031.16,156.43376703904823
1033.48,168.46543609524883
1035.79,170.5063199507158
1038.1,180.83967396690832
1040.41,223.74870189932858
1042.72,248.89751159185312
1045.03,267.09302305201186
1047.33,271.665924145316
1049.64,255.75638819434857
1051.94,219.45693443499545
1054.24,232.66957418696825
1056.54,225.24867131003975
1058.84,243.81046932694994
1061.13,237.0664280701144
1063.43,247.77560794738156
1065.72,235.8399113506482
1068.01,248.11360977875984
1070.3,229.40334715088807
1072.59,227.61100026276154
1074.87,219.30511067147427
1077.16,242.33993562790738
1079.44,252.04592758059061
1081.72,282.7059279652717
1084.0,313.74564670877385
1086.28,391.8765226852306
1088.56,493.76239369612995
1090.84,596.2575950217847
1093.11,666.4069627347112
1095.38,704.1125036796766
1097.65,678.1333987870726
1099.92,601.22886352915
1102.19,518.1581512333985
1104.46,438.871032586399
1106.72,397.4601798995925
1108.98,402.0659323274217
1111.24,432.8286801330919
1113.5,453.31743943052584
1115.76,497.76795073584117
1118.02,538.2255394235858
1120.28,571.0689285639223
1122.53,562.0102422360089
1124.78,540.9045326508979
1127.03,487.89264060776804
1129.28,435.59167499778573
1131.53,393.856920879389
1133.77,353.7342237440473
1136.02,312.6028499725028
1138.26,282.7469187195784
1140.5,282.78397665612897
1142.74,295.903096520517
1144.98,315.81726138437784
1147.22,311.43003463266587
1149.45,319.3117537532248
1151.69,325.36620031683583
1153.92,327.7829842429828
1156.15,317.70421377989464
1158.38,306.70068929412605
1160.61,286.9147637267981
1162.83,287.48891733556275
1165.06,260.23242767465285
1167.28,244.33565862255887
1169.5,182.51292083827752
1171.72,144.28818936041785
1173.94,150.75701168249748
1176.16,175.0150824949028
1178.37,151.77729461732588
1180.58,141.8063137407264
1182.8,94.15067697880932
1185.01,45.525748562363106
1187.22,21.74229458121681
1189.42,-7.5792279880915885
1191.63,-44.5324774927376
1193.84,-41.11569828886741
1196.04,-22.422192220820307
1198.24,-2.211747378501059
1200.44,10.517928644915628
1202.64,-1.9449888036410812
1204.84,-10.978829699892003
1207.03,-10.152245101078051
1209.23,-8.55754691653442
1211.42,21.284522595127328
1213.61,40.18668692815686
1215.8,37.86655434319209
1217.99,43.184705695909315
1220.18,36.00182988472375
1222.36,30.226335488968516
1224.55,33.4810100261227
1226.73,37.007774447135716
1228.91,36.57244065652026
1231.09,37.226611889594324
1233.27,64.30767832781726
1235.44,87.10547938079003
1237.62,98.62420406348883
1239.79,113.43952946874106
1241.96,132.98433066826965
1244.13,121.07248585184016
1246.3,133.47030051401794
1248.47,169.84888402188312
1250.64,211.1174785636931
1252.8,309.42345476421474
1254.96,394.0094501571964
1257.13,464.11812670546215
1259.29,528.9921664162462
1261.44,581.1123621946199
1263.6,639.292851554057
1265.76,719.871588422239
1267.91,728.9484339944845
1270.06,711.4803904443138
1272.22,663.4720727292577
1274.37,565.2137994442801
1276.51,476.3768265323465
1278.66,420.29905718547525
1280.81,357.17551365054123
1282.95,300.05833284461755
1285.09,276.85676197030625
1287.23,270.76572555964435
1289.37,264.7896306132459
1291.51,284.26617173944123
1293.65,290.4377553410443
1295.78,283.0229238021118
1297.92,278.6925415794626
1300.05,280.5459812941958
1302.18,270.2063574422557
1304.31,263.6300458192834
1306.44,271.58286961213344
1308.57,297.8781902522944
1310.69,308.37690303121826
1312.82,304.1779089061192
1314.94,306.1419196391139
1317.06,319.27240579349814
1319.18,319.9060685395559
1321.3,345.23664479369677
1323.41,333.02918854807103
1325.53,326.23911410494634
1327.64,353.1550488348935
1329.75,414.1131145064055
1331.87,427.9254943297999
1333.98,414.5947142868331
1336.08,387.2660196984159
1338.19,339.7987994113712
1340.3,276.9570576042438
1342.4,251.5046474978767
1344.5,204.3005050659758
1346.6,147.4415017932979
1348.7,122.11958314812728
1350.8,89.38366895951663
1352.9,74.04441093738228
1354.99,92.57895019260673
1357.09,99.79757951903571
1359.18,93.17707234215413
1361.27,74.09877357251935
1363.36,47.610499983005866
1365.45,48.855107252718426
1367.54,87.54667605852023
1369.62,123.78003632462742
1371.7,160.55458212534404
1373.79,195.6790389687569
1375.87,192.91432631852513
1377.95,155.35451535376706
1380.03,142.47445339561045
1382.1,134.89167404802743
1384.18,155.890212100579
1386.25,174.08727557401062
1388.33,151.1951558610931
1390.4,106.87837596268855
1392.47,64.94417205715558
1394.54,24.675832212612477
1396.6,0.8327017658650675
1398.67,-4.873620822472731
1400.74,-36.826895093358644
1402.8,-20.458611530970757
1404.86,1.275825450483353
1406.92,31.659005652413725
1408.98,52.163895197940974
1411.04,61.50145686823589
1413.09,49.00160698786658
1415.15,43.32750564347066
1417.2,48.380323092901335
1419.25,69.63257760295073
1421.3,91.1281399537279
1423.35,103.76795222876399
1425.4,122.7386037479614
1427.45,89.84566890530937
1429.49,94.3708545304114
1431.54,85.5005758214404
1433.58,61.8021513257122
1435.62,51.31904553930258
1437.66,73.8565876971511
1439.7,77.55340484887006
1441.74,104.11952160122951
1443.77,117.16969795587283
1445.81,108.84248143274954
1447.84,121.37164014592622
1449.87,146.65759587939647
1451.9,167.60076192479914
1453.93,167.3396428238948
1455.96,175.0127436348514
1457.98,160.28238396043662
1460.01,181.04898816668515
1462.03,214.6891851253738
1464.05,285.0558127183981
1466.07,350.66839853262604
1468.09,467.3322119833267
1470.11,546.3287450090168
1472.13,663.1300022901244
1474.14,768.2080295628891
1476.16,878.6539657427818
1478.17,964.7970950479237
1480.18,1051.061994360602
1482.19,1022.8732996364013
1484.2,969.5128532657113
1486.21,875.3101847685757
1488.21,737.0234676800064
1490.22,603.5538097686424
1492.22,453.8976384934963
1494.22,286.2419436035648
1496.22,177.10713878505385
1498.22,122.299447118133
1500.22,86.81566748606906
1502.22,62.890798127217295
1504.21,34.855183996539836
1506.21,9.134521269978677
1508.2,-24.55966196069039
1510.19,-40.8966678501497
1512.18,-34.164718609191596
1514.17,-8.366191767736609
1516.16,19.40142586114962
1518.14,9.707437706096243
1520.13,5.216502764549432
1522.11,17.926724739420933
1524.09,20.502980249327493
1526.07,40.657866615068315
1528.05,44.19931631277518
1530.03,15.459163808010317
1532.01,13.150283818434445
1533.98,20.652301005048457
1535.96,19.202061568197678
1537.93,10.56029663497634
1539.9,30.583047551400114
1541.87,43.126424507907586
1543.84,44.14184241381281
1545.81,61.48554248604546
1547.78,80.06144717122083
1549.74,62.91639602009377
1551.7,102.47823870486422
1553.67,127.88916613172341
1555.63,125.24380345816189
1557.59,145.6368269197983
1559.55,166.68677113340232
1561.5,167.72650306659125
1563.46,198.5175055313266
1565.41,214.48797020122447
1567.37,202.1137477717191
1569.32,200.1088219297526
1571.27,181.8538785615574
1573.22,159.1582082937755
1575.17,144.30732332028697
1577.11,128.01533613380047
1579.06,105.23448111458697
1581.0,106.77415992873512
1582.95,108.25332025974399
1584.89,123.76712025440133
1586.83,155.9345453496153
1588.77,130.42221557544053
1590.7,106.94438333429207
1592.64,85.26293118015838
1594.58,61.54451245495511
1596.51,39.86054906773734
1598.44,22.211038797712035
