Raman Shift,Processed Intensity
331.095,111.33437790528251
333.909,91.90781872649313
336.721,75.52199670114896
339.531,66.01025628039861
342.339,70.94405938910177
345.145,84.99013940080022
347.949,117.14860749360196
350.751,91.56248757751746
353.55,74.04153693607077
356.348,73.96701924887475
359.144,107.52981094753704
361.937,142.5875551906056
364.729,191.8551491718631
367.518,209.80951714290723
370.306,223.78485962620834
373.091,286.1155216757961
375.874,357.85028970937174
378.656,415.65716453089317
381.435,439.7757534007792
384.212,343.25537639183494
386.988,223.24079179278897
389.761,124.1150643689707
392.532,47.690052670612204
395.301,13.968324912574644
398.068,0.9050748540785207
400.833,-34.35377184536628
403.596,-37.85249888908629
406.358,-47.34939774922623
409.117,-37.45961730472163
411.874,-31.36944606792258
414.629,-28.931551903148375
417.382,-33.80784480290549
420.133,-37.3266287254105
422.882,-31.149280333150273
425.629,-19.127407574607332
428.374,38.506654330084984
431.117,121.42553399399822
433.858,183.30203672136986
436.597,192.04721836701037
439.334,182.1913163385807
442.069,131.0742044083736
444.802,130.65489514414912
447.533,160.9877090066434
450.262,219.60320535182836
452.989,240.79387533794443
455.714,235.8045967372932
458.438,221.68975541469263
461.159,220.40846204403806
463.878,186.77691168199362
466.595,154.61121953217298
469.31,107.91787575693252
472.024,60.22705743201914
474.735,68.97355954884233
477.444,93.73486887388754
480.152,129.27876792633015
482.857,148.46808898428435
485.561,161.7369061356335
488.262,149.80482256695996
490.962,188.67697213817928
493.659,199.3106876238512
496.355,210.71074038305687
499.048,228.8817228864209
501.74,247.2566217193248
504.43,231.8396762994107
507.118,265.0159042607538
509.804,294.97967445707945
512.488,344.0204228221237
515.17,423.14170156333694
517.85,475.0611807365258
520.528,498.16303077288376
523.204,500.49792405364906
525.878,514.2116079133266
528.551,535.9258585952975
531.221,540.7861018740946
533.89,555.3185574872064
536.556,596.7635740430774
539.221,595.3137258338679
541.883,618.5900048863141
544.544,600.5465844411524
547.203,578.89939195635
549.86,574.6499202055793
552.515,625.2280859957464
555.168,617.5874698368903
557.819,635.538650850167
560.469,614.6063511996331
563.116,630.3627710002256
565.761,633.6180660828732
568.405,642.0393971881899
571.047,608.6747410649218
573.687,551.8100349017391
576.324,489.1120350447477
578.96,456.19974714356476
581.594,458.5491896307217
584.227,430.63625243917204
586.857,424.270031910271
589.485,374.7833085589009
592.112,343.5087391243055
594.737,350.0169533828407
597.359,383.54512715119745
599.98,409.5684124324757
602.599,442.2761294670204
605.216,444.4289111642156
607.831,467.45394277236346
610.445,485.44496345333255
613.056,477.35274404768325
615.666,478.6993743636017
618.274,505.7687409420205
620.88,515.3684333931719
623.484,542.544031685527
626.086,545.5314886728265
628.686,572.1380840496868
631.284,624.6471878310058
633.881,684.8658809742278
636.476,714.4582902873208
639.068,695.8027328605604
641.659,644.1345747840232
644.249,597.9271851031849
646.836,554.3681278697436
649.421,457.9305922876847
652.005,363.6114895260116
654.587,273.5028828648069
657.166,185.5538940317715
659.745,123.95165715781559
662.321,74.26417749455095
664.895,30.916523465122282
667.468,35.95273300074541
670.038,38.70248178201473
672.607,38.11442128457247
675.174,30.375234723011545
677.739,-1.4236879575973944
680.303,-27.333860804466894
682.864,2.2598333212135913
685.424,10.210582536253696
687.982,14.41917803097067
690.538,32.31021306408411
693.092,21.64161632850346
695.645,9.26656772247452
698.195,0.18112840644789685
700.744,-9.809081521010285
703.291,-20.13649012925316
705.836,8.337962113948834
708.38,-10.056119085210867
710.921,-16.274763458854977
713.461,-11.17867493256881
715.999,-11.199890453290664
718.535,7.562988085252982
721.069,38.82098935212434
723.602,36.90430028572564
726.133,20.90512713369708
728.662,32.630080302335955
731.189,10.790654444114807
733.714,4.146089497574849
736.238,-11.020434939440747
738.759,1.5267757158198947
741.279,20.356887309013928
743.798,27.039206408808695
746.314,15.857468814610456
748.829,8.71460425477244
751.342,-21.819641772344767
753.853,-32.55632425254271
756.362,-11.163486338523853
758.869,-8.594730187022833
761.375,2.3393517320628234
763.879,13.971173897964945
766.381,12.20472642991217
768.882,12.039381873239108
771.38,23.522273414057963
773.877,19.414958808227766
776.372,22.47913192936403
778.866,28.90519145971257
781.357,25.026523866737534
783.847,47.31950066542231
786.335,63.35585663295569
788.821,83.564591832936
791.306,105.27958792529716
793.789,136.93008161908847
796.27,130.94542383954104
798.749,131.80269603799024
801.227,158.1219455494138
803.702,174.33284952139638
806.176,198.38899789071093
808.649,237.38693826465897
811.119,236.6137922309797
813.588,222.21391928680418
816.055,212.90319981523385
818.521,192.87379425239192
820.984,187.74652130210052
823.446,156.18990281721767
825.906,129.5392086809752
828.365,86.55835883116742
830.821,52.72563480813915
833.276,47.85272463611773
835.729,81.13233913311296
838.181,98.13820917319526
840.631,112.87270199638556
843.079,130.00491370902978
845.525,127.29923797464448
847.97,92.61536327619251
850.412,65.24160351169735
852.854,33.60918097080912
855.293,3.4350807399437144
857.731,30.864905107424192
860.167,58.13953749243137
862.601,57.690377802523244
865.034,42.61553017211236
867.465,18.917895462846218
869.894,-15.113879093148626
872.321,-9.667307392887324
874.747,8.403456609285513
877.171,26.720471786342614
879.594,10.858196056567976
882.014,18.772053553916294
884.433,6.703192274568892
886.851,24.226098866342227
889.266,48.010499132388986
891.68,77.82135377298914
894.092,74.09028269877172
896.503,98.48698934393428
898.912,116.91925640802924
901.319,115.1043701691865
903.724,124.37864003542222
906.128,105.41168000072207
908.53,99.20640438682949
910.931,93.43235691836912
913.329,110.80665884558994
915.726,115.76067135282233
918.122,130.9638008240729
920.516,109.1330183943378
922.908,113.60428426281987
925.298,122.33254343471867
927.687,141.1774357487368
930.074,154.33186304743003
932.459,161.3219849189968
934.843,141.959595391447
937.225,135.2468805791459
939.605,127.37641442459312
941.984,80.15972586877774
944.361,45.693961259624075
946.736,35.02854676043785
949.11,19.546136472644548
951.482,32.01022722518542
953.853,63.088963840112
956.222,65.45037492716847
958.589,80.95284677361451
960.954,71.12131151975473
963.318,73.62343533447347
965.68,84.74580659076628
968.041,90.7272668984167
970.4,91.09224213668062
972.757,67.93645443934793
975.113,29.022157989332527
977.467,4.587660527547541
979.819,1.2044639093976457
982.17,-7.746544765788258
984.519,-8.503663446605287
986.866,-8.114850055449779
989.212,13.18132556047567
991.556,37.5747287581828
993.899,78.49318253817705
996.24,100.26913423589895
998.579,127.37775464899755
1000.92,118.62741811698038
1003.25,101.63589688657203
1005.59,102.02084119136248
1007.92,93.82835456954945
1010.25,90.4853787054908
1012.58,100.46636398554415
1014.91,95.57898767295842
1017.24,102.58320541609783
1019.56,99.33411228047612
1021.88,99.9248037807863
1024.2,113.49590357960392
1026.52,122.90223404323092
1028.84,150.99853441658547
1031.16,172.21089328381436
1033.48,169.8700857907968
1035.79,154.92586324861009
1038.1,169.85171892746303
1040.41,182.5496538506327
1042.72,204.49303782649577
1045.03,209.05994667103437
1047.33,202.05697562082833
1049.64,177.33829084127706
1051.94,179.23420474434715
1054.24,173.50356083012844
1056.54,210.66707090934347
1058.84,227.3406523258475
1061.13,231.80686041723152
1063.43,242.2053685944652
1065.72,223.48535318345148
1068.01,223.88168779039165
1070.3,242.7244710004777
1072.59,235.43903026706903
1074.87,243.54592580085819
1077.16,254.28000207808986
1079.44,269.68562982497133
1081.72,283.75956704969803
1084.0,323.07001055067894
1086.28,383.3756474247566
1088.56,464.911373242094
1090.84,545.7216292686792
1093.11,617.9937396888317
1095.38,618.8198202562817
1097.65,592.1015440881056
1099.92,524.2168122205644
1102.19,447.44832892685235
1104.46,377.1740817967418
1106.72,348.2482980067091
1108.98,380.19192439958306
1111.24,420.0497742308705
1113.5,460.7714834388803
1115.76,504.0210383434287
1118.02,525.0815414397682
1120.28,528.9980724306251
1122.53,518.4348349725178
1124.78,508.29420818397693
1127.03,496.14532196330583
1129.28,473.74787040156525
1131.53,416.29021090985634
1133.77,353.53222525135834
1136.02,281.66246628765384
1138.26,264.44101901076397
1140.5,273.7233139561379
1142.74,295.31727394898166
1144.98,309.55474656486376
1147.22,330.43436516174916
1149.45,318.8596480072747
1151.69,310.35328788221045
1153.92,298.7714416839217
1156.15,273.637067648875
1158.38,268.13992924181207
1160.61,253.8508847592209
1162.83,212.4837959804263
1165.06,188.41934158058348
1167.28,168.56216387699897
1169.5,137.9123012897453
1171.72,113.23185889751153
1173.94,91.66405994583442
1176.16,95.257059260093
1178.37,102.58299475373792
1180.58,95.45227703176351
1182.8,74.8183551846505
1185.01,11.492006391838686
1187.22,-44.19199352242299
1189.42,-46.89867572370508
1191.63,-18.245254236620895
1193.84,4.008398020341019
1196.04,32.10260129525568
1198.24,-7.293566610677772
1200.44,-8.60608649146684
1202.64,-23.736953523539114
1204.84,-24.016562392925835
1207.03,-19.34656952000978
1209.23,15.84771835787069
1211.42,20.33161969444791
1213.61,53.53725634431339
1215.8,53.13497147808448
1217.99,20.604749549197777
1220.18,4.379064832136692
1222.36,12.985729960654908
1224.55,37.666937015494796
1226.73,60.23639429995478
1228.91,63.984083481126845
1231.09,51.438159588273265
1233.27,34.74589863025744
1235.44,31.19750235582933
1237.62,36.65466491867619
1239.79,39.83628239961217
1241.96,38.84225756686146
1244.13,61.96301892206702
1246.3,90.44142069866871
1248.47,151.56797619362328
1250.64,223.01418633720823
1252.8,284.2134873104569
1254.96,340.0755314959156
1257.13,399.8909446188868
1259.29,443.6646543172387
1261.44,490.4492187112139
1263.6,527.821012116093
1265.76,558.0706964691385
1267.91,565.298454661305
1270.06,551.1282714879962
1272.22,503.9936431712463
1274.37,434.37566783428565
1276.51,345.5649454999152
1278.66,294.3758590412615
1280.81,258.09895037063256
1282.95,223.4056775807485
1285.09,202.7769816097873
1287.23,198.1699481445189
1289.37,206.25589809487155
1291.51,224.84895425897253
1293.65,239.2393698929577
1295.78,230.52685728077563
1297.92,211.0015353516162
1300.05,202.33440110685683
1302.18,205.8630391422521
1304.31,207.49637878916633
1306.44,223.6194512558027
1308.57,215.71243248271685
1310.69,198.58873361737528
1312.82,213.3949962506233
1314.94,216.80156384362704
1317.06,247.6691436310066
1319.18,283.0488018573012
1321.3,288.70576853724447
1323.41,267.92895650175046
1325.53,275.5785756819939
1327.64,274.9908902506386
1329.75,294.74011862019756
1331.87,321.11461915568566
1333.98,330.7359330301231
1336.08,302.9873508895698
1338.19,285.44247951815146
1340.3,240.15095136023206
1342.4,191.5908007092496
1344.5,152.33512561084694
1346.6,111.86160690885276
1348.7,69.40964633888643
1350.8,56.456552241011195
1352.9,29.336582415235625
1354.99,22.38379650083084
1357.09,16.932051212791066
1359.18,18.934046149420055
1361.27,43.96132425348992
1363.36,97.53760733781905
1365.45,117.32927639833406
1367.54,112.52632811760554
1369.62,110.03285517791232
1371.7,99.41943133620293
1373.79,109.20882983239585
1375.87,156.49507513100843
1377.95,156.75297085326542
1380.03,151.8381038996804
1382.1,158.41542000121171
1384.18,139.7211326037534
1386.25,97.9912984192872
1388.33,92.93801202466125
1390.4,57.89226712703089
1392.47,32.28015116263555
1394.54,36.051420847952386
1396.6,39.869982492755526
1398.67,31.637705646511222
1400.74,27.446808173338923
1402.8,5.198907993643843
1404.86,-21.25211565044674
1406.92,-30.100115323961518
1408.98,-18.443810849385272
1411.04,1.6655967866929586
1413.09,18.74823685316528
1415.15,25.32414024102127
1417.2,27.91323957354348
1419.25,59.94013311567414
1421.3,89.06742264799755
1423.35,102.6719084835895
1425.4,101.70173686580597
1427.45,77.72402355654958
1429.49,59.115334567396076
1431.54,83.72835736691127
1433.58,92.65381018320454
1435.62,88.07758940172198
1437.66,72.47125029637209
1439.7,54.59201157017628
1441.74,66.38752180068036
1443.77,80.56729255203572
1445.81,80.79317910612713
1447.84,94.15557547941148
1449.87,98.6972284873757
1451.9,89.93705180899497
1453.93,115.96536862261291
1455.96,124.92010662278335
1457.98,147.46299303710566
1460.01,181.8271782144909
1462.03,233.9124782610479
1464.05,263.19014148549195
1466.07,313.9409481778853
1468.09,365.92188181694996
1470.11,440.4613717059515
1472.13,505.459297513343
1474.14,635.9584223848394
1476.16,722.8110641507344
1478.17,802.7743379617875
1480.18,887.3196846393951
1482.19,869.8709704543342
1484.2,808.8044916674189
1486.21,759.6870743082516
1488.21,627.2284596682518
1490.22,504.8051183651139
1492.22,420.1269215501195
1494.22,280.38000259163664
1496.22,181.70295209195456
1498.22,119.90110814221089
1500.22,60.256084672559155
1502.22,48.24006170708981
1504.21,47.277694666371644
1506.21,38.793737955712686
1508.2,11.308287601035545
1510.19,-15.039404686672242
1512.18,-18.729022208814285
1514.17,-11.192510938635678
1516.16,-0.9093135016521501
1518.14,27.2602996558403
1520.13,-9.400959197975226
1522.11,-4.229298923294891
1524.09,1.1534847436835207
1526.07,-10.398086093383426
1528.05,-4.981743396644561
1530.03,-1.361759268753076
1532.01,-14.4451378567353
1533.98,33.19457318903892
1535.96,45.31728064169624
1537.93,43.635389755432016
1539.9,64.19475308498977
1541.87,49.469905019428325
1543.84,60.60215345875008
1545.81,76.82814768100184
1547.78,72.95606525699577
1549.74,60.22275134598067
1551.7,84.1508579913152
1553.67,90.26312627328002
1555.63,107.22523989046067
1557.59,111.60772636017782
1559.55,103.02881059987385
1561.5,95.91631612753986
1563.46,106.12670911929104
1565.41,128.65938056217374
1567.37,126.22807126412249
1569.32,119.78467781629593
1571.27,90.5192490316008
1573.22,75.76474428798224
1575.17,79.18750615742215
1577.11,115.93011398732597
1579.06,119.37328510095199
1581.0,115.94539504545628
1582.95,96.07485498279357
1584.89,72.52344146157361
1586.83,70.00534047462702
1588.77,74.09190580228983
1590.7,48.59260783187483
1592.64,57.65026809143001
1594.58,66.97915092635503
1596.51,64.15067422363586
1598.44,35.664834421791284
