Raman Shift,Processed Intensity
331.095,61.88903012111359
333.909,-76.29029223295038
336.721,-80.02567337558185
339.531,-12.317107134307207
342.339,20.76399643686591
345.145,68.86053151563146
347.949,48.25827411242199
350.751,27.2430311000071
353.55,-14.327925042600327
356.348,43.02176898993821
359.144,42.19709731128523
361.937,91.19833768256467
364.729,77.50202006579002
367.518,102.39426612968055
370.306,141.4946049459445
373.091,201.13693154271914
375.874,279.7028464103896
378.656,313.7645188169372
381.435,256.9894548851871
384.212,178.47383709863516
386.988,119.6472923786996
389.761,51.84432682862689
392.532,54.923379525037944
395.301,7.409685833267304
398.068,-5.40947832490474
400.833,-17.913361727333722
403.596,-15.623921412272466
406.358,-23.920102051720733
409.117,-35.51402210001061
411.874,-63.784304581654396
414.629,-28.96655358986527
417.382,-4.01050192456205
420.133,32.896165710447804
422.882,31.184938154003703
425.629,76.2874122655121
428.374,140.1590882614023
431.117,219.80316866714838
433.858,305.79436521744765
436.597,388.9931819468766
439.334,418.83162685197294
442.069,452.31320926761146
444.802,457.0605562909982
447.533,435.6487434913747
450.262,413.84338752448684
452.989,399.9815958899135
455.714,420.40053573601335
458.438,434.151716950586
461.159,425.0486085848679
463.878,401.42854099180477
466.595,371.15270320242007
469.31,334.7489974450459
472.024,327.3644174740748
474.735,321.0507602320431
477.444,337.1931946545815
480.152,390.6531161896487
482.857,442.72052512628534
485.561,471.3521192090734
488.262,477.7427195859327
490.962,477.18241104162735
493.659,471.2470155646165
496.355,467.27428019961826
499.048,488.26863632874483
501.74,529.329768476447
504.43,567.3668974001689
507.118,637.0511584191036
509.804,670.339408314383
512.488,725.1408893721218
515.17,806.1743696169337
517.85,915.7300449502095
520.528,975.6695365264936
523.204,1021.0925547965326
525.878,1028.3845159312723
528.551,1053.264158245854
531.221,1033.8787776712288
533.89,1035.328034654351
536.556,1036.7115705821866
539.221,1019.5575765866624
541.883,1031.2989813972617
544.544,1056.8448772888346
547.203,1053.294803172279
549.86,1052.1768372090041
552.515,1066.971403711124
555.168,1064.587460994016
557.819,1095.7910701812766
560.469,1153.1101544858502
563.116,1225.5964013483099
565.761,1290.4919264798923
568.405,1348.562604572202
571.047,1369.0028285783492
573.687,1384.9116975655234
576.324,1406.29301409137
578.96,1405.6267101517992
581.594,1415.8212255097474
584.227,1406.0706479286987
586.857,1369.0451867395514
589.485,1339.7006940265228
592.112,1302.0405667654354
594.737,1216.258601342956
597.359,1121.3580385520218
599.98,1024.675370492027
602.599,950.7850998499739
605.216,938.2616420387571
607.831,922.7745606687931
610.445,944.9457077815473
613.056,968.0635069402088
615.666,997.8924744156006
618.274,1080.8636927530429
620.88,1220.9795700535024
623.484,1356.9566944928451
626.086,1520.0829745553679
628.686,1636.5985887911502
631.284,1704.5055070019598
633.881,1735.329392379559
636.476,1715.9291226916193
639.068,1632.1158352771663
641.659,1470.1767339467838
644.249,1245.9703244542548
646.836,1035.4502213967726
649.421,840.7127646389631
652.005,699.3303500226261
654.587,586.6847600764677
657.166,475.58620901155336
659.745,372.8447686691379
662.321,291.84179446850385
664.895,214.9108751643139
667.468,163.09973498492127
670.038,136.93213577068218
672.607,100.02692196940598
675.174,107.57420848895526
677.739,117.33537807366156
680.303,77.50022153787722
682.864,85.92503038047926
685.424,93.32307035176291
687.982,74.40744380540582
690.538,53.4149044313981
693.092,29.915386274667526
695.645,-25.568943436767768
698.195,-17.27795930616503
700.744,16.45310284575453
703.291,72.47937100352328
705.836,71.51301226662281
708.38,79.02800518848153
710.921,62.83157878214206
713.461,53.73088962117117
715.999,60.96160370246707
718.535,93.56885926145742
721.069,107.12156292063264
723.602,83.37906679046046
726.133,92.29117890363932
728.662,89.33150698267082
731.189,56.11651649315445
733.714,29.405541078032456
736.238,18.48174537278919
738.759,-12.324055036501704
741.279,25.080902535356017
743.798,55.02752878310412
746.314,43.03727252727458
748.829,20.917367973291675
751.342,-24.28677517227743
753.853,-39.339181585479764
756.362,-19.718063065865863
758.869,19.05085478035153
761.375,16.299096867344815
763.879,21.12020096195647
766.381,-20.24932950782477
768.882,-25.66812026343814
771.38,-14.661354319656311
773.877,-4.182676318970152
776.372,6.719138639738503
778.866,41.947801886808065
781.357,50.93093759122439
783.847,91.28674726527197
786.335,101.68115045966624
788.821,122.49444926821525
791.306,163.3451356896103
793.789,222.2803656559022
796.27,256.8711949657313
798.749,311.8316247413695
801.227,360.87574212385516
803.702,420.5748609681359
806.176,469.16704349058637
808.649,506.1285266784412
811.119,493.6022915563635
813.588,470.0647276911109
816.055,435.56372626762277
818.521,386.8615350698774
820.984,306.0061848903101
823.446,229.8552968916274
825.906,189.12369949242066
828.365,172.95485477659986
830.821,169.7303801409139
833.276,177.45099851390296
835.729,151.40320286055658
838.181,105.15925402031053
840.631,90.0533690212369
843.079,66.41981415613736
845.525,34.735759963401506
847.97,35.66889811262081
850.412,78.50601067116622
852.854,72.91487270409698
855.293,94.42044058835154
857.731,93.16675461265413
860.167,50.583603482180024
862.601,29.005569775604727
865.034,57.48155159262933
867.465,37.48904610626914
869.894,26.457956924665723
872.321,52.532496690995686
874.747,64.14261349290337
877.171,90.00398870050412
879.594,119.9751776615285
882.014,97.62903611075217
884.433,66.77652753181155
886.851,87.32386385234713
889.266,96.60583661534474
891.68,127.90962434093854
894.092,147.61764750727843
896.503,134.8266140075698
898.912,140.72846936902988
901.319,155.6103945908817
903.724,147.85480398235586
906.128,154.27267633402607
908.53,149.53212418437352
910.931,159.5869630863549
913.329,165.05766182635284
915.726,154.23134026217303
918.122,134.68081478009276
920.516,141.8836437518985
922.908,143.22212537288124
925.298,166.07853359506726
927.687,180.69225882235378
930.074,188.01694860563885
932.459,167.67288643319694
934.843,180.80413242581108
937.225,167.4594735557189
939.605,135.06861196079853
941.984,134.91835325875013
944.361,163.48593771843025
946.736,165.2009428597387
949.11,194.87385272018628
951.482,181.9341509309818
953.853,163.0969852216915
956.222,153.79173668679755
958.589,146.44773190940282
960.954,117.68471698969302
963.318,96.50333157340742
965.68,81.47558288030541
968.041,85.41151020882148
970.4,98.21632563120556
972.757,83.36660230770417
975.113,63.24360565788447
977.467,39.561862627190976
979.819,19.035826191596925
982.17,16.237016052733907
984.519,2.546397428256796
986.866,-8.131333467227705
989.212,11.441775814196717
991.556,26.836935651569092
993.899,48.76813896949102
996.24,75.4731156136504
998.579,64.42762005967461
1000.92,56.72638578865917
1003.25,49.03550823411592
1005.59,37.78292296702398
1007.92,50.58697911897502
1010.25,38.25644137674385
1012.58,48.219063405434326
1014.91,66.28349460494996
1017.24,83.63928210456606
1019.56,103.19020609082622
1021.88,130.36380561163355
1024.2,122.92090438034938
1026.52,120.90799372273841
1028.84,116.27628219059102
1031.16,101.92931660391378
1033.48,87.05631737883027
1035.79,92.37027576024911
1038.1,120.39367010215005
1040.41,149.88703929072585
1042.72,188.3251752151466
1045.03,196.18283904784676
1047.33,185.4585727629094
1049.64,159.1032725592188
1051.94,170.82971466456024
1054.24,158.39827161591643
1056.54,164.90262853976105
1058.84,175.7221660990176
1061.13,186.71243867811882
1063.43,178.44327161567458
1065.72,197.62733462762685
1068.01,163.92966761134926
1070.3,159.25339692594866
1072.59,169.78735643445793
1074.87,188.1489466412745
1077.16,171.0508033534095
1079.44,196.63413300839716
1081.72,219.61157181172598
1084.0,274.98147344570225
1086.28,333.2660063021301
1088.56,388.5587745244991
1090.84,449.1438676216171
1093.11,512.6387196050496
1095.38,545.2798252694167
1097.65,533.827504091731
1099.92,459.13733079740473
1102.19,378.20775640243596
1104.46,341.4182054460814
1106.72,312.5766970330426
1108.98,324.538894447091
1111.24,367.16048809801123
1113.5,396.6781498971334
1115.76,445.9952495376176
1118.02,482.77709458427216
1120.28,503.6890277062221
1122.53,501.3488096238684
1124.78,486.85043062726913
1127.03,442.66887447547606
1129.28,373.0410727720571
1131.53,311.87066886443586
1133.77,295.63278174322477
1136.02,284.37400803680725
1138.26,301.521947815437
1140.5,340.2185399191487
1142.74,380.8438734761446
1144.98,391.49238037356827
1147.22,454.73474201398767
1149.45,462.33217702425645
1151.69,424.33168134533275
1153.92,377.0660302268561
1156.15,310.6775897455275
1158.38,225.30879499016442
1160.61,199.43548538960385
1162.83,179.62881146918699
1165.06,163.650474940579
1167.28,160.30987355348907
1169.5,112.17838880453883
1171.72,99.92272126516991
1173.94,79.40013067146037
1176.16,82.51558077584036
1178.37,101.03126515119015
1180.58,109.09041870922579
1182.8,66.74112921888468
1185.01,63.41252977709405
1187.22,43.15289604143254
1189.42,28.72488631994247
1191.63,-2.2992183390601895
1193.84,-11.01370262860587
1196.04,-19.2746530837328
1198.24,14.776234148373987
1200.44,-0.9073937419354934
1202.64,4.675833167442988
1204.84,-15.567849687511853
1207.03,-16.01781771787296
1209.23,21.613324085168642
1211.42,58.27973975077862
1213.61,82.36426392091789
1215.8,134.53554153801588
1217.99,167.65278658026295
1220.18,171.0991122254743
1222.36,157.25771815781218
1224.55,117.46426835069497
1226.73,95.05450694495062
1228.91,99.98330269839198
1231.09,102.11036010206294
1233.27,99.67640668695526
1235.44,97.58890414025518
1237.62,116.42204513587035
1239.79,161.32151206972594
1241.96,214.76637865219573
1244.13,267.7595829291113
1246.3,337.44697173134364
1248.47,400.16491655295385
1250.64,511.3450722864832
1252.8,642.4667550058596
1254.96,778.2474149874004
1257.13,948.404538302234
1259.29,1091.5127865039692
1261.44,1196.1944696496882
1263.6,1269.0243050352324
1265.76,1260.2436997400073
1267.91,1185.284556981319
1270.06,1116.7216538972732
1272.22,981.2726383773052
1274.37,863.9885020831723
1276.51,749.3011963270988
1278.66,654.8331527118064
1280.81,545.3496609134236
1282.95,486.1874369405691
1285.09,412.9689056791633
1287.23,387.17362629437935
1289.37,384.04305096592725
1291.51,392.19956933762546
1293.65,395.12269582410636
1295.78,409.7681140603909
1297.92,417.18672135145243
1300.05,453.8579588360776
1302.18,510.9755226030986
1304.31,583.6854557600182
1306.44,644.5147166921022
1308.57,704.2759377976649
1310.69,725.44837469955
1312.82,728.7017125994682
1314.94,801.4674916799474
1317.06,863.7486277443872
1319.18,915.9765519047216
1321.3,934.582635983372
1323.41,905.6172369628205
1325.53,843.4163604828013
1327.64,823.6016576708282
1329.75,747.8423267346275
1331.87,683.23606217362
1333.98,586.2138135142104
1336.08,492.6826392831829
1338.19,409.3590371715611
1340.3,344.6737027699023
1342.4,264.6762883035926
1344.5,210.03539946337855
1346.6,158.0385922358987
1348.7,149.06856021040812
1350.8,133.55551236169708
1352.9,126.07240797586269
1354.99,112.19209633798573
1357.09,93.96350403884458
1359.18,85.00686990068607
1361.27,92.51374180775474
1363.36,112.48506877492127
1365.45,126.39786444488095
1367.54,129.10996582345274
1369.62,144.1457443958177
1371.7,148.64848390943212
1373.79,182.3803772045544
1375.87,251.1034754257273
1377.95,246.72254199516283
1380.03,199.23743039565147
1382.1,154.40974766775844
1384.18,103.61999409750092
1386.25,101.62946480878145
1388.33,124.24691326058905
1390.4,113.18569093467136
1392.47,76.06374416606559
1394.54,41.64170621172252
1396.6,22.34670360484415
1398.67,20.224733937795918
1400.74,18.940662692629076
1402.8,7.492508104175158
1404.86,-14.31236711163183
1406.92,10.333223654823541
1408.98,20.617247312086192
1411.04,27.394167753110423
1413.09,58.042092201982086
1415.15,85.12944347481721
1417.2,144.31972747874715
1419.25,211.51439594899875
1421.3,261.3290425193127
1423.35,279.42674164950154
1425.4,305.6609113625366
1427.45,275.64674741020326
1429.49,229.47551458161547
1431.54,162.09550467839722
1433.58,127.16918496605695
1435.62,103.501775196783
1437.66,110.04125320366916
1439.7,110.25931287589151
1441.74,107.34184594340945
1443.77,108.90323328547174
1445.81,119.51016004864505
1447.84,115.0625736219854
1449.87,121.65083208839701
1451.9,125.74618600933172
1453.93,154.34364116186543
1455.96,203.05720222815899
1457.98,256.2627355325342
1460.01,326.4313079690269
1462.03,385.1291925956093
1464.05,441.92263613317164
1466.07,560.2350074168842
1468.09,702.4420410856537
1470.11,900.3480336525324
1472.13,1148.2334681465582
1474.14,1376.378829230784
1476.16,1574.8265135584097
1478.17,1705.9998829860456
1480.18,1714.2746987393639
1482.19,1656.502936531133
1484.2,1494.1080302506734
1486.21,1259.1801156533263
1488.21,992.9522264308657
1490.22,757.6098236152504
1492.22,561.0527059347532
1494.22,418.3235868367558
1496.22,320.46524293911807
1498.22,217.80623391011864
1500.22,120.86566996744114
1502.22,86.63893175811722
1504.21,48.359580714660524
1506.21,49.21365036358566
1508.2,46.33965191963716
1510.19,34.209532260978904
1512.18,10.962012856753745
1514.17,-2.8831189243944664
1516.16,-24.615480410565624
1518.14,-2.9531356514162326
1520.13,-11.94735201860749
1522.11,0.8269262750134203
1524.09,0.7948900734490962
1526.07,-2.2371812003320883
1528.05,2.299033977718409
1530.03,16.638662278654238
1532.01,9.112207865529854
1533.98,-8.187780023502228
1535.96,-13.454325206381554
1537.93,-17.97554745023399
1539.9,-13.563233820845426
1541.87,11.685255237492129
1543.84,20.196506502362354
1545.81,31.492477925845833
1547.78,39.0000178252385
1549.74,37.336574549957504
1551.7,36.595906148443646
1553.67,61.348075749350755
1555.63,81.82992313321188
1557.59,108.23077439933559
1559.55,124.59719925176205
1561.5,164.45205399949646
1563.46,177.79447693770203
1565.41,204.14750277651
1567.37,196.08186754602434
1569.32,160.3112420727473
1571.27,136.26365593219953
1573.22,109.3672071158228
1575.17,74.76434312645847
1577.11,70.07376112143902
1579.06,57.34278424616218
1581.0,48.8568808248051
1582.95,68.09204069389716
1584.89,59.95286582160634
1586.83,45.62970854607215
1588.77,39.741524099448725
1590.7,23.240627893855844
1592.64,1.0317385216187631
1594.58,2.7576874221688286
1596.51,16.799414263238077
1598.44,42.490248140418544
