Raman Shift,Processed Intensity
331.095,6.8009635238095445
333.909,6.769273904761995
336.721,-4.517140095238011
339.531,-18.606019142857154
342.339,-28.807370095238102
345.145,-0.7878197142857069
347.949,1.8825053333333317
350.751,6.539360761904751
353.55,-9.528061523809534
356.348,-10.934192
359.144,-17.006579523809517
361.937,-2.5477495238095154
364.729,4.974327142857174
367.518,34.569012380952465
370.306,131.29454428571447
373.091,250.06771333333353
375.874,322.9495952380954
378.656,328.2877142857144
381.435,266.00279142857147
384.212,156.63555809523817
386.988,79.72815714285717
389.761,17.63374952380953
392.532,2.9926438095238375
395.301,11.588920000000018
398.068,10.399059999999992
400.833,-3.1231476190476353
403.596,-21.76050571428574
406.358,-39.81820190476191
409.117,-27.36193047619048
411.874,-14.836833333333344
414.629,-8.400976190476179
417.382,6.979409523809547
420.133,43.67280476190481
422.882,62.19178095238099
425.629,67.57384761904767
428.374,88.38161904761914
431.117,149.79783809523823
433.858,203.10189523809535
436.597,232.8120380952382
439.334,229.44741904761912
442.069,162.1948952380953
444.802,119.05160000000008
447.533,115.77762857142866
450.262,141.89617142857153
452.989,176.88332380952397
455.714,238.12024761904775
458.438,217.13230476190486
461.159,183.0641333333334
463.878,137.44226666666674
466.595,90.79372857142863
469.31,79.12240000000006
472.024,83.19416190476194
474.735,75.87128571428578
477.444,95.11128571428578
480.152,123.96775238095248
482.857,110.73230000000008
485.561,134.41150476190487
488.262,143.01210476190485
490.962,150.1605047619049
493.659,178.34013333333345
496.355,206.08280000000008
499.048,188.11033333333344
501.74,172.09771428571435
504.43,155.48150476190483
507.118,109.4608857142858
509.804,103.90139047619058
512.488,135.7166857142858
515.17,177.29615238095252
517.85,193.55331428571438
520.528,190.63936190476196
523.204,140.08742857142866
525.878,146.95362857142868
528.551,143.24686666666676
531.221,157.78520000000006
533.89,141.76759047619052
536.556,104.96427142857148
539.221,65.57454285714292
541.883,93.13001428571437
544.544,107.21047619047627
547.203,138.6334238095239
549.86,160.78734285714296
552.515,155.6799238095239
555.168,149.98542857142868
557.819,163.32980952380964
560.469,188.81533333333346
563.116,198.06790476190486
565.761,187.5222857142858
568.405,145.94671428571436
571.047,124.39507619047625
573.687,89.87293333333338
576.324,82.71891428571433
578.96,82.509780952381
581.594,91.48835238095245
584.227,82.65910476190481
586.857,93.83596190476193
589.485,75.54665714285719
592.112,63.747276190476235
594.737,53.86982380952385
597.359,76.63163809523816
599.98,92.46384285714294
602.599,133.98794285714294
605.216,160.34898571428582
607.831,167.8821333333334
610.445,152.8270476190477
613.056,139.80385714285723
615.666,125.09899047619055
618.274,110.04630000000006
620.88,109.74107619047626
623.484,106.51670000000006
626.086,102.70617142857151
628.686,128.1182523809525
631.284,152.60913333333343
633.881,214.98671428571447
636.476,266.29700000000014
639.068,274.9666190476192
641.659,244.56509523809535
644.249,216.37552380952388
646.836,166.87157142857154
649.421,166.05011428571436
652.005,144.5271333333334
654.587,114.20378095238101
657.166,83.55287142857144
659.745,41.33219523809526
662.321,14.347552380952408
664.895,13.88051428571432
667.468,46.83135238095244
670.038,68.0529666666667
672.607,100.63596666666672
675.174,103.242480952381
677.739,91.58203809523813
680.303,84.69746190476195
682.864,86.77415238095242
685.424,55.807259523809556
687.982,39.64875238095241
690.538,41.67464142857145
693.092,29.07023904761907
695.645,34.354275714285734
698.195,36.474003809523815
700.744,10.186197142857143
703.291,12.104786666666694
705.836,22.79619904761905
708.38,9.92210523809525
710.921,13.572839047619063
713.461,24.743532857142878
715.999,27.762791428571475
718.535,58.72116714285718
721.069,68.9950504761905
723.602,59.86567619047622
726.133,59.42391809523812
728.662,42.6178323809524
731.189,33.96704095238098
733.714,28.22934380952383
736.238,22.257798095238122
738.759,44.09638952380958
741.279,99.16949428571435
743.798,113.61640000000006
746.314,124.7192190476191
748.829,99.3791666666667
751.342,73.68820952380958
753.853,71.11931428571435
756.362,89.57364761904766
758.869,85.47684761904767
761.375,82.11163333333337
763.879,70.7131571428572
766.381,83.27880000000005
768.882,76.09144761904766
771.38,60.19618095238098
773.877,53.6857047619048
776.372,72.27211904761911
778.866,93.04821904761913
781.357,131.29741904761912
783.847,135.49407619047625
786.335,136.49352380952388
788.821,126.57942857142865
791.306,123.32180952380959
793.789,113.67095238095247
796.27,135.33990476190485
798.749,148.0891904761906
801.227,177.2985238095239
803.702,181.91914285714296
806.176,178.75952380952393
808.649,174.48538095238104
811.119,178.2392380952382
813.588,176.59114285714298
816.055,176.0169047619049
818.521,186.325761904762
820.984,195.3266095238096
823.446,170.30520000000007
825.906,122.45195238095243
828.365,108.7190476190477
830.821,111.91634285714296
833.276,148.94893333333346
835.729,171.72181904761914
838.181,157.1878285714286
840.631,122.29995238095245
843.079,122.48759047619055
845.525,118.46591904761911
847.97,84.75986666666668
850.412,70.51336666666671
852.854,49.53720000000003
855.293,43.78510952380958
857.731,73.73471428571436
860.167,121.72123809523816
862.601,111.6985857142858
865.034,139.2400095238096
867.465,119.72844761904769
869.894,99.68999047619056
872.321,104.22180000000007
874.747,114.75495238095245
877.171,107.00586190476199
879.594,107.07223809523815
882.014,100.43295238095246
884.433,105.51925714285721
886.851,113.0953714285715
889.266,111.5926095238096
891.68,137.77565714285726
894.092,147.26661904761914
896.503,161.2112857142858
898.912,165.42200000000008
901.319,161.99704761904772
903.724,133.03447619047628
906.128,151.15633333333344
908.53,172.699142857143
910.931,186.57063809523822
913.329,168.15482857142862
915.726,157.02646666666675
918.122,131.42645714285726
920.516,141.11994285714297
922.908,153.01473333333345
925.298,170.733161904762
927.687,144.27823809523818
930.074,139.70047619047628
932.459,156.24086666666673
934.843,144.99781904761912
937.225,131.40283809523817
939.605,119.26847619047624
941.984,94.07387619047626
944.361,91.44065238095244
946.736,88.41918571428576
949.11,78.29810952380959
951.482,100.08008095238102
953.853,110.62458095238104
956.222,91.26754761904768
958.589,93.05898571428577
960.954,105.42962857142865
963.318,111.90589523809533
965.68,128.4424857142858
968.041,136.3743571428572
970.4,107.94178571428579
972.757,86.09904761904768
975.113,77.22873333333337
977.467,60.332752380952414
979.819,21.460528571428583
982.17,12.613352380952408
984.519,41.88808571428575
986.866,52.23872857142861
989.212,64.2858190476191
991.556,106.1258190476191
993.899,95.99841904761911
996.24,82.57155238095243
998.579,108.98920952380958
1000.92,97.7290047619048
1003.25,85.26821428571435
1005.59,72.65536190476193
1007.92,47.5107047619048
1010.25,62.64475238095247
1012.58,99.34388095238103
1014.91,124.89459523809532
1017.24,142.20238571428578
1019.56,141.50593333333342
1021.88,117.13903809523818
1024.2,143.29265714285725
1026.52,142.9670714285715
1028.84,140.1625238095239
1031.16,130.26054761904768
1033.48,134.78476190476198
1035.79,132.59233333333344
1038.1,174.8736666666668
1040.41,221.2479047619049
1042.72,224.00038095238108
1045.03,204.65514285714298
1047.33,184.78295238095248
1049.64,174.52623809523823
1051.94,199.93212380952394
1054.24,198.80995714285723
1056.54,150.20648571428578
1058.84,125.64542380952389
1061.13,121.64962857142865
1063.43,144.55171904761914
1065.72,174.5414095238096
1068.01,178.28457142857152
1070.3,180.7802380952382
1072.59,177.78961904761914
1074.87,182.73990476190488
1077.16,185.7257142857144
1079.44,176.74571428571443
1081.72,200.41795238095256
1084.0,244.97942857142874
1086.28,278.14333333333354
1088.56,372.7654761904765
1090.84,479.0353809523813
1093.11,547.2370952380955
1095.38,579.2265238095241
1097.65,534.0021904761908
1099.92,448.1341904761906
1102.19,387.57357142857165
1104.46,346.84276190476214
1106.72,334.17838095238125
1108.98,366.1979523809526
1111.24,355.28071428571445
1113.5,368.2347619047621
1115.76,377.34428571428595
1118.02,381.56009523809547
1120.28,424.92833333333357
1122.53,431.87580952380966
1124.78,379.6386190476193
1127.03,334.1679047619049
1129.28,279.27147619047633
1131.53,243.1859047619049
1133.77,219.05233333333342
1136.02,182.77376190476198
1138.26,151.92004761904772
1140.5,133.06085714285723
1142.74,143.28961904761917
1144.98,168.55709523809534
1147.22,186.29014285714297
1149.45,216.01090476190487
1151.69,215.86085714285724
1153.92,196.59960000000007
1156.15,157.70186190476198
1158.38,127.26147619047627
1160.61,97.08621428571435
1162.83,89.5077190476191
1165.06,77.00068571428577
1167.28,84.61070000000005
1169.5,80.14601428571434
1171.72,90.65278571428577
1173.94,82.65305238095243
1176.16,83.52629142857145
1178.37,50.50910333333336
1180.58,50.504525714285755
1182.8,50.511296666666695
1185.01,48.43274476190479
1187.22,37.74360809523811
1189.42,44.06159142857145
1191.63,26.242442857142887
1193.84,40.42755714285717
1196.04,41.85387047619049
1198.24,25.234396666666672
1200.44,24.853783809523843
1202.64,44.52026523809528
1204.84,59.66126476190481
1207.03,60.418586190476205
1209.23,38.2674219047619
1211.42,7.444963809523819
1213.61,-4.287588095238085
1215.8,6.068867619047642
1217.99,18.51369761904763
1220.18,30.71299714285717
1222.36,38.094887142857175
1224.55,52.2304466666667
1226.73,56.07176190476194
1228.91,78.90440952380956
1231.09,58.68071904761907
1233.27,56.06738095238098
1235.44,45.68362380952384
1237.62,51.62496666666671
1239.79,55.129861904761945
1241.96,72.57978095238099
1244.13,85.83252380952388
1246.3,98.26970952380957
1248.47,102.70172857142865
1250.64,119.51031904761912
1252.8,135.31559047619058
1254.96,180.92841428571444
1257.13,219.4926761904763
1259.29,229.48571428571438
1261.44,209.86157142857152
1263.6,201.71680952380967
1265.76,200.52904761904776
1267.91,226.91933333333347
1270.06,202.5554761904763
1272.22,191.62990476190487
1274.37,164.81128571428582
1276.51,155.62523809523822
1278.66,167.54976190476202
1280.81,163.53938095238104
1282.95,166.97709523809533
1285.09,173.48442857142865
1287.23,173.34885714285724
1289.37,164.5727142857144
1291.51,153.77723809523818
1293.65,128.72662857142865
1295.78,122.99479523809529
1297.92,109.06054285714293
1300.05,125.44950952380961
1302.18,115.1168952380953
1304.31,115.44588095238103
1306.44,120.82032380952388
1308.57,125.90918095238106
1310.69,137.47697142857152
1312.82,164.76420952380963
1314.94,158.72585714285725
1317.06,180.93566666666678
1319.18,187.58733333333345
1321.3,186.77847619047634
1323.41,219.27342857142875
1325.53,247.74161904761922
1327.64,292.1851428571431
1329.75,340.4162857142859
1331.87,367.91409523809546
1333.98,366.585904761905
1336.08,369.8150000000002
1338.19,319.93709523809537
1340.3,275.0021904761906
1342.4,231.96561904761919
1344.5,200.01995238095253
1346.6,199.88223809523822
1348.7,197.6022857142858
1350.8,175.32514285714296
1352.9,160.71980952380963
1354.99,159.26457142857151
1357.09,144.34266666666676
1359.18,150.86114285714297
1361.27,156.5362857142858
1363.36,151.941761904762
1365.45,176.22238095238106
1367.54,199.57038095238107
1369.62,213.08290476190493
1371.7,232.2855714285716
1373.79,251.94185714285732
1375.87,268.1012380952383
1377.95,287.1463333333335
1380.03,286.2214285714287
1382.1,261.4230000000001
1384.18,219.46685714285724
1386.25,186.4492380952382
1388.33,172.46660000000008
1390.4,159.90123904761913
1392.47,127.18262238095242
1394.54,76.35941142857145
1396.6,50.19394428571432
1398.67,41.02025904761909
1400.74,56.838912857142915
1402.8,99.17414857142863
1404.86,83.2169523809524
1406.92,90.68167619047627
1408.98,92.80648571428576
1411.04,83.8771714285715
1413.09,88.65540476190482
1415.15,78.85497142857146
1417.2,70.18980000000008
1419.25,114.32570476190483
1421.3,136.30987619047627
1423.35,128.0462714285715
1425.4,123.15280952380957
1427.45,80.48575238095242
1429.49,63.23425238095244
1431.54,72.15889047619052
1433.58,84.0679285714286
1435.62,78.57894761904767
1437.66,83.73782857142862
1439.7,91.0192571428572
1441.74,91.65958571428578
1443.77,101.51415714285721
1445.81,93.34297142857147
1447.84,91.28696190476195
1449.87,86.20110000000007
1451.9,100.60734285714292
1453.93,121.93203333333341
1455.96,132.88730476190483
1457.98,128.18539047619055
1460.01,116.34763809523815
1462.03,111.704961904762
1464.05,144.49336190476203
1466.07,183.5195047619049
1468.09,228.35252380952397
1470.11,271.2760000000002
1472.13,289.33485714285735
1474.14,281.24142857142874
1476.16,277.5169047619049
1478.17,242.063142857143
1480.18,234.78252380952395
1482.19,190.43461904761912
1484.2,161.63571428571439
1486.21,129.24108571428576
1488.21,120.24800476190484
1490.22,94.03486666666672
1492.22,98.0279047619048
1494.22,56.08192857142859
1496.22,48.718214285714325
1498.22,49.98232190476193
1500.22,47.58619095238096
1502.22,28.289524761904776
1504.21,23.47108047619048
1506.21,-3.8712704761904697
1508.2,8.022328095238114
1510.19,13.6260780952381
1512.18,20.50946000000002
1514.17,23.527777142857154
1516.16,30.77443142857144
1518.14,26.676256190476213
1520.13,30.088751428571445
1522.11,32.915185714285755
1524.09,70.15388571428576
1526.07,81.70820476190481
1528.05,77.8624428571429
1530.03,63.85336666666668
1532.01,34.06067142857145
1533.98,17.34033333333337
1535.96,47.69125238095243
1537.93,67.30267619047623
1539.9,62.88790000000004
1541.87,71.63626190476195
1543.84,68.78509523809527
1545.81,60.428757142857194
1547.78,71.56662857142862
1549.74,88.0550333333334
1551.7,90.98827619047627
1553.67,118.17521428571436
1555.63,120.80590952380959
1557.59,123.64159047619056
1559.55,132.2057000000001
1561.5,151.30750476190485
1563.46,162.9935857142858
1565.41,168.3592857142858
1567.37,140.11843809523816
1569.32,120.60392380952388
1571.27,109.72046666666674
1573.22,119.37282857142864
1575.17,124.65553333333341
1577.11,123.37858095238103
1579.06,134.87509523809533
1581.0,159.90650476190487
1582.95,141.85402857142864
1584.89,145.8607714285715
1586.83,152.11678095238105
1588.77,153.67010476190487
1590.7,168.9496476190477
1592.64,191.66960000000012
1594.58,167.1160047619045
1596.51,155.5982333333333
1598.44,184.11625238095297
