Raman Shift,Processed Intensity
331.095,44.05514173477968
333.909,-3.4581026384939832
336.721,-0.7223398893611375
339.531,41.762434369501534
342.339,126.9009952048018
345.145,205.97908322618696
347.949,254.52055183071116
350.751,290.0968953997017
353.55,319.9463013051645
356.348,406.2117495352031
359.144,501.3695885099405
361.937,585.3247775641094
364.729,636.8394627629614
367.518,684.4377431943849
370.306,749.7866277372004
373.091,823.9341346866149
375.874,849.0712009034805
378.656,828.6745433445103
381.435,752.2209491639246
384.212,634.853946767475
386.988,532.6695244855173
389.761,388.38280162702813
392.532,296.0423185812533
395.301,229.45861263363122
398.068,171.87088901983043
400.833,99.9470253131085
403.596,79.97405200216554
406.358,25.048633068970958
409.117,1.1723084713730714
411.874,-33.70088242191059
414.629,-42.47391750355564
417.382,-60.95440369974585
420.133,-2.568859773339682
422.882,77.30394752368466
425.629,152.5710871321412
428.374,208.61592798513084
431.117,252.25051683968286
433.858,261.04890848934747
436.597,287.2519245482126
439.334,313.3385789015956
442.069,292.0736936329231
444.802,290.4126578077471
447.533,287.5490434006315
450.262,306.4860307458307
452.989,369.08402446417495
455.714,456.8225551042324
458.438,466.8002760215645
461.159,468.06829359131007
463.878,451.01111646838535
466.595,408.8228429429282
469.31,395.60239591479603
472.024,382.7344721537611
474.735,360.5562058454302
477.444,379.8333559466723
480.152,398.1888744934413
482.857,421.48385586098675
485.561,438.7699145954789
488.262,435.09870610278494
490.962,465.04573305152644
493.659,532.3293898713796
496.355,570.0490548704115
499.048,605.3993728286209
501.74,633.8131090200259
504.43,690.1516222823743
507.118,770.8953380868666
509.804,904.1437454174043
512.488,1015.4725365069703
515.17,1125.6955084787846
517.85,1251.1026554636464
520.528,1394.698260717279
523.204,1485.3437506424275
525.878,1583.900548810967
528.551,1632.2300728431537
531.221,1673.3365884297236
533.89,1672.224349068279
536.556,1701.1356881806255
539.221,1655.884349325337
541.883,1622.4745306960563
544.544,1597.8627867626178
547.203,1597.719929912199
549.86,1592.1453130428235
552.515,1600.0953978711782
555.168,1568.3837518118326
557.819,1557.157235332687
560.469,1551.4198083580054
563.116,1618.270622385759
565.761,1642.7611602240063
568.405,1637.8476138225083
571.047,1579.0099287710223
573.687,1528.394658321401
576.324,1406.7197221715965
578.96,1329.2267842972938
581.594,1246.5860117359216
584.227,1201.1341667039987
586.857,1170.8746034763699
589.485,1202.001074789272
592.112,1217.8501096719547
594.737,1264.0438674687944
597.359,1302.2520394804383
599.98,1364.90613155734
602.599,1443.1994609789976
605.216,1583.8490580951143
607.831,1759.5242346333912
610.445,1897.798961531159
613.056,2011.0566277193675
615.666,2099.6805131923097
618.274,2217.91092874401
620.88,2396.3214033236422
623.484,2574.0091571052517
626.086,2716.880812652703
628.686,2865.890487037023
631.284,2934.8969315727854
633.881,3019.568290602117
636.476,3050.6201936120187
639.068,2987.2919425898053
641.659,2850.6798422356683
644.249,2574.022911127631
646.836,2254.607640505544
649.421,1929.1489435312656
652.005,1607.6949140726624
654.587,1314.3411092971382
657.166,1088.7067370270556
659.745,845.3156049999311
662.321,670.9770701286216
664.895,503.6907972853396
667.468,377.8848514189863
670.038,321.41569443438857
672.607,319.37770588107105
675.174,329.1031798324957
677.739,332.8766074795926
680.303,265.1727692480936
682.864,185.89482691588273
685.424,137.32670144461963
687.982,72.03783176374873
690.538,50.69269545927227
693.092,31.71747231966765
695.645,10.014334499504002
698.195,1.0090754942111744
700.744,1.46064738521045
703.291,1.984984939867445
705.836,19.293115541091083
708.38,28.286412138539163
710.921,41.86613213431883
713.461,52.07629164073205
715.999,55.770352158297555
718.535,49.23028820616173
721.069,58.26184542869623
723.602,92.48027489257993
726.133,129.21511500292036
728.662,131.12925913368008
731.189,90.02849944856234
733.714,29.004404055242503
736.238,-22.613282030886694
738.759,-46.304235922964835
741.279,-19.071822565577804
743.798,-45.01450556551117
746.314,-62.32583428552698
748.829,-31.913478557189137
751.342,-47.30398228824197
753.853,-29.30942838869305
756.362,10.353515350725047
758.869,-13.841168662049313
761.375,-4.419327026733299
763.879,37.236218776319674
766.381,37.07614556075214
768.882,67.9560539897916
771.38,80.96979889374279
773.877,73.8780576827221
776.372,74.58451780700352
778.866,75.70730231261496
781.357,88.34087158739658
783.847,95.53221082135406
786.335,108.70939841938934
788.821,149.20541250927226
791.306,199.11527078294512
793.789,217.1531703378314
796.27,279.0810560895743
798.749,321.3752844228693
801.227,411.4170963661072
803.702,520.3021383850582
806.176,646.6976022241824
808.649,717.0326980812692
811.119,772.3557944487502
813.588,755.2867960502485
816.055,744.3980932056988
818.521,665.7859873869502
820.984,588.3564024876487
823.446,513.1582151407406
825.906,441.8118231312146
828.365,386.8900947612242
830.821,356.9183658342499
833.276,313.8506271154597
835.729,257.97428322063206
838.181,206.67205436223048
840.631,177.85054476213145
843.079,146.46404915959056
845.525,144.60978789064302
847.97,142.86123720558726
850.412,147.0300310150419
852.854,134.2611959693395
855.293,138.36648177600773
857.731,117.72912008868934
860.167,118.30382149129036
862.601,94.09296295832337
865.034,104.81325150572229
867.465,62.46714974641782
869.894,28.819063350674696
872.321,35.63343326833774
874.747,62.341399379649374
877.171,81.75508319369192
879.594,106.40091816587028
882.014,98.09107525350055
884.433,90.68536466186288
886.851,101.47218520930801
889.266,97.88280702568954
891.68,93.91993996509473
894.092,71.25296868523037
896.503,103.97985439348577
898.912,122.91284611679748
901.319,145.24514435247147
903.724,123.78899329043224
906.128,136.26139208309178
908.53,99.80790135332109
910.931,124.38359255955083
913.329,142.6101878370714
915.726,157.06177126789407
918.122,147.07430967442588
920.516,138.74564960361795
922.908,121.84027621587848
925.298,132.5035959835095
927.687,167.452409865331
930.074,182.59395790987946
932.459,179.59734481098485
934.843,153.17925117764298
937.225,140.4848828991153
939.605,149.0879681290753
941.984,160.08599236499595
944.361,172.0525763846872
946.736,176.18033037330588
949.11,171.3284699551391
951.482,146.73709889204383
953.853,126.40815844856161
956.222,89.77209104274016
958.589,89.64021818267565
960.954,112.25235649829028
963.318,126.46729091596217
965.68,115.85800973792448
968.041,118.56884448356323
970.4,97.79165734977005
972.757,83.28964771891378
975.113,66.54020628585522
977.467,69.59205489924716
979.819,45.54143402187765
982.17,51.722575905302165
984.519,38.94579681209734
986.866,21.73558923810924
989.212,33.33061889660621
991.556,48.44562646434406
993.899,31.60475789905695
996.24,18.61775189981654
998.579,11.056127367382942
1000.92,-14.270629135435684
1003.25,15.542078329009655
1005.59,18.113002676762335
1007.92,4.060766538435928
1010.25,27.52767180642968
1012.58,30.751130053367888
1014.91,15.635093371131461
1017.24,37.13100901941152
1019.56,42.57115502664783
1021.88,33.76388213347718
1024.2,56.32695097427768
1026.52,56.68753592538451
1028.84,68.89175276282367
1031.16,109.41418632005116
1033.48,115.34837052663943
1035.79,109.78774463744048
1038.1,125.25422850937457
1040.41,130.50775025916573
1042.72,143.83196439726453
1045.03,145.41520805701703
1047.33,110.63621912859071
1049.64,59.06414010718845
1051.94,59.744236226970315
1054.24,81.05504216640702
1056.54,106.2797944679105
1058.84,95.13024490985345
1061.13,107.74666435477502
1063.43,90.26927516901333
1065.72,135.9811122137753
1068.01,160.16516955048337
1070.3,185.19964238422835
1072.59,195.03412138816748
1074.87,188.9991203612567
1077.16,167.13941340979363
1079.44,179.88070546229437
1081.72,171.98201707008957
1084.0,190.96425968410676
1086.28,261.25309664594124
1088.56,354.0837089408278
1090.84,468.50079904584936
1093.11,528.2633566829013
1095.38,552.7018055240446
1097.65,496.14657846828595
1099.92,423.45193101359746
1102.19,391.7578498670373
1104.46,363.96624726914797
1106.72,342.0742981755038
1108.98,347.55539648587956
1111.24,355.26392079722655
1113.5,380.9114287280654
1115.76,448.9714226714609
1118.02,522.5841155479898
1120.28,572.127863225383
1122.53,547.9334540810119
1124.78,485.76030332628943
1127.03,433.367885426298
1129.28,373.94430937656944
1131.53,351.72537017034074
1133.77,302.99455264676
1136.02,271.2258924819521
1138.26,263.3220752753259
1140.5,300.3763451596906
1142.74,342.52965150661885
1144.98,397.2087480127457
1147.22,427.50714892894166
1149.45,472.47084719423856
1151.69,509.05069923642714
1153.92,557.3881431059822
1156.15,587.2913928004623
1158.38,566.9497278270096
1160.61,550.4096875267437
1162.83,494.5750749229719
1165.06,405.54029390272717
1167.28,333.9713054459312
1169.5,275.6770600450195
1171.72,216.60950155314504
1173.94,207.67309484190127
1176.16,183.0105439352401
1178.37,132.38374823862432
1180.58,106.4119016253253
1182.8,56.2857819989099
1185.01,-4.613197239516467
1187.22,-40.57012620024511
1189.42,-35.48897560914975
1191.63,-7.178307730684537
1193.84,48.98205572366987
1196.04,57.755314070285294
1198.24,9.381014981622684
1200.44,-2.853522947451438
1202.64,14.291545699996732
1204.84,36.43715956279266
1207.03,65.77582135798912
1209.23,104.30968926684909
1211.42,92.5648587970104
1213.61,125.11516845418646
1215.8,156.29648160434044
1217.99,148.73049214537377
1220.18,143.94376827405495
1222.36,160.12965339581115
1224.55,169.91016703451078
1226.73,170.62171526606562
1228.91,168.55318210440237
1231.09,144.37449707792075
1233.27,162.4699647107018
1235.44,215.03349876563425
1237.62,274.16385648753067
1239.79,334.8646347510198
1241.96,422.8061709703343
1244.13,497.0874440091102
1246.3,613.5694036616051
1248.47,765.3035382291614
1250.64,944.1985373347652
1252.8,1170.3060023566495
1254.96,1454.8204425761842
1257.13,1701.0316522781513
1259.29,1946.8008973748333
1261.44,2126.2751972681917
1263.6,2252.3635114739573
1265.76,2279.451021483818
1267.91,2263.1134126275915
1270.06,2140.783536887807
1272.22,2007.084742380921
1274.37,1814.8784885528617
1276.51,1615.5024375650087
1278.66,1406.9609266325865
1280.81,1233.6868689344624
1282.95,1089.4465116658153
1285.09,1029.8632417098465
1287.23,988.4652008333146
1289.37,968.3519485010984
1291.51,971.575410405062
1293.65,994.4732079452915
1295.78,1067.2877019970479
1297.92,1149.5469414396266
1300.05,1210.7789450185492
1302.18,1226.4640784458497
1304.31,1174.082669595602
1306.44,1118.7816713184839
1308.57,1065.660371875394
1310.69,1020.8656291805855
1312.82,995.8775812352783
1314.94,964.3191660850839
1317.06,950.3846893964765
1319.18,966.0779158427858
1321.3,997.2596842997159
1323.41,1006.6955230408621
1325.53,1005.4365982665595
1327.64,981.3435197755971
1329.75,998.0863371131168
1331.87,987.7635833375703
1333.98,955.8546521210005
1336.08,893.5531272302856
1338.19,806.6715405798059
1340.3,724.5937493317342
1342.4,664.608265377276
1344.5,566.1939657702978
1346.6,443.87723173237737
1348.7,356.04146861023537
1350.8,287.35567345221534
1352.9,239.15538353715192
1354.99,236.68076776037924
1357.09,175.93376563878564
1359.18,130.29713107777843
1361.27,93.24871423347986
1363.36,112.07574337492633
1365.45,99.68434484149157
1367.54,128.02811061936427
1369.62,119.8699992513566
1371.7,124.49661769908971
1373.79,133.90869368136555
1375.87,180.39250039349508
1377.95,188.2341383694802
1380.03,197.33857924896483
1382.1,163.65823335370624
1384.18,107.52627916881283
1386.25,73.70427853827323
1388.33,91.90598233667197
1390.4,66.98780280757
1392.47,72.47261923522592
1394.54,39.16882171154111
1396.6,-2.3058831922203353
1398.67,-23.000666753719543
1400.74,24.558898343341298
1402.8,24.942266571128584
1404.86,39.432964452027136
1406.92,62.55239998174147
1408.98,99.77415089681153
1411.04,102.9525427173021
1413.09,139.60836964663395
1415.15,198.5003297571311
1417.2,236.72026969937633
1419.25,308.1217627449005
1421.3,407.70106778124864
1423.35,427.0733264022847
1425.4,445.9963790461097
1427.45,463.79934303774826
1429.49,417.5254763461098
1431.54,385.17027943619905
1433.58,354.7767399784593
1435.62,284.5305775581196
1437.66,244.1888217178721
1439.7,213.98458047674376
1441.74,162.72228503944825
1443.77,194.92055355335106
1445.81,210.43124534162416
1447.84,212.53470561259564
1449.87,221.84453397861967
1451.9,266.49806726065685
1453.93,290.299243245237
1455.96,365.9090834890417
1457.98,406.8933189806278
1460.01,477.29382532596355
1462.03,562.5333912672977
1464.05,734.3204872020253
1466.07,908.0302241777447
1468.09,1162.3234081254222
1470.11,1465.241784568736
1472.13,1838.5889976191406
1474.14,2239.7401203994987
1476.16,2648.784518801048
1478.17,2923.2877628594156
1480.18,3075.339252416351
1482.19,3065.123652305264
1484.2,2871.206613251059
1486.21,2601.391921341393
1488.21,2242.340552259831
1490.22,1834.7135350428207
1492.22,1436.124339646181
1494.22,1068.5198359401693
1496.22,741.5612527045369
1498.22,541.1003747188306
1500.22,368.94145413840624
1502.22,276.1269313942548
1504.21,218.3660132356879
1506.21,150.98706029682762
1508.2,88.98521275834196
1510.19,73.45096839012945
1512.18,26.52257011781103
1514.17,26.14791739875318
1516.16,33.98933474094338
1518.14,22.185483079005962
1520.13,-2.696252659299489
1522.11,-12.612137891341717
1524.09,-42.28017700359101
1526.07,-42.60867844190693
1528.05,-7.362916356103369
1530.03,3.3586792612609315
1532.01,8.362613426920916
1533.98,14.217463878122544
1535.96,17.730066742015424
1537.93,33.32646410981033
1539.9,49.147137325224094
1541.87,38.427954558636884
1543.84,44.07159457172543
1545.81,48.31420857733747
1547.78,65.91589162316632
1549.74,98.39877302305194
1551.7,145.57082107399242
1553.67,184.14488586839616
1555.63,219.8815516301479
1557.59,250.11294143162513
1559.55,287.45699810119504
1561.5,303.150812749755
1563.46,334.43157234489786
1565.41,347.15560252316436
1567.37,336.3697913546789
1569.32,322.40682263159624
1571.27,287.218504394644
1573.22,243.04243079299727
1575.17,211.6400725155802
1577.11,180.1062957938018
1579.06,170.6788814042893
1581.0,156.64328176685626
1582.95,136.7611875662892
1584.89,128.60385627888445
1586.83,122.36163117518709
1588.77,108.7010793703414
1590.7,90.24117749349966
1592.64,41.839021166743805
1594.58,2.8041059125844185
1596.51,-2.815963367105269
1598.44,48.31214184973305
