Raman Shift,Processed Intensity
331.095,161.0810001006007
333.909,46.47360708849328
336.721,43.55850319336241
339.531,102.33570451613696
342.339,131.40049745483566
345.145,198.7291690911975
347.949,209.70283281539287
350.751,203.27411109359082
353.55,223.4433420450605
356.348,278.0681193525961
359.144,294.33949883961895
361.937,345.258205047272
364.729,381.72988543057863
367.518,455.993697887925
370.306,505.09851733816913
373.091,590.9981899168047
375.874,620.1229776483005
378.656,605.0462412136944
381.435,551.9606465277079
384.212,465.0591332206127
386.988,354.2015974058295
389.761,296.7244315903622
392.532,235.77387410905658
395.301,172.8298347493337
398.068,122.9916251378254
400.833,60.83511769844563
403.596,20.65085699141264
406.358,-6.174971804868619
409.117,-35.398622030976185
411.874,-52.15686468362264
414.629,-70.63363960827564
417.382,-85.77432944216889
420.133,-100.14289625521087
422.882,-108.73140681705308
425.629,-54.198138769157595
428.374,-16.53426946989248
431.117,48.888470438565946
433.858,94.88918523092934
436.597,90.00158152571339
439.334,75.14059285501662
442.069,98.8404328057245
444.802,46.68312435118969
447.533,65.29845775433841
450.262,76.64966275649294
452.989,104.03337115431395
455.714,129.69862699577834
458.438,154.4658967761652
461.159,160.9175082054585
463.878,158.96904135672003
466.595,107.34548171921278
469.31,97.67642087057948
472.024,80.06744762521157
474.735,50.71915823023437
477.444,77.2604522757747
480.152,110.84374143976765
482.857,96.43063970597404
485.561,117.36337574479148
488.262,114.50763386549716
490.962,120.01445232150127
493.659,150.79640732987218
496.355,190.90857045149642
499.048,205.73898978076386
501.74,236.58012351619254
504.43,269.2955116262997
507.118,337.3673998964223
509.804,408.32531635648274
512.488,472.1746477087595
515.17,526.9204538508952
517.85,601.3769966846135
520.528,660.929649876829
523.204,727.3444276683654
525.878,798.1965613017251
528.551,824.7276468774298
531.221,830.2742217817868
533.89,867.0296744479874
536.556,854.3775826886381
539.221,857.6536234568598
541.883,861.1931968931049
544.544,834.236193229126
547.203,780.6889025490782
549.86,765.3621150268168
552.515,776.4473164012893
555.168,791.4690739281173
557.819,838.4755175692735
560.469,858.085964039908
563.116,847.0623503789657
565.761,829.4520960912428
568.405,812.7785843370552
571.047,764.374500264772
573.687,718.7627883909627
576.324,681.0852290281582
578.96,627.2453004269064
581.594,571.6700885368682
584.227,548.2150539107643
586.857,522.1164176559505
589.485,482.84830929074224
592.112,509.50372412455135
594.737,527.6516711142126
597.359,548.5752731012599
599.98,616.9860575253838
602.599,667.7382471378996
605.216,711.0192411913927
607.831,795.8258109150734
610.445,865.6783902282373
613.056,934.8115569299148
615.666,1023.8883234123182
618.274,1101.9525226124015
620.88,1193.0478606300821
623.484,1266.217921727401
626.086,1331.8871257086462
628.686,1425.765494824278
631.284,1527.801039722482
633.881,1593.6559549245203
636.476,1616.0875762048618
639.068,1564.5198141617743
641.659,1457.9955401688767
644.249,1303.2718294695337
646.836,1132.8675852236552
649.421,938.9206863640006
652.005,715.5689449763008
654.587,563.7120160603286
657.166,434.53521205286734
659.745,327.8904602078346
662.321,268.10583140496465
664.895,235.69983086325783
667.468,148.6194983782384
670.038,125.19279427350193
672.607,92.60479487607518
675.174,46.85007846796407
677.739,42.49463504722053
680.303,65.34253799377257
682.864,73.38833485003943
685.424,72.00753771902055
687.982,57.43283450683157
690.538,12.039823974772844
693.092,-29.27201111338036
695.645,-33.031664177396124
698.195,-40.19658280312751
700.744,-25.91455463974853
703.291,-8.476073044158966
705.836,-25.123849924025762
708.38,-31.338521807334473
710.921,-14.648166317099367
713.461,-13.914011767587454
715.999,6.145754693220169
718.535,14.146463138899435
721.069,-0.534469276971322
723.602,10.718651205001606
726.133,43.75979399963853
728.662,58.82406031573646
731.189,75.00387262793265
733.714,72.53468795810204
736.238,51.89023496627351
738.759,37.73489389868655
741.279,52.39988605966755
743.798,27.50232042636162
746.314,17.849954549178165
748.829,3.107860214147877
751.342,-23.4872918471101
753.853,-7.0319948664655385
756.362,18.85361676592447
758.869,38.69243079837315
761.375,33.10273470013544
763.879,44.274402767690844
766.381,24.159368945312963
768.882,37.185909169437764
771.38,74.44911418923084
773.877,82.23469572048816
776.372,78.97136402810384
778.866,95.51653884186908
781.357,101.91825074846793
783.847,103.17704258346339
786.335,144.67453748996058
788.821,124.17343554868921
791.306,132.76989136047314
793.789,148.3220821048867
796.27,184.40258512272612
798.749,243.77456502228506
801.227,323.8679607856484
803.702,392.3509109702163
806.176,464.320226529278
808.649,495.6823398230631
811.119,525.4390155345545
813.588,532.020680632912
816.055,472.5721352892774
818.521,404.23826379257434
820.984,358.164031179595
823.446,309.3516227222276
825.906,277.7080596051651
828.365,287.80710031789886
830.821,252.65114204670908
833.276,209.9093125428608
835.729,207.9650858003056
838.181,172.58294535245204
840.631,146.76552375939445
843.079,132.32502780943514
845.525,112.8832351491742
847.97,106.63339567550292
850.412,112.86403768949685
852.854,99.76848833603799
855.293,113.34963213866513
857.731,93.80086001062273
860.167,60.36320874209423
862.601,76.23011953505511
865.034,86.69029177621906
867.465,79.22291776237262
869.894,68.30720313998836
872.321,44.46998258294934
874.747,-2.142855005933143
877.171,14.138392039945302
879.594,42.41199668583067
882.014,37.25241865482894
884.433,47.09125464115732
886.851,40.026759951961594
889.266,59.96670348247244
891.68,84.77122269115534
894.092,85.91948809867199
896.503,80.84303445350679
898.912,111.21147284997232
901.319,107.40867903669232
903.724,134.43755315365615
906.128,137.967636612128
908.53,116.04939564123197
910.931,120.20945721548378
913.329,128.97441641089426
915.726,120.44226280869407
918.122,144.75856880382025
920.516,164.16410648483497
922.908,166.94722641860153
925.298,144.87242691115625
927.687,137.704161363813
930.074,139.7782646768951
932.459,156.38290346298618
934.843,167.4252405458942
937.225,157.43143279295373
939.605,133.59424799494582
941.984,141.0111579364975
944.361,156.731955276005
946.736,142.61589423507394
949.11,133.4269265260573
951.482,98.2622706129223
953.853,68.55240954355577
956.222,46.39442211539699
958.589,57.17102832678438
960.954,65.31249197115176
963.318,98.82042799314013
965.68,118.93446698755406
968.041,112.79891969832761
970.4,80.51039389843527
972.757,74.73683984123636
975.113,72.14611952133464
977.467,59.16790926877911
979.819,75.23179281944522
982.17,51.57678295685946
984.519,1.2513193444879107
986.866,-17.17244792767997
989.212,-14.931993844174485
991.556,5.544627116707488
993.899,53.59115808910974
996.24,103.96980107148056
998.579,81.252164463805
1000.92,47.86687727149729
1003.25,25.099584261683958
1005.59,9.04532207186594
1007.92,16.084704842389783
1010.25,45.07439810035203
1012.58,22.156641191176277
1014.91,17.568771350381667
1017.24,37.30989063248671
1019.56,49.33134461000827
1021.88,67.53672667107094
1024.2,93.40092993607732
1026.52,81.63681822200442
1028.84,89.09999224478179
1031.16,123.693555821681
1033.48,153.41573921656095
1035.79,161.4551415327262
1038.1,173.71454453436377
1040.41,175.28710742035855
1042.72,197.5039901695402
1045.03,222.22007212402355
1047.33,209.6710991439811
1049.64,173.9498783814613
1051.94,110.81580638753599
1054.24,80.02820674326745
1056.54,91.34633435733735
1058.84,90.71985595415549
1061.13,129.24123532386625
1063.43,154.0504995247445
1065.72,175.62095746653722
1068.01,175.33063277951806
1070.3,176.31941096926175
1072.59,163.39380561902476
1074.87,168.16981983022856
1077.16,153.21580766295074
1079.44,178.1953355764083
1081.72,180.9624248218281
1084.0,204.22822240673418
1086.28,286.9419577735325
1088.56,373.0052328114159
1090.84,474.9863118682774
1093.11,532.0248879530966
1095.38,526.5463727478505
1097.65,473.1666628099031
1099.92,407.21595339343185
1102.19,368.45302846133904
1104.46,354.68431260191437
1106.72,347.66863723122606
1108.98,353.1172448907321
1111.24,357.2652221163321
1113.5,345.061979926453
1115.76,396.8855438339508
1118.02,418.8758914770617
1120.28,454.1254331075013
1122.53,461.67901588808104
1124.78,463.7720234284252
1127.03,412.306570558776
1129.28,394.6610314371335
1131.53,339.45194860878087
1133.77,292.4864182562842
1136.02,251.6668564018678
1138.26,241.03862225265084
1140.5,207.02811773635835
1142.74,224.1570775132202
1144.98,253.51876374977678
1147.22,306.2065418450618
1149.45,345.93293234726593
1151.69,398.74390096563593
1153.92,405.066481915705
1156.15,375.08973459786307
1158.38,323.0504621806831
1160.61,291.89988256520746
1162.83,243.87506125399136
1165.06,230.35605850585694
1167.28,196.10402887161217
1169.5,157.3564635869036
1171.72,127.63671867935909
1173.94,117.70640021858503
1176.16,98.04155908996859
1178.37,83.02317148276734
1180.58,74.55619080677252
1182.8,79.2600281804041
1185.01,69.89712815689563
1187.22,54.468211117141436
1189.42,1.5456109006368024
1191.63,-31.631482801672746
1193.84,-45.2522582450174
1196.04,-32.60094384066883
1198.24,-14.104426113440468
1200.44,7.572508408646854
1202.64,21.574784967953065
1204.84,41.23798420389676
1207.03,27.469286558718977
1209.23,4.271276018359458
1211.42,-31.258065670479255
1213.61,-27.068219144515524
1215.8,-3.0132728395337836
1217.99,37.81473776010216
1220.18,50.75248797252175
1222.36,60.42249764414919
1224.55,65.63788773739361
1226.73,97.35475596595597
1228.91,81.29121909680566
1231.09,93.64169334739131
1233.27,85.12450811618874
1235.44,73.88666257038949
1237.62,87.59905842406943
1239.79,113.02792319254195
1241.96,141.51099535147864
1244.13,205.7670428293552
1246.3,296.4196672141861
1248.47,404.71158415074
1250.64,506.5998561186973
1252.8,614.6130299727176
1254.96,737.4701792444189
1257.13,867.7951845395892
1259.29,1000.4024425068267
1261.44,1141.4397176633256
1263.6,1213.1976608873176
1265.76,1235.9669469581484
1267.91,1198.3239835249112
1270.06,1149.178524836993
1272.22,1042.583190236518
1274.37,921.8286969365045
1276.51,812.8248070847362
1278.66,671.0050843514423
1280.81,556.9459362312627
1282.95,489.6999420595034
1285.09,443.1291810283833
1287.23,398.524274489007
1289.37,431.8424758723763
1291.51,446.8029034675469
1293.65,464.0293922474034
1295.78,479.0028695039491
1297.92,490.6327781026489
1300.05,486.30469021295494
1302.18,520.6422067531257
1304.31,539.6974282636115
1306.44,534.9509495899702
1308.57,513.6451878991084
1310.69,502.07009164789906
1312.82,470.5155162184701
1314.94,479.0807424106374
1317.06,488.1030425533868
1319.18,491.5862466163603
1321.3,477.29597498800194
1323.41,486.7120141108476
1325.53,458.9806921168183
1327.64,481.24820684346196
1329.75,502.89871575496227
1331.87,516.6019496726694
1333.98,533.0751122199058
1336.08,520.7971602191628
1338.19,475.00879837500133
1340.3,388.5219977664883
1342.4,312.9580857681981
1344.5,243.22393120930656
1346.6,204.94051048507163
1348.7,160.30004509687478
1350.8,137.20885347798776
1352.9,102.76353615266044
1354.99,96.29858946664217
1357.09,62.862590746266505
1359.18,28.45628821944956
1361.27,4.175452841449896
1363.36,14.068015834908692
1365.45,31.99120915294816
1367.54,66.61156352367152
1369.62,76.16681271837251
1371.7,79.18018203545489
1373.79,87.84134345102484
1375.87,116.29213267423802
1377.95,122.19798048836401
1380.03,138.7002964727908
1382.1,119.3212336774227
1384.18,93.10654853516144
1386.25,59.482746488683915
1388.33,35.20946571244485
1390.4,4.1890036918330225
1392.47,11.46631999280089
1394.54,9.514756854297502
1396.6,21.569379261502945
1398.67,18.960316195405085
1400.74,-2.030087616718447
1402.8,-32.8815463347471
1404.86,-8.407248570153797
1406.92,-14.468130303591124
1408.98,-19.163341784955264
1411.04,-8.973096260780267
1413.09,6.193717880082431
1415.15,54.142399138754854
1417.2,113.96386543463836
1419.25,141.46323012485118
1421.3,146.11218754747688
1423.35,166.3823509457702
1425.4,171.9833522971237
1427.45,175.57713261822664
1429.49,190.2541370321194
1431.54,177.53331935906544
1433.58,152.07643242170707
1435.62,136.25946120735898
1437.66,71.50596079221918
1439.7,32.95372759890506
1441.74,47.31194684446723
1443.77,33.480244750311385
1445.81,52.12012170449793
1447.84,86.41686161451798
1449.87,84.12715554578813
1451.9,118.19815393156932
1453.93,151.6246140209796
1455.96,180.78223780319718
1457.98,203.76100993166756
1460.01,240.41282136258565
1462.03,295.58956918386707
1464.05,378.09554215839967
1466.07,515.6398062672968
1468.09,690.6457331102974
1470.11,866.6795759252082
1472.13,1047.2599979882962
1474.14,1256.71522006231
1476.16,1422.6115964159198
1478.17,1576.563143224116
1480.18,1663.564876492412
1482.19,1648.8499595048602
1484.2,1543.6992312244524
1486.21,1381.6793061220908
1488.21,1146.2140073388944
1490.22,926.0129427056404
1492.22,731.3572236193563
1494.22,547.9566124913326
1496.22,391.66381305228106
1498.22,287.47447494320113
1500.22,189.43196021101562
1502.22,126.62734789944011
1504.21,81.24705768746708
1506.21,26.715711623094194
1508.2,-7.113385095341528
1510.19,0.3274747574137109
1512.18,-4.203404499417957
1514.17,-7.661879494109826
1516.16,-15.76558295350901
1518.14,-22.327253568232436
1520.13,-5.873780926782501
1522.11,18.40141459341112
1524.09,14.20980914570805
1526.07,12.882059278144425
1528.05,0.5584762735079494
1530.03,2.236643346560413
1532.01,-20.323824301602144
1533.98,-1.64890032508265
1535.96,1.9260416748340958
1537.93,23.256224485886833
1539.9,44.720796787450126
1541.87,59.318067609278614
1543.84,55.09407412358132
1545.81,63.61876848471502
1547.78,82.93839514506999
1549.74,117.95643959952918
1551.7,147.4336247489689
1553.67,142.74981202566892
1555.63,158.09447394729614
1557.59,146.7524047661284
1559.55,175.34181207065626
1561.5,220.6238369586174
1563.46,236.31207421002705
1565.41,220.1201876983041
1567.37,207.666668658537
1569.32,172.0938796700441
1571.27,149.0204319722602
1573.22,137.68403897110602
1575.17,99.75103641201781
1577.11,76.45923588631535
1579.06,45.37982595660901
1581.0,41.845939948879504
1582.95,38.23836660169354
1584.89,59.128403572568004
1586.83,62.373091896709184
1588.77,53.59140282670751
1590.7,42.878519910326986
1592.64,34.805835354010014
1594.58,23.039994005432845
1596.51,20.84288971700221
1598.44,36.381185518886014
