Raman Shift,Processed Intensity
331.095,146.50164508540684
333.909,12.536273233059092
336.721,-32.039140716189195
339.531,-15.391248779652415
342.339,35.93237394309244
345.145,70.86038350488616
347.949,114.34529753611469
350.751,121.72064947937406
353.55,149.74861901461145
356.348,169.1438529604602
359.144,197.47823855652678
361.937,206.03805769806286
364.729,195.49066498015463
367.518,190.50354669430726
370.306,213.93480839644144
373.091,280.404614855865
375.874,348.91424905185295
378.656,401.84612355118816
381.435,400.1542680761704
384.212,345.98338850120945
386.988,241.71649727798194
389.761,172.07016290820184
392.532,77.66594989259784
395.301,45.88757296558833
398.068,35.88090847282092
400.833,39.5540057487151
403.596,33.10090801781553
406.358,37.76356853424613
409.117,11.974719102119252
411.874,-21.16592807072584
414.629,-61.08214518564182
417.382,-87.10212985657472
420.133,-106.45849589459976
422.882,-83.52636588654923
425.629,-43.25194962920932
428.374,-12.866848968197246
431.117,29.540485223157248
433.858,68.26281527570245
436.597,73.68836810827042
439.334,72.11032470670989
442.069,46.77440484101635
444.802,45.164547020557166
447.533,26.955255115953605
450.262,58.67823069526776
452.989,86.48424345541525
455.714,111.52405198835368
458.438,120.66265788059991
461.159,111.66975028894058
463.878,71.88634099233195
466.595,65.12949468189618
469.31,45.93039258425324
472.024,65.53430084674983
474.735,62.99577701792987
477.444,36.32150025858209
480.152,40.61310811188878
482.857,56.7338491501373
485.561,46.59428703728781
488.262,104.72372312076959
490.962,119.84162486668629
493.659,121.28620203116088
496.355,151.68107806976332
499.048,158.9352948802707
501.74,156.95760325971423
504.43,183.32313431380453
507.118,185.8448327711303
509.804,226.85917601163237
512.488,299.7023692855573
515.17,364.6627314085936
517.85,450.0283185522467
520.528,490.08692898659956
523.204,503.0784887754621
525.878,511.48077080484927
528.551,508.9141614305072
531.221,514.8083318873487
533.89,545.9736716036582
536.556,582.5536738962387
539.221,603.6439883322287
541.883,633.2924254718714
544.544,658.92753303986
547.203,668.6443149538304
549.86,667.4423313052334
552.515,658.8923697687783
555.168,618.4697836785376
557.819,634.8402110564348
560.469,631.9548174502602
563.116,656.2407768669168
565.761,629.9822288961568
568.405,599.8917120247884
571.047,553.5387398080416
573.687,535.2545675171214
576.324,491.465530215341
578.96,475.5501903580539
581.594,445.02981872592136
584.227,409.6636372629405
586.857,361.0202523906578
589.485,294.04908832238516
592.112,259.3184870440814
594.737,270.53952258094296
597.359,328.23267240686255
599.98,389.77544123482494
602.599,427.73569909302114
605.216,428.9193051152506
607.831,457.4653503789418
610.445,506.5128293146108
613.056,543.7244539724602
615.666,596.2866587651756
618.274,597.528652829767
620.88,646.3986152465513
623.484,720.3208426391006
626.086,824.8148015360821
628.686,890.971323590245
631.284,915.9288007974087
633.881,907.6350950011542
636.476,921.3713521594304
639.068,877.8948642302057
641.659,844.9152643904449
644.249,788.4278651122418
646.836,687.951758143703
649.421,583.1964859184186
652.005,474.96680820301845
654.587,328.6388973161552
657.166,245.3984381094101
659.745,178.95491842438105
662.321,134.3035385974008
664.895,93.10616858329104
667.468,99.50087650768819
670.038,82.24479055270558
672.607,83.99981798545423
675.174,54.52312609132332
677.739,61.76238501203443
680.303,37.90339153607101
682.864,39.03674602353749
685.424,5.348338854832491
687.982,-28.309206863385953
690.538,-48.60699338393397
693.092,-36.644591555533225
695.645,-36.902406197822074
698.195,-11.384523080696908
700.744,27.14320199218355
703.291,39.819811981519706
705.836,32.16544001994362
708.38,4.319408306294918
710.921,-20.531196809633457
713.461,-11.103902123298212
715.999,17.074394616968675
718.535,24.00075998897637
721.069,29.767654266461705
723.602,43.75340840792114
726.133,45.384129616867085
728.662,41.80036880685111
731.189,20.38093092362442
733.714,-20.447600446982506
736.238,-15.30610037594488
738.759,8.089479159693383
741.279,34.30906036064698
743.798,53.92272246624452
746.314,27.453079853381496
748.829,3.8514696592856126
751.342,1.736044166186275
753.853,10.772720328840478
756.362,36.2466054925344
758.869,74.58580406346528
761.375,43.50427179816825
763.879,37.382765331043174
766.381,30.07836313045209
768.882,22.257795978628565
771.38,30.15934888015363
773.877,52.97381058948258
776.372,30.51113742418238
778.866,24.248069459128146
781.357,26.89955624450431
783.847,32.46637299999793
786.335,57.80654633280619
788.821,96.5877323365894
791.306,135.71578516662566
793.789,164.23951609114783
796.27,184.6840239712542
798.749,211.38402574082284
801.227,219.91242498166457
803.702,235.9374519272451
806.176,276.0321844187856
808.649,322.00787838517135
811.119,332.05682213238697
813.588,340.22852396627604
816.055,314.0487569581619
818.521,270.186222758085
820.984,266.69064397946613
823.446,262.99276134567754
825.906,218.85671178898883
828.365,210.33240654951214
830.821,188.46981403604968
833.276,155.03324268694905
835.729,169.16800478333016
838.181,152.20993740517451
840.631,120.92349481598922
843.079,94.12079322841464
845.525,80.85208414127237
847.97,89.54860862898022
850.412,107.35592782145068
852.854,103.80058671731695
855.293,102.79011133050062
857.731,53.851101074872986
860.167,16.224464006064863
862.601,27.960652063273756
865.034,35.34822964441173
867.465,52.43768027649003
869.894,60.70807042886781
872.321,47.63847523125469
874.747,37.61273752505167
877.171,42.06232215278078
879.594,25.18059881895124
882.014,31.732363046158298
884.433,26.768119035942618
886.851,40.00502919632527
889.266,80.39833985980113
891.68,100.2366165251733
894.092,87.28459814699363
896.503,82.02128952024759
898.912,72.30662509361173
901.319,70.38146611604725
903.724,96.20093111673123
906.128,117.7677263849846
908.53,139.32261930734148
910.931,154.5349117046203
913.329,119.07386554995082
915.726,92.37060487727877
918.122,76.42763673748368
920.516,67.62837215450827
922.908,90.73712327195199
925.298,121.51814811871918
927.687,125.11660013657183
930.074,125.86804913625338
932.459,132.63181177742945
934.843,118.50523442957319
937.225,113.77607127095098
939.605,104.82724333998385
941.984,115.70826425328414
944.361,113.4685706855812
946.736,126.01466237346995
949.11,93.72914688105948
951.482,66.80407007991244
953.853,23.955199009936678
956.222,17.660114264081585
958.589,24.6343976111375
960.954,36.11734342805221
963.318,21.252910001958753
965.68,12.804004165529932
968.041,3.8191468847167016
970.4,9.870569548308595
972.757,7.530406792774102
975.113,-0.1054912339754992
977.467,-6.179459889588998
979.819,-8.691063142002804
982.17,-19.592327161238245
984.519,-17.359165030139366
986.866,-28.086611886378023
989.212,-5.631681186119295
991.556,11.624729578680217
993.899,51.158787296891205
996.24,51.018004399958954
998.579,54.10694978606989
1000.92,38.377721649086425
1003.25,44.59184887890365
1005.59,26.367906747527513
1007.92,37.32437069038588
1010.25,48.079612944784
1012.58,46.63285424142441
1014.91,51.03083351965279
1017.24,68.70114430936724
1019.56,52.83319016055066
1021.88,61.09247340612774
1024.2,79.52536011530378
1026.52,79.98765457070567
1028.84,82.6684118407668
1031.16,86.89946463782303
1033.48,90.53637874763331
1035.79,123.52988464938653
1038.1,143.2115948499918
1040.41,137.00829264694016
1042.72,125.44193517688655
1045.03,106.22489455946447
1047.33,111.450437136348
1049.64,119.97367890078954
1051.94,119.55444568905727
1054.24,124.71441908616589
1056.54,144.21332995065018
1058.84,165.0489614631524
1061.13,185.83810455596085
1063.43,179.1498942949229
1065.72,173.93438435660187
1068.01,153.85588341018843
1070.3,143.57867245179
1072.59,146.48129356729328
1074.87,178.7041720285597
1077.16,176.48295267534013
1079.44,193.71993153527933
1081.72,200.6507255391682
1084.0,214.844275569523
1086.28,255.20284950917403
1088.56,338.5810929088998
1090.84,397.5479367979167
1093.11,466.10088644675534
1095.38,498.61840536822456
1097.65,464.24087074694353
1099.92,405.0610526784051
1102.19,344.36221245562706
1104.46,267.9514389510582
1106.72,248.63584214133016
1108.98,264.17493710820827
1111.24,282.9473137538248
1113.5,308.52206842067585
1115.76,345.56356884495926
1118.02,369.0219333956138
1120.28,386.8949388847964
1122.53,387.7994521878802
1124.78,372.49524281583626
1127.03,300.7421288209466
1129.28,259.7285512739488
1131.53,236.16681540784884
1133.77,201.76928414268468
1136.02,186.39123827695948
1138.26,193.98326048860122
1140.5,160.92457171687602
1142.74,176.40398659192488
1144.98,192.9437260071511
1147.22,238.9708487392329
1149.45,289.4839211633687
1151.69,319.48159173043905
1153.92,284.72449877749364
1156.15,271.49717833825
1158.38,238.13187671549008
1160.61,199.57998210108212
1162.83,162.07869429122957
1165.06,128.2462658302993
1167.28,85.89152886893635
1169.5,105.58532678408642
1171.72,110.27956484662991
1173.94,79.7357846985451
1176.16,54.953738830061866
1178.37,27.266631723495266
1180.58,8.34112290183839
1182.8,12.272568072591184
1185.01,16.585022176358734
1187.22,-2.3878043334120775
1189.42,-12.693016536627738
1191.63,-26.853766322315096
1193.84,-23.535912482545427
1196.04,-21.83372975349357
1198.24,-2.6508588101412442
1200.44,-7.890782567436418
1202.64,7.590790443459355
1204.84,0.8430662336641035
1207.03,-1.0369810227848575
1209.23,-19.571278399222365
1211.42,-6.13875211083041
1213.61,9.88181257849078
1215.8,45.58795699020379
1217.99,63.50592449919736
1220.18,68.78113225546099
1222.36,61.60673814387246
1224.55,63.318874410642366
1226.73,58.53950033737897
1228.91,70.1763977722951
1231.09,72.80411904236303
1233.27,78.42588724642792
1235.44,73.8069251197428
1237.62,67.14111723184465
1239.79,61.38433885109134
1241.96,86.92111814253599
1244.13,130.70748884199793
1246.3,168.3186048348855
1248.47,218.948735687414
1250.64,280.03030979686037
1252.8,367.091052779919
1254.96,440.56350681343383
1257.13,513.7850261656135
1259.29,556.8549155843796
1261.44,618.396330590489
1263.6,665.0324634849283
1265.76,702.5293960229751
1267.91,701.6532378025556
1270.06,663.6939313192611
1272.22,634.9414379737505
1274.37,593.1143050315281
1276.51,548.0263278208215
1278.66,478.7294024066514
1280.81,413.41828302680915
1282.95,342.5258157183034
1285.09,308.1991243247678
1287.23,265.96627269434225
1289.37,235.26006973469634
1291.51,256.7037792299559
1293.65,261.25397251477034
1295.78,286.1529049579035
1297.92,323.5475591124905
1300.05,361.06106881867686
1302.18,371.1260480681692
1304.31,403.8893484402088
1306.44,372.49776891849865
1308.57,342.0028133271792
1310.69,322.17020967156645
1312.82,323.43228662174715
1314.94,347.64987380569914
1317.06,333.73134495955355
1319.18,321.9183277445279
1321.3,328.9761754686119
1323.41,346.28920071302423
1325.53,369.90828991104536
1327.64,422.5508988792344
1329.75,418.220095967685
1331.87,402.96646235314984
1333.98,388.60237328454286
1336.08,346.22580313796357
1338.19,318.744130471729
1340.3,285.207466890922
1342.4,256.80865257860864
1344.5,207.1689661127698
1346.6,163.1952628546626
1348.7,105.69901809908424
1350.8,87.6344178436841
1352.9,48.050735272554675
1354.99,47.09232628744303
1357.09,50.71291075325644
1359.18,58.00890136260227
1361.27,49.12416107176978
1363.36,32.107141489078685
1365.45,-0.8034073081873885
1367.54,2.0596539955274693
1369.62,30.60137651135824
1371.7,53.67900752452124
1373.79,89.86389413369625
1375.87,125.15577090309671
1377.95,163.93514275263556
1380.03,168.67757260999815
1382.1,156.4774928722386
1384.18,125.19106448642015
1386.25,104.67427412550683
1388.33,66.401983745199
1390.4,46.13459918839703
1392.47,6.632357837279869
1394.54,-7.487526591755341
1396.6,-4.703243062678666
1398.67,10.887809868262593
1400.74,11.949978272372391
1402.8,5.099830394318587
1404.86,4.429968629336827
1406.92,-0.11001443977852432
1408.98,-8.189722345863856
1411.04,13.187764170386117
1413.09,24.923987009371785
1415.15,36.25368591067604
1417.2,72.60194639998213
1419.25,95.4413477359933
1421.3,105.24434895258605
1423.35,136.054722520018
1425.4,143.20184514898915
1427.45,130.53879811851357
1429.49,131.53761046093655
1431.54,117.76545452790015
1433.58,102.59893679440961
1435.62,97.36696009146544
1437.66,110.77930012441743
1439.7,98.54565818178935
1441.74,107.37566622505847
1443.77,111.35984435938553
1445.81,104.11246306624707
1447.84,84.86678638844978
1449.87,109.28460082943138
1451.9,119.31336330018212
1453.93,126.94811097092497
1455.96,145.32670445613212
1457.98,168.72983290429806
1460.01,187.5810190877146
1462.03,261.2561483017694
1464.05,323.6549020261557
1466.07,365.15314396703207
1468.09,442.50768705156906
1470.11,548.9515366129672
1472.13,669.0986573850068
1474.14,827.1820738299327
1476.16,986.1967323711015
1478.17,1098.3756969589529
1480.18,1176.2377732084174
1482.19,1166.254180155368
1484.2,1088.848555346408
1486.21,922.9683885000857
1488.21,769.5612170728693
1490.22,599.2889170632177
1492.22,481.432470006127
1494.22,388.22530139625246
1496.22,312.75804768245666
1498.22,208.1690375480689
1500.22,151.5014398578171
1502.22,91.79850684285248
1504.21,56.19881728577275
1506.21,57.65056732469225
1508.2,33.292527923977104
1510.19,-0.7364262264429726
1512.18,-12.297311621288827
1514.17,-7.822459421574422
1516.16,7.7321086080712575
1518.14,41.029540992261445
1520.13,15.352159494280613
1522.11,-0.4937752526677741
1524.09,-10.844726685642627
1526.07,-25.894164299766317
1528.05,-13.930655209945144
1530.03,-13.29024254107344
1532.01,-4.689778907143591
1533.98,-10.274547041156666
1535.96,4.048403919800421
1537.93,20.610255004437022
1539.9,42.551841493648226
1541.87,53.39507741561556
1543.84,85.9477133742439
1545.81,87.68428485378422
1547.78,108.50801290441291
1549.74,124.1793714944697
1551.7,112.17322629126875
1553.67,101.25025915619835
1555.63,87.98077359219792
1557.59,108.31611923885862
1559.55,139.1124973198962
1561.5,161.03571847158287
1563.46,159.41834152355432
1565.41,144.49776466057597
1567.37,125.84479277477635
1569.32,127.98268100836549
1571.27,133.0061782963412
1573.22,133.10533281396943
1575.17,109.08929742425426
1577.11,96.71965893493757
1579.06,106.13900545073625
1581.0,104.91854134462824
1582.95,83.29617841961158
1584.89,73.31938897522741
1586.83,57.083296969317644
1588.77,59.01638822740529
1590.7,66.07098255683536
1592.64,64.86608681329403
1594.58,41.92548606257333
1596.51,28.55869188518841
1598.44,40.76570020480199
