Raman Shift,Processed Intensity
331.095,84.05202639389927
333.909,27.037272922541888
336.721,15.737805031964399
339.531,34.6536311263917
342.339,85.5704907041968
345.145,87.46462466687854
347.949,74.43135515181666
350.751,111.2803320317139
353.55,139.39268417593667
356.348,170.86388499758095
359.144,201.2656656195809
361.937,213.12221375510353
364.729,195.67208687366156
367.518,203.7253634624667
370.306,262.5684133353948
373.091,332.01152508482755
375.874,369.1508192477627
378.656,407.65397099575193
381.435,357.99831377720966
384.212,286.75656200734966
386.988,220.50158137716107
389.761,111.37782582904947
392.532,51.91086977058103
395.301,17.10265457393234
398.068,7.002925551544195
400.833,26.947335598438713
403.596,62.31935835834702
406.358,17.216963294603374
409.117,6.119290761036609
411.874,-46.73238721284315
414.629,-75.14418232713615
417.382,-62.68386670704149
420.133,-48.299916498991024
422.882,-77.70246854720381
425.629,-48.458569645815714
428.374,-6.039811960183215
431.117,10.13002284838376
433.858,45.10350470640833
436.597,57.2190479651822
439.334,39.19611956076733
442.069,38.46854241208757
444.802,49.08922739044965
447.533,16.20633778610363
450.262,54.729933835609245
452.989,102.76052201111997
455.714,153.01760599469208
458.438,187.50633289070038
461.159,158.2317584858647
463.878,86.91311250927674
466.595,75.36473055908209
469.31,72.44841460060843
472.024,95.21626965494761
474.735,107.33926231063515
477.444,91.77388177290732
480.152,88.95261043676737
482.857,112.26010874576423
485.561,126.27130481267295
488.262,128.8942548849559
490.962,131.89395619117613
493.659,139.27330264455713
496.355,171.08261197511956
499.048,196.2767719094345
501.74,213.3819101598997
504.43,210.7334929854469
507.118,256.523947561775
509.804,286.1359986372913
512.488,366.8093385223833
515.17,452.4501542215503
517.85,531.2501783750558
520.528,568.2105021053467
523.204,616.7606259587069
525.878,627.7108441802402
528.551,638.633200417436
531.221,674.1948243761026
533.89,714.8722208572558
536.556,718.4274635559232
539.221,727.0986745742143
541.883,710.7905039344078
544.544,674.1693709967894
547.203,686.0444201632099
549.86,690.3199051520683
552.515,699.8999542256693
555.168,718.783811608057
557.819,736.3515550933316
560.469,744.1260041301457
563.116,774.7251040966707
565.761,757.9571677184172
568.405,745.0589736289112
571.047,708.267198263708
573.687,654.4850858496434
576.324,561.6157850607542
578.96,498.5147332932388
581.594,492.0848980832825
584.227,498.27678042963817
586.857,507.85032287812055
589.485,471.6130080822827
592.112,428.657957364112
594.737,417.7925054651846
597.359,436.72868005973487
599.98,449.55939555344094
602.599,473.71083735839966
605.216,465.99008426332557
607.831,525.6327308037671
610.445,568.7790810608844
613.056,607.5693900792794
615.666,661.1914862371968
618.274,751.5950602834023
620.88,829.5869067550016
623.484,902.4023558714639
626.086,925.3243244762589
628.686,906.8261765023044
631.284,892.6193453421752
633.881,935.9390514564097
636.476,1003.4014485532489
639.068,1025.6702935779012
641.659,998.5521881303716
644.249,889.0442008356808
646.836,745.333870666459
649.421,615.8944483607797
652.005,519.7229949828438
654.587,446.197528102713
657.166,345.7436917855607
659.745,266.1204741999718
662.321,189.46782998815115
664.895,142.02096930279458
667.468,115.96750398681843
670.038,117.11411756260486
672.607,96.3151399831504
675.174,66.85350333559973
677.739,74.9169356400148
680.303,70.97891655290823
682.864,42.4177283088693
685.424,27.754554281242235
687.982,4.082053733273824
690.538,-30.221344831554234
693.092,-21.681909363840987
695.645,-18.063926674758022
698.195,-32.32207576586143
700.744,-15.553803499324658
703.291,0.6673454149331519
705.836,3.9583949222401316
708.38,4.46026914044478
710.921,33.07588585136182
713.461,31.422536115543608
715.999,32.83188339408662
718.535,33.49281981329159
721.069,25.403846238840288
723.602,32.18259520712763
726.133,78.54202052325081
728.662,99.7665868590052
731.189,109.47417363659406
733.714,63.04464557900337
736.238,28.71508992705094
738.759,17.103625084996565
741.279,27.637971170923265
743.798,27.317353900450144
746.314,44.093456089492065
748.829,46.44184534749411
751.342,55.45721129447702
753.853,50.18669801617489
756.362,51.487046042977
758.869,47.31030575744262
761.375,49.132407944670376
763.879,56.191258152190585
766.381,26.772450097473666
768.882,-3.3145447340866667
771.38,2.6445744135667155
773.877,15.221317641322912
776.372,42.98726032686318
778.866,62.60928000900094
781.357,79.37336470059108
783.847,73.99413548715575
786.335,81.94817864931929
788.821,99.4264254042937
791.306,117.95319831402549
793.789,145.38621007429765
796.27,188.91656230382796
798.749,199.16398242860623
801.227,239.176822470994
803.702,277.1939626007261
806.176,312.9781432573441
808.649,326.86358298691493
811.119,335.42264389779757
813.588,323.51344949735903
816.055,323.27988348107147
818.521,294.34206471208745
820.984,259.32015553414976
823.446,225.78674151306814
825.906,207.7906397496322
828.365,163.95213576394872
830.821,172.55822037977623
833.276,152.18163613266825
835.729,123.6332570114514
838.181,128.00970629493895
840.631,122.93145057914262
843.079,72.39994142352589
845.525,83.36904271155208
847.97,71.07836277313345
850.412,78.3865865070743
852.854,79.48575988446873
855.293,74.8536696901956
857.731,55.68241374059971
860.167,62.44982824403405
862.601,67.72901039949511
865.034,83.18831718573938
867.465,90.11517367420538
869.894,63.03511943718058
872.321,32.7594263845358
874.747,33.194621362370526
877.171,43.294865894512895
879.594,26.585764495449894
882.014,41.64055393563967
884.433,46.365816316346354
886.851,42.715763573052755
889.266,59.16842674077088
891.68,84.91613093364231
894.092,81.19882746739586
896.503,90.2088545532406
898.912,97.90045989650844
901.319,122.22789472386967
903.724,120.05017447721957
906.128,135.1786966504137
908.53,132.94866814981742
910.931,116.21910408343228
913.329,85.89663607382454
915.726,126.64979676153098
918.122,144.0518757370346
920.516,164.86663261560034
922.908,151.14353392162548
925.298,150.55108521108968
927.687,123.94825843209219
930.074,136.24163357110683
932.459,156.76634982304085
934.843,121.00039009463353
937.225,106.18362741261672
939.605,127.69877609378136
941.984,127.11900958171418
944.361,141.6841497120913
946.736,153.72923693036637
949.11,116.35119574755026
951.482,117.74216686265709
953.853,128.33236309467975
956.222,92.07578245741934
958.589,72.97401647240213
960.954,40.21910610085138
963.318,40.479254818513255
965.68,82.23216073809749
968.041,123.00311063648815
970.4,79.22212160099502
972.757,55.31917791370688
975.113,-14.751960635588603
977.467,-52.6089980555289
979.819,-24.345865268826856
982.17,18.705372354648034
984.519,-1.9302554897187747
986.866,22.462698102918466
989.212,-17.305150129144977
991.556,26.814834046202122
993.899,82.252152300219
996.24,105.76954565544929
998.579,90.60584530635833
1000.92,73.66644248758553
1003.25,35.47566310410002
1005.59,72.51009474231978
1007.92,70.67477082407481
1010.25,65.73173928668052
1012.58,59.823869358243655
1014.91,32.09389642821202
1017.24,36.06537167982037
1019.56,51.499802198731686
1021.88,82.06331814830241
1024.2,87.6123912100852
1026.52,101.0509815957621
1028.84,92.37816124956316
1031.16,83.5928799078199
1033.48,102.97968353947363
1035.79,147.77538516753725
1038.1,119.07383092865189
1040.41,131.25447565644959
1042.72,109.8871489410933
1045.03,95.73205928405832
1047.33,121.882655395769
1049.64,150.00372558847675
1051.94,125.75997335960483
1054.24,134.62554535605568
1056.54,114.50308314803328
1058.84,132.00944166953377
1061.13,174.47569337311938
1063.43,180.99475143231143
1065.72,189.8499453249367
1068.01,206.27692974980414
1070.3,200.17797449576688
1072.59,196.9791114536356
1074.87,202.20156734238662
1077.16,166.41414881632068
1079.44,162.8999132865108
1081.72,175.60855402796074
1084.0,203.01354719152823
1086.28,244.01691786347828
1088.56,308.47305374407733
1090.84,388.85537596904715
1093.11,443.6372956453008
1095.38,478.0065037200209
1097.65,464.15068942115863
1099.92,421.9718301265091
1102.19,358.84810028040374
1104.46,309.44339935802236
1106.72,272.89783221065613
1108.98,258.875332268115
1111.24,273.89699902683924
1113.5,315.4839593475376
1115.76,366.96689541948354
1118.02,388.20033462958304
1120.28,392.8483680028587
1122.53,383.14655911913223
1124.78,371.1400435058731
1127.03,327.6359137453278
1129.28,303.39369981975415
1131.53,267.0301351709345
1133.77,238.92392275969542
1136.02,220.3109773159024
1138.26,199.47490568369562
1140.5,180.6993919286267
1142.74,187.07772530193847
1144.98,195.60804249055946
1147.22,227.6695222480496
1149.45,242.0700085969711
1151.69,257.2364911741224
1153.92,266.3103474805305
1156.15,248.9092517981096
1158.38,216.93670315393456
1160.61,206.8201247130953
1162.83,184.22515364773312
1165.06,168.2937405298917
1167.28,140.12034396245713
1169.5,93.46622044819765
1171.72,63.42609521118402
1173.94,62.90435682773045
1176.16,49.90077566685932
1178.37,28.74860328314753
1180.58,15.876481333382344
1182.8,-2.7629828401168197
1185.01,-12.64559300713131
1187.22,-9.008891627324374
1189.42,-23.375963903057027
1191.63,-23.07924314934303
1193.84,-17.308126622261398
1196.04,-21.489927146198625
1198.24,1.2815537772489733
1200.44,15.341260570128952
1202.64,-8.213788846790067
1204.84,-7.000699156834571
1207.03,-4.922130294088902
1209.23,-9.071064276891775
1211.42,8.459665327068478
1213.61,11.386891044595814
1215.8,-1.5724194232907394
1217.99,3.3940686476944393
1220.18,37.955956681452335
1222.36,69.11629802938614
1224.55,79.49730735737012
1226.73,84.62607003272569
1228.91,90.17263246356833
1231.09,69.61666386673323
1233.27,63.771260892841156
1235.44,60.54484748946106
1237.62,66.3697414309413
1239.79,108.39262561013811
1241.96,146.23644790158414
1244.13,175.42898769131375
1246.3,192.59332716859467
1248.47,219.11451309385734
1250.64,267.9966947570963
1252.8,355.910738126757
1254.96,414.9085066652849
1257.13,502.1371421446804
1259.29,575.8866787953812
1261.44,673.20908602658
1263.6,727.0135016227284
1265.76,770.5424173209856
1267.91,767.5145310553394
1270.06,751.8390277721535
1272.22,682.0917650076083
1274.37,618.4200298937199
1276.51,514.494915211978
1278.66,461.41607639936456
1280.81,404.75934569722403
1282.95,357.9100605858614
1285.09,303.34877317151086
1287.23,275.6512452875961
1289.37,267.39320550074785
1291.51,298.1979632596799
1293.65,305.35545161549226
1295.78,304.2984127991224
1297.92,301.5547742749793
1300.05,305.4619295564844
1302.18,348.26197140256954
1304.31,357.1969250141726
1306.44,375.65160027835213
1308.57,367.01072972668953
1310.69,339.3732493508337
1312.82,347.40943656090553
1314.94,361.50376242961715
1317.06,351.0882201268653
1319.18,375.88041525908716
1321.3,371.550227637189
1323.41,372.57694923495296
1325.53,406.48737452838805
1327.64,421.37960512080826
1329.75,441.5420924631385
1331.87,428.977442478988
1333.98,383.3071725706743
1336.08,312.3431352919049
1338.19,281.3732277347499
1340.3,253.01852948804026
1342.4,227.28091678624992
1344.5,192.06686713456475
1346.6,171.75888298157474
1348.7,145.4059630110096
1350.8,153.6283591477602
1352.9,126.23661927818807
1354.99,78.89824901805355
1357.09,25.328183004251514
1359.18,17.479256186545854
1361.27,21.827913214547607
1363.36,35.136110861144516
1365.45,32.16560318053553
1367.54,25.820800309006927
1369.62,42.958293932371134
1371.7,77.33924311976739
1373.79,88.58176276331801
1375.87,91.49426439873696
1377.95,104.59927321641635
1380.03,123.51438792965519
1382.1,144.71419302383697
1384.18,129.95883767227838
1386.25,110.43690036635917
1388.33,86.57492021232565
1390.4,74.6564520376171
1392.47,76.20302625909198
1394.54,52.545584941741026
1396.6,14.110203571675129
1398.67,-28.62952050420654
1400.74,-32.86674630522066
1402.8,-26.556618382515808
1404.86,3.8218342766315345
1406.92,16.78951008614058
1408.98,14.105329569102878
1411.04,-12.043288586421113
1413.09,9.959574050106767
1415.15,37.872624386587404
1417.2,64.35926432137853
1419.25,81.36854589956943
1421.3,95.08755504068858
1423.35,111.60808098069583
1425.4,135.3075714282602
1427.45,162.372944863896
1429.49,169.94345045815157
1431.54,141.49162322789016
1433.58,92.34709633543912
1435.62,56.17279434010584
1437.66,53.345888354464705
1439.7,62.100655962549354
1441.74,77.385626852325
1443.77,89.53025225768715
1445.81,84.29252678141461
1447.84,75.71613402764228
1449.87,105.41616366290464
1451.9,128.9124475247993
1453.93,143.43908620683555
1455.96,171.99207088138155
1457.98,186.94833369404228
1460.01,178.8276553008925
1462.03,217.4355247866572
1464.05,283.7679043448031
1466.07,361.82075586238875
1468.09,466.97099607634505
1470.11,586.1669755392779
1472.13,672.4999099662264
1474.14,821.489597295702
1476.16,988.8463252269255
1478.17,1090.0423025665848
1480.18,1158.264042956546
1482.19,1172.9837962206093
1484.2,1091.2928844731714
1486.21,968.9017048945584
1488.21,859.9016372682602
1490.22,677.1459991372178
1492.22,530.2976676267745
1494.22,398.11479650572096
1496.22,287.21272372353155
1498.22,168.34968847140908
1500.22,112.90302443380983
1502.22,90.20249589711239
1504.21,67.19696719161425
1506.21,34.16869118115301
1508.2,20.16188346700642
1510.19,11.839868020369522
1512.18,8.342222814825618
1514.17,33.28478463592751
1516.16,30.283464619666347
1518.14,29.335207499945454
1520.13,46.34180799890555
1522.11,37.5384891220142
1524.09,12.112956643627967
1526.07,-28.508879740779776
1528.05,-49.805756690953785
1530.03,-40.3515253197188
1532.01,9.994377689888097
1533.98,20.27740594914212
1535.96,34.59075585623714
1537.93,26.218220099742666
1539.9,23.253231638251236
1541.87,26.83695529907527
1543.84,40.68209366265546
1545.81,39.73955008982989
1547.78,54.48413936815177
1549.74,64.20029835820719
1551.7,73.79160616374247
1553.67,94.44744715893694
1555.63,145.92872163472703
1557.59,195.28212787369375
1559.55,202.69730136781277
1561.5,181.602049274298
1563.46,156.51948963335644
1565.41,151.11566677641417
1567.37,158.48526197244337
1569.32,144.62778026476212
1571.27,102.30468968879313
1573.22,75.94417953743732
1575.17,80.68877576930845
1577.11,103.01438498839389
1579.06,102.77790985228626
1581.0,96.21724543279743
1582.95,94.37984700513834
1584.89,84.69415497995419
1586.83,78.11244840679524
1588.77,69.68226990615426
1590.7,45.784517268177524
1592.64,38.56201124184986
1594.58,40.22901570513136
1596.51,41.45218640652706
1598.44,36.398186373315184
