Raman Shift,Processed Intensity
331.095,127.38595516054238
333.909,-16.32786532877617
336.721,-16.452104706961563
339.531,58.84658309221504
342.339,97.30633150553558
345.145,135.66531216848944
347.949,131.39984288629148
350.751,163.55773370013094
353.55,216.8535377153271
356.348,230.5257066914005
359.144,243.5270799654695
361.937,259.6677543280284
364.729,250.75795389873292
367.518,284.17947143075935
370.306,329.36187151993045
373.091,376.4015509566898
375.874,444.2046086018986
378.656,452.86781050072386
381.435,414.8690788060503
384.212,314.06750451142625
386.988,215.5605030411316
389.761,175.1600174593109
392.532,126.154435964816
395.301,108.40384271938046
398.068,100.43526867579885
400.833,53.25222812039465
403.596,3.9537790250037688
406.358,-13.170226124834244
409.117,-55.639127596937215
411.874,-54.590969489051076
414.629,-63.639631177786214
417.382,-63.30339325465684
420.133,-64.43350927403617
422.882,-50.1189748483248
425.629,-20.353208356601044
428.374,58.91830896104966
431.117,99.03610182601324
433.858,140.67429144547305
436.597,141.12628127481958
439.334,130.63806182768167
442.069,99.55103929548159
444.802,108.15914988127861
447.533,85.80406937170392
450.262,98.2085179469941
452.989,119.33337451483385
455.714,133.90145771087373
458.438,122.11178308971375
461.159,126.49667745874922
463.878,113.68365511676984
466.595,79.63348456875428
469.31,64.11635047875916
472.024,33.71182514661314
474.735,14.76122093699405
477.444,42.36756175610935
480.152,74.39555802906489
482.857,61.090630873234204
485.561,89.22175018952203
488.262,97.5576135365618
490.962,107.43806934999066
493.659,121.34554016173706
496.355,110.23835058120812
499.048,93.59834099077261
501.74,127.33562409836941
504.43,165.74096053774656
507.118,229.24766774397813
509.804,259.9078145432718
512.488,309.53508240943665
515.17,353.56191243465037
517.85,416.6585570621105
520.528,488.54260800918473
523.204,554.3123337143679
525.878,586.2085882128067
528.551,610.5671962023061
531.221,607.5332428712322
533.89,630.6325065835617
536.556,671.3905106115494
539.221,677.8563367731631
541.883,689.5073914504551
544.544,666.3446477984203
547.203,656.7974117633794
549.86,664.0566595299338
552.515,694.265517825057
555.168,678.757363269805
557.819,688.0558264929355
560.469,660.7795581492919
563.116,681.1184235096102
565.761,647.8811256217668
568.405,644.5428284720078
571.047,598.0070658604618
573.687,569.2247931338061
576.324,532.4324865369763
578.96,505.00929018392844
581.594,427.14368683791645
584.227,366.1192163108217
586.857,294.31447957676346
589.485,282.6793333619039
592.112,302.1634656866336
594.737,314.6687809315631
597.359,336.04940395113636
599.98,366.58787466343347
602.599,392.8999140685428
605.216,448.22014264789095
607.831,489.5449416207116
610.445,564.1086475338498
613.056,610.5740325658485
615.666,674.9846895929354
618.274,727.6697982073911
620.88,780.1488907359189
623.484,829.3223325437302
626.086,915.5665642433905
628.686,967.8293439036784
631.284,1003.7726083060552
633.881,1051.5343818201814
636.476,1050.1573519460967
639.068,1011.6841115230632
641.659,950.9666866526882
644.249,857.857017003008
646.836,703.1593408744684
649.421,592.3921040754358
652.005,461.12129736913903
654.587,353.2937939206072
657.166,292.4278296007574
659.745,254.75586424286348
662.321,192.08172861330922
664.895,141.25681900138807
667.468,95.56105371386957
670.038,50.27430576003326
672.607,29.438311727182736
675.174,40.33286637044239
677.739,49.23773661855148
680.303,56.67076912340144
682.864,32.19743050637271
685.424,-12.997742677386213
687.982,-19.92064635563065
690.538,-14.910441410368094
693.092,-5.734768495326989
695.645,0.6007492875341995
698.195,-19.86175978143183
700.744,-42.84192090554325
703.291,-43.392522337448554
705.836,-37.23283180848284
708.38,-22.224774747675838
710.921,-19.56340290671642
713.461,11.842156844536476
715.999,12.08298949436039
718.535,24.583724453056675
721.069,34.57872525969697
723.602,55.39780309838761
726.133,68.84716840977035
728.662,78.78085869300276
731.189,74.14835678392228
733.714,81.37554246654054
736.238,48.07897741787974
738.759,29.970666343273933
741.279,19.762818111682463
743.798,-7.260726442338637
746.314,-17.29211433570572
748.829,1.9528997461125073
751.342,-18.71742827273738
753.853,-13.732739124265208
756.362,7.763236823299394
758.869,31.912675184963973
761.375,47.715081749856836
763.879,42.884430957827135
766.381,25.468209137951362
768.882,26.514076794654102
771.38,26.54605470335582
773.877,62.61213857754683
776.372,90.14143754538145
778.866,94.80131262627447
781.357,120.87832473130857
783.847,111.37346837792438
786.335,117.04978635699626
788.821,117.67046059037921
791.306,119.80833155989285
793.789,158.79827487915918
796.27,172.07053024639572
798.749,170.53164944482296
801.227,218.46925386688054
803.702,256.7425063241608
806.176,293.4487733335286
808.649,338.256954069906
811.119,342.69319027144456
813.588,343.95038566850735
816.055,345.2215349364601
818.521,327.17590979131637
820.984,306.2923879425248
823.446,283.2880201409994
825.906,248.403740084299
828.365,237.40436003609466
830.821,204.38809025516002
833.276,157.11986794817403
835.729,143.41230527014568
838.181,124.45901827721946
840.631,98.02509873663212
843.079,108.16139546048316
845.525,109.49022421092923
847.97,113.06250617681872
850.412,111.88157311698251
852.854,73.47459155114711
855.293,61.22589171275331
857.731,75.04362983510873
860.167,101.50264091373492
862.601,112.46348194490429
865.034,92.59623706893217
867.465,61.42813223728808
869.894,47.057816546370304
872.321,37.01250071414643
874.747,30.533666985355012
877.171,19.815159989093445
879.594,6.050801405934635
882.014,22.05343320646716
884.433,46.25491525320194
886.851,75.42040923320474
889.266,84.74361497168366
891.68,109.6562924598611
894.092,103.49492673998566
896.503,108.54834517129848
898.912,103.96247755314016
901.319,97.88321148615523
903.724,62.837342971589806
906.128,70.73257462963647
908.53,76.5241805844471
910.931,97.59595706343043
913.329,104.66498252035399
915.726,135.63875871082973
918.122,139.37711367256452
920.516,130.26362851512704
922.908,160.77706420972754
925.298,161.82469314088894
927.687,141.69467827717472
930.074,136.43702377048612
932.459,126.14928746011674
934.843,105.6908648053859
937.225,115.6829871039804
939.605,115.55633875791727
941.984,100.55105549188875
944.361,86.38338923827087
946.736,87.29332540308769
949.11,90.47315251292775
951.482,89.87698424282007
953.853,108.22075763458815
956.222,98.7917551247242
958.589,85.59145990560228
960.954,74.85936366764008
963.318,57.40629815098828
965.68,54.85252860197306
968.041,51.86584722954876
970.4,47.20919047125608
972.757,36.59778006871966
975.113,33.74674033361134
977.467,21.37109636599871
979.819,14.423867510786295
982.17,-5.761077281079906
984.519,3.3405047358287447
986.866,-13.318672810722546
989.212,-11.833614639476764
991.556,-12.870851746804192
993.899,8.09346354213244
996.24,41.58308032316336
998.579,72.550218124308
1000.92,43.327946272440386
1003.25,47.48732516471614
1005.59,34.74216658762407
1007.92,50.806174988408884
1010.25,77.15485065126745
1012.58,81.02548811163024
1014.91,55.560031713298486
1017.24,26.424121641772444
1019.56,28.997568529003956
1021.88,53.23149472481896
1024.2,80.50547822100066
1026.52,98.72279471492106
1028.84,127.11994538745239
1031.16,117.02856563326168
1033.48,147.25638141015065
1035.79,158.84911796935194
1038.1,144.9000276334409
1040.41,139.21656043139183
1042.72,156.7489394955419
1045.03,155.2568316966474
1047.33,162.11887542179647
1049.64,139.18982739993544
1051.94,104.65770952740854
1054.24,107.56762236015243
1056.54,137.15508241542216
1058.84,138.89364518779757
1061.13,150.1139567366215
1063.43,129.67042432105654
1065.72,131.51264893990992
1068.01,141.30447691906602
1070.3,156.1859086417801
1072.59,141.72548346944245
1074.87,138.82504561472206
1077.16,131.10070049090837
1079.44,175.02567582314714
1081.72,213.40651609301563
1084.0,263.33546745928334
1086.28,311.52381505963376
1088.56,380.8256965028527
1090.84,421.7619153610201
1093.11,493.3294689474203
1095.38,540.7158379992118
1097.65,537.7751811219944
1099.92,472.9807197105797
1102.19,392.1390276316549
1104.46,308.00908281121156
1106.72,291.73084263150326
1108.98,331.7300098041901
1111.24,337.2418458625325
1113.5,376.9302227488199
1115.76,417.17334106846283
1118.02,451.44468643932646
1120.28,467.5511286982046
1122.53,453.82340205967466
1124.78,372.9256328940012
1127.03,336.2362960764701
1129.28,290.5625046700575
1131.53,287.66382341762005
1133.77,286.2046536626651
1136.02,267.3256658891619
1138.26,250.31047035660072
1140.5,259.6808591636168
1142.74,255.14919116876194
1144.98,283.9993483398491
1147.22,298.7534063890064
1149.45,290.26687683630644
1151.69,279.91918716863006
1153.92,289.37558956995576
1156.15,280.8728791754718
1158.38,277.45749327805356
1160.61,258.03313434427446
1162.83,248.93220255422693
1165.06,203.29675215086263
1167.28,190.36420969411256
1169.5,159.6578542197526
1171.72,137.70110692209528
1173.94,100.06515417000628
1176.16,86.08323718959059
1178.37,45.61256079449868
1180.58,52.700964020998526
1182.8,27.777400286853663
1185.01,32.842417550204345
1187.22,26.84911465892401
1189.42,-9.534949919074279
1191.63,-37.45156365124444
1193.84,-36.51852263867454
1196.04,-43.78200959315109
1198.24,-26.907071094367666
1200.44,15.060472641411707
1202.64,18.360684650471285
1204.84,16.852831903946253
1207.03,14.634421803586974
1209.23,11.993573867508758
1211.42,-10.448130684557327
1213.61,17.40720214363023
1215.8,33.181393330584115
1217.99,39.92494680043478
1220.18,42.3075214431999
1222.36,45.09411742076236
1224.55,43.52602437761266
1226.73,55.84462679444141
1228.91,59.81520934173841
1231.09,50.96504794766747
1233.27,48.297691342139615
1235.44,49.340575934211984
1237.62,74.33549783234912
1239.79,98.71479915039549
1241.96,106.48231621831337
1244.13,117.64194684053905
1246.3,153.24526517338268
1248.47,229.10580326909644
1250.64,346.1323802389916
1252.8,440.3290980832178
1254.96,498.7000994253069
1257.13,566.2019442943333
1259.29,640.7912250023089
1261.44,749.3769429263407
1263.6,853.8681233860211
1265.76,890.6023829017747
1267.91,856.5364012151053
1270.06,784.9125837850288
1272.22,721.9257242845163
1274.37,652.8182385255043
1276.51,579.7373031458044
1278.66,496.68723239125734
1280.81,432.62471204074495
1282.95,362.79212856928734
1285.09,332.4318506921097
1287.23,294.64336805155426
1289.37,270.24042990399585
1291.51,282.2748504734218
1293.65,326.03650478120517
1295.78,370.10094352350075
1297.92,401.75796032959465
1300.05,417.67825425833917
1302.18,416.72294943745646
1304.31,398.51501946473763
1306.44,382.0583308568664
1308.57,390.4995436410961
1310.69,401.22334528026045
1312.82,423.0429226930305
1314.94,412.3904342741557
1317.06,377.2217676290104
1319.18,357.3498687367023
1321.3,374.2542615893758
1323.41,412.74771068865675
1325.53,454.92859782781306
1327.64,456.37139411201815
1329.75,468.0314176928914
1331.87,456.3400676935171
1333.98,424.30005813346634
1336.08,384.43779471095513
1338.19,335.18432301358325
1340.3,291.1134195862119
1342.4,292.2749210940792
1344.5,268.9566249145055
1346.6,218.0176183000217
1348.7,149.5073218272114
1350.8,81.33215189316797
1352.9,60.25551654529227
1354.99,62.516858930136095
1357.09,36.35546264700224
1359.18,24.200923768221855
1361.27,10.339813335614508
1363.36,9.34424461884555
1365.45,28.548061869072626
1367.54,53.14207775484101
1369.62,62.174073664047
1371.7,85.83451715699084
1373.79,108.26608894324954
1375.87,103.13511462045017
1377.95,110.53632974637571
1380.03,109.46907348249852
1382.1,97.88491080894255
1384.18,103.73525473944824
1386.25,82.39994091729614
1388.33,48.83008792550709
1390.4,60.50048140656736
1392.47,32.600053420250106
1394.54,10.555695134770758
1396.6,3.0322599941296176
1398.67,-6.257909305016938
1400.74,-11.840690856212632
1402.8,1.5674400590542064
1404.86,3.0117958276066474
1406.92,1.1566220259487636
1408.98,2.09462405536965
1411.04,-3.795886865913644
1413.09,-4.041466639140708
1415.15,-6.978296720287517
1417.2,22.343057051460164
1419.25,38.729075682670555
1421.3,71.03376514798038
1423.35,108.30151770495786
1425.4,125.4814017803917
1427.45,134.76049947562387
1429.49,146.42105359569632
1431.54,130.12618610706932
1433.58,116.0627594524808
1435.62,101.51280929437848
1437.66,60.234501067879364
1439.7,43.74784843849011
1441.74,39.23947937887692
1443.77,43.37216415039029
1445.81,63.665771856018864
1447.84,67.78298889810821
1449.87,63.529323150366736
1451.9,77.66263193939449
1453.93,80.79788812145716
1455.96,110.50242234973416
1457.98,163.4387843891825
1460.01,196.93617585997117
1462.03,242.75235917139435
1464.05,299.1212807414954
1466.07,347.657837073838
1468.09,479.5483551199857
1470.11,626.4077393086507
1472.13,760.1842376224602
1474.14,913.5880171985386
1476.16,1051.2816446909872
1478.17,1177.8800904428897
1480.18,1304.0459707535517
1482.19,1293.2990758600338
1484.2,1218.1116122043895
1486.21,1049.0510637485272
1488.21,871.9706723366892
1490.22,691.771346629358
1492.22,547.1635710371643
1494.22,379.8102670357432
1496.22,269.945844956786
1498.22,171.28097006480834
1500.22,121.28828101486579
1502.22,84.63096545312692
1504.21,66.63895466506688
1506.21,47.261308699850815
1508.2,36.30431578042976
1510.19,32.193401237450416
1512.18,19.782655490779916
1514.17,9.06912393578773
1516.16,-20.092903170363343
1518.14,-30.896646456199733
1520.13,-22.72568749953598
1522.11,-22.534916246520197
1524.09,-7.898148395819817
1526.07,3.2775881501154345
1528.05,-0.24794983047422647
1530.03,5.618441854315051
1532.01,34.54150644911283
1533.98,39.5194273887314
1535.96,39.2171585784381
1537.93,53.96642134089757
1539.9,52.6704632678759
1541.87,26.470721833851258
1543.84,33.27063086676094
1545.81,52.25942701875579
1547.78,73.57881337980189
1549.74,125.32295642462259
1551.7,154.01467343582976
1553.67,172.84352468895872
1555.63,180.61819135179394
1557.59,189.00456766940215
1559.55,201.28766267298306
1561.5,214.65731141253218
1563.46,228.30340999903
1565.41,238.65400778948697
1567.37,226.75625671485204
1569.32,207.84783679839256
1571.27,176.88076262645586
1573.22,154.711856485897
1575.17,172.1027453110305
1577.11,146.52938144010477
1579.06,141.8010871813019
1581.0,99.29864699778022
1582.95,93.73620921653423
1584.89,89.97080678486577
1586.83,131.0975923125743
1588.77,123.02126359034014
1590.7,140.0274891081042
1592.64,98.87814309725468
1594.58,102.02558819185924
1596.51,86.96981523276531
1598.44,30.544154500252716
