Raman Shift,Processed Intensity
331.095,83.73874323646669
333.909,112.14931878609468
336.721,131.2459556988524
339.531,143.36199567698577
342.339,156.30698763674445
345.145,147.86669607728254
347.949,136.99358564001477
350.751,125.92587709656209
353.55,153.425650955739
356.348,183.9693320229244
359.144,250.03341205467586
361.937,256.6182676514336
364.729,276.9148352930856
367.518,291.68557208882294
370.306,324.1216070031801
373.091,382.0808444630361
375.874,458.7070203455687
378.656,471.38209129954066
381.435,494.15481454278734
384.212,434.35980385017274
386.988,327.85563316059233
389.761,234.31055923159283
392.532,133.9644347701901
395.301,92.29538346844538
398.068,98.92457027713499
400.833,87.75906691752789
403.596,55.84900310743615
406.358,27.530432072985604
409.117,-33.7175182253236
411.874,-49.32025577130753
414.629,-38.60771612417193
417.382,-45.86197667096667
420.133,-65.60297144844208
422.882,-54.73135295907332
425.629,-18.86183514572531
428.374,57.43869444553275
431.117,145.03210409671556
433.858,190.78042153572733
436.597,177.16485660178932
439.334,147.09530010135404
442.069,138.1960131402043
444.802,135.75798312222105
447.533,103.16747022434447
450.262,120.33455387153572
452.989,134.69310778316594
455.714,147.72458454321213
458.438,161.71989540855066
461.159,167.58890916486826
463.878,95.3366176492409
466.595,90.82501555841736
469.31,60.34450406663609
472.024,56.37577063390199
474.735,65.82786840500194
477.444,111.51439713417994
480.152,131.67730908354906
482.857,139.5107218016301
485.561,134.25615947330562
488.262,142.15493712692614
490.962,168.3053067461833
493.659,210.13865100102066
496.355,251.65758174046005
499.048,233.7692765806578
501.74,230.95214882629853
504.43,226.87489834436155
507.118,251.25365767599442
509.804,289.7091381483833
512.488,373.86187122472256
515.17,456.0464974732299
517.85,550.5498650599716
520.528,618.0396044321737
523.204,648.6593696682007
525.878,661.7431274465921
528.551,681.8151603008068
531.221,716.6376889215894
533.89,769.9251611260011
536.556,771.4871122550276
539.221,764.5615017616619
541.883,781.8623355132545
544.544,773.1987166653062
547.203,783.4748489161957
549.86,790.6424207143127
552.515,799.1767989889831
555.168,815.7436990718802
557.819,839.389664142243
560.469,809.3039732435122
563.116,795.2472159666386
565.761,758.0274861810035
568.405,759.7384805272536
571.047,735.8071207196322
573.687,691.3268901340248
576.324,628.5340275388589
578.96,588.2361017783828
581.594,520.669157884518
584.227,518.7358155696711
586.857,476.19574867191886
589.485,461.23711698114266
592.112,457.0956171127773
594.737,458.5782952863251
597.359,444.9206934372028
599.98,471.16780485239315
602.599,462.84074409181403
605.216,545.651035957304
607.831,618.5006187473327
610.445,711.0532760831356
613.056,767.4965449253223
615.666,795.1131474000063
618.274,821.3762321487438
620.88,906.6636632975201
623.484,963.9723094257342
626.086,1024.8228087256703
628.686,1087.497667495295
631.284,1155.13650148821
633.881,1200.8312772636054
636.476,1186.531077345734
639.068,1163.613532050058
641.659,1067.265775118913
644.249,977.3892088809912
646.836,904.8852217917652
649.421,785.5123345453449
652.005,612.457631900616
654.587,500.0034326026125
657.166,375.2891973991359
659.745,305.2162942002301
662.321,267.30514419003475
664.895,196.9809393672117
667.468,149.335550561555
670.038,123.17514973631978
672.607,102.68687990959688
675.174,123.20076317092753
677.739,114.95160869792426
680.303,98.03139696336575
682.864,122.0083306089582
685.424,109.16493293814756
687.982,78.25995593274274
690.538,23.33790731714953
693.092,-22.270946186907167
695.645,-23.236289891385695
698.195,-5.322993541507003
700.744,6.704130037683171
703.291,22.318420902092384
705.836,-8.435294522822005
708.38,-3.274035917477704
710.921,1.2757150331453886
713.461,3.9256359441428685
715.999,20.435089454224
718.535,45.65874431985685
721.069,31.97514929555291
723.602,36.33435669804567
726.133,21.829355494277934
728.662,52.172266294152905
731.189,86.55148872423206
733.714,87.2031345157202
736.238,61.0776986876931
738.759,24.078159301740925
741.279,-11.559065640517474
743.798,-11.787923204699382
746.314,5.723469469088741
748.829,12.783304697442873
751.342,35.15227687376455
753.853,16.543584612177256
756.362,5.718170986683617
758.869,5.960916151274887
761.375,23.842544245752833
763.879,37.21962553964477
766.381,31.996483338026337
768.882,-6.208137207898744
771.38,-33.87059076640253
773.877,-20.895663014656293
776.372,22.716764838513882
778.866,83.96695282785367
781.357,119.47434642543203
783.847,130.85852549629772
786.335,106.54872468270696
788.821,86.78382997883045
791.306,106.08856578164978
793.789,146.27349146566394
796.27,190.86356938617246
798.749,213.14578050160344
801.227,223.16912094822965
803.702,267.8398367101263
806.176,292.0166582891329
808.649,322.4631782319534
811.119,339.9430858001133
813.588,341.2677825923074
816.055,323.34399816673476
818.521,316.12616756820944
820.984,275.3307136171629
823.446,245.3408053891294
825.906,219.34921193232503
828.365,206.45353693760808
830.821,176.22764388462429
833.276,166.53117642605002
835.729,169.74765020041696
838.181,150.78444940683266
840.631,128.9775852844773
843.079,94.32978792541235
845.525,71.41526475406954
847.97,66.28445900673705
850.412,71.94023678247731
852.854,67.67121695119431
855.293,74.71843439502618
857.731,43.98962229735662
860.167,29.202065860395123
862.601,17.9778369751416
865.034,17.89140984372716
867.465,37.99346707795439
869.894,62.0013724644964
872.321,57.013453253907755
874.747,70.03280625916705
877.171,76.6339610970681
879.594,70.29621009628681
882.014,54.022652491157714
884.433,32.959238615450886
886.851,25.156671239011757
889.266,37.61802119010281
891.68,31.108247739657145
894.092,13.630385652190853
896.503,17.663636998624497
898.912,39.972891540525325
901.319,76.8944375905412
903.724,120.57405382522347
906.128,110.82414871688343
908.53,84.31423329878999
910.931,72.09472726369495
913.329,67.54933649093073
915.726,80.1093353354122
918.122,88.01546796426192
920.516,90.55604016962525
922.908,58.54310641958273
925.298,31.83627595667849
927.687,45.34270937263955
930.074,52.25521042119772
932.459,49.95698449757219
934.843,83.35496854652729
937.225,71.07030382757739
939.605,80.67642772780027
941.984,115.08002271751684
944.361,138.9019653059663
946.736,129.95351309222406
949.11,125.71249181611893
951.482,80.75186336152728
953.853,41.025436616812385
956.222,16.820245001932562
958.589,41.042257328869255
960.954,41.835421995404886
963.318,38.81976048371507
965.68,15.85327038277319
968.041,16.746209363135677
970.4,8.35633153267645
972.757,22.636506338383242
975.113,18.44424391270786
977.467,-6.9821120656833955
979.819,-26.64242960639558
982.17,-18.53668893202189
984.519,-14.379264676516868
986.866,-0.3132108965514817
989.212,20.661166261868402
991.556,45.924401063829464
993.899,44.80929398707622
996.24,40.69614912381394
998.579,40.869916344415515
1000.92,33.37733346112327
1003.25,32.83644934414042
1005.59,32.76995656152576
1007.92,27.89090497147049
1010.25,11.912224838381235
1012.58,8.499107091830183
1014.91,29.649957804816722
1017.24,58.9821157900069
1019.56,60.1128091603066
1021.88,78.65915950848807
1024.2,85.33342418204643
1026.52,78.51442903424982
1028.84,97.29519165138913
1031.16,111.14959219906837
1033.48,101.6466633161142
1035.79,117.21249905610762
1038.1,150.51121144795002
1040.41,175.5877918183428
1042.72,179.58240068569717
1045.03,172.44465765403675
1047.33,176.5050741640507
1049.64,165.80839100603998
1051.94,148.68501107097154
1054.24,163.79862257771356
1056.54,141.57477468122715
1058.84,135.629453080757
1061.13,166.72146515183476
1063.43,180.80006317351535
1065.72,198.6239961270453
1068.01,189.33294244690796
1070.3,156.6379903909126
1072.59,145.34545174361892
1074.87,157.73781837690694
1077.16,188.3832902391173
1079.44,206.18339858228342
1081.72,222.94443871318435
1084.0,243.7108075062847
1086.28,312.71738853573765
1088.56,374.9609848264263
1090.84,449.4384182716715
1093.11,474.09891476522034
1095.38,504.4155369522855
1097.65,483.8613788853361
1099.92,424.1476654417868
1102.19,346.50947078931813
1104.46,299.8961987559437
1106.72,283.9715870096113
1108.98,292.2565683806556
1111.24,327.9387988509227
1113.5,340.8726617333623
1115.76,380.1507004230564
1118.02,423.57981305300177
1120.28,456.300304292756
1122.53,430.35731809945537
1124.78,392.0341752307422
1127.03,350.51904409102167
1129.28,318.7144687205837
1131.53,305.9040396418595
1133.77,274.3714456580692
1136.02,226.97190660423985
1138.26,198.03693943157077
1140.5,203.70769572036556
1142.74,225.93496585963157
1144.98,254.66965941715375
1147.22,285.62471408100214
1149.45,293.9417665057929
1151.69,289.00068030181046
1153.92,287.94335973841316
1156.15,276.4356586855399
1158.38,259.0007181266433
1160.61,273.2094465287628
1162.83,266.7281430697501
1165.06,242.1280256273899
1167.28,208.50428257804606
1169.5,160.3808388810237
1171.72,107.5198840676851
1173.94,105.68378118294731
1176.16,93.92078525059037
1178.37,69.80314269094265
1180.58,59.0461431195215
1182.8,48.46050447899802
1185.01,36.19047245687807
1187.22,31.285253236515018
1189.42,-1.3009823233014686
1191.63,-28.185284984951522
1193.84,-37.222589619066184
1196.04,-38.07713972984129
1198.24,-21.555819721551416
1200.44,-31.56053876036094
1202.64,-31.850142520141617
1204.84,-10.849946243407885
1207.03,1.4911097911542583
1209.23,15.033777597762992
1211.42,24.496103395753835
1213.61,13.215315389614034
1215.8,10.719236885421651
1217.99,27.821511396088
1220.18,12.859686237027518
1222.36,15.695201980891625
1224.55,52.522908520113106
1226.73,68.77582054069285
1228.91,90.6489222180162
1231.09,95.81344810315113
1233.27,60.79783067581275
1235.44,65.32102884970595
1237.62,81.81633266835024
1239.79,71.66945371518364
1241.96,63.361377428432206
1244.13,95.65883446359862
1246.3,144.85239110356179
1248.47,224.18501585915487
1250.64,315.04255083164276
1252.8,361.57275450377824
1254.96,426.44720167371474
1257.13,564.6231833889165
1259.29,669.3913211657887
1261.44,761.3755621616795
1263.6,841.0093648230848
1265.76,867.8214083433625
1267.91,854.6736830728378
1270.06,842.5233904527092
1272.22,775.1848429489655
1274.37,689.0913639862911
1276.51,617.2952831200794
1278.66,565.8488835893947
1280.81,482.2805879651678
1282.95,439.1187628460168
1285.09,373.1774283159705
1287.23,349.84196740218135
1289.37,356.9262641040741
1291.51,382.05365094630974
1293.65,379.99023748412174
1295.78,378.78776261818143
1297.92,354.2597802427922
1300.05,360.83879727504063
1302.18,378.43341168394727
1304.31,368.190212424372
1306.44,372.73186984710765
1308.57,366.63332134706843
1310.69,370.23129034481417
1312.82,391.48142431568476
1314.94,424.3392423427531
1317.06,398.33155886025133
1319.18,406.0802883493693
1321.3,395.0167262245368
1323.41,405.3815440054168
1325.53,435.8914511555736
1327.64,468.45347596875627
1329.75,469.8792464551716
1331.87,457.3135569420565
1333.98,435.8057918170998
1336.08,396.7384921290095
1338.19,352.2083031404627
1340.3,325.1688266429578
1342.4,269.85918755738203
1344.5,198.18498148695244
1346.6,132.9087460796918
1348.7,101.69757524804027
1350.8,88.9802571979967
1352.9,99.1853648392098
1354.99,80.83648905221298
1357.09,66.64747195565678
1359.18,46.66525922115943
1361.27,38.93656191196942
1363.36,24.88880403591179
1365.45,20.09202714995422
1367.54,11.782703654294664
1369.62,39.911362157926305
1371.7,91.47592919615022
1373.79,111.18840550344362
1375.87,142.37964153730422
1377.95,150.99935109733588
1380.03,143.56850589671285
1382.1,141.84601584793973
1384.18,118.82874268193586
1386.25,97.46579928140522
1388.33,76.99189663325478
1390.4,53.73688125720696
1392.47,13.506701205838226
1394.54,6.250086350333049
1396.6,-37.322390381381865
1398.67,-36.73829799386749
1400.74,-40.334760335890905
1402.8,-21.020349264519155
1404.86,-31.132219899643587
1406.92,7.801987813859796
1408.98,32.77843577339604
1411.04,43.936132926683285
1413.09,60.46169557364078
1415.15,47.208396687009326
1417.2,59.3152152329742
1419.25,79.06398072987577
1421.3,104.68889875931086
1423.35,120.80512409627613
1425.4,149.21828622027147
1427.45,153.06734815973164
1429.49,150.25317962217696
1431.54,144.15284441007952
1433.58,104.28626878910268
1435.62,75.4591003325354
1437.66,69.42937628953041
1439.7,76.1932395723934
1441.74,77.88970236291834
1443.77,98.94350495681397
1445.81,93.96987937004224
1447.84,98.86978913562461
1449.87,109.16326433854942
1451.9,143.22749855543543
1453.93,160.72542198467295
1455.96,169.6057031479986
1457.98,196.3884648777837
1460.01,219.8319526852763
1462.03,258.7420602717
1464.05,347.1628074203047
1466.07,422.7096750312767
1468.09,537.4267496804534
1470.11,657.9772015113738
1472.13,804.4051906987536
1474.14,978.9453929595832
1476.16,1156.2610964927908
1478.17,1271.6346798712832
1480.18,1360.7295185054243
1482.19,1356.256653011271
1484.2,1281.5462194835698
1486.21,1134.642689292568
1488.21,967.4477279284367
1490.22,785.4344824171233
1492.22,646.0285354028695
1494.22,509.60790684978224
1496.22,358.645912886258
1498.22,236.5683103636943
1500.22,151.32472712948902
1502.22,107.00771134765546
1504.21,66.70987605753726
1506.21,50.9524723039483
1508.2,36.113962267318584
1510.19,49.810973346217
1512.18,34.517347477971725
1514.17,37.659380935477884
1516.16,9.187254600194592
1518.14,-4.377345288662127
1520.13,-16.750749242072516
1522.11,-14.982539985008088
1524.09,-8.217455036007323
1526.07,10.304613735262137
1528.05,10.58195233226752
1530.03,2.7081655359077104
1532.01,-2.9849668696083427
1533.98,-17.117966142007845
1535.96,-0.07317797138853166
1537.93,-8.280486650214016
1539.9,0.11601661117924777
1541.87,12.543746314064038
1543.84,54.28733445732723
1545.81,56.679104239929984
1547.78,71.3371628109835
1549.74,63.879684496019536
1551.7,72.30586068992625
1553.67,80.13875451178569
1555.63,126.3300602216218
1557.59,134.11724358952574
1559.55,141.07115845525664
1561.5,147.71509185927175
1563.46,164.3819044118543
1565.41,173.3092659003364
1567.37,193.25870042013048
1569.32,182.4679648390943
1571.27,169.84152249999534
1573.22,136.90292168487713
1575.17,125.69955503181154
1577.11,115.0407522849764
1579.06,90.54539685426425
1581.0,56.45144713679224
1582.95,45.85402926698703
1584.89,26.657815580954093
1586.83,46.291307842746164
1588.77,69.37350142301807
1590.7,64.71388281101008
1592.64,40.97909379319799
1594.58,17.026262298610618
1596.51,7.164904672713192
1598.44,24.895018427487457
