Raman Shift,Processed Intensity
331.095,96.07915451714962
333.909,143.65850272820308
336.721,168.29359855806615
339.531,173.1511182797758
342.339,150.68347166482408
345.145,134.31928778000747
347.949,133.77294840331206
350.751,130.99697858266427
353.55,141.46777052801144
356.348,141.75702178912525
359.144,141.1031734334074
361.937,160.26856250939863
364.729,215.06324117697477
367.518,266.58308155181703
370.306,310.73359483560534
373.091,308.75375044620614
375.874,347.35884276691786
378.656,368.407167419527
381.435,375.47145944212707
384.212,353.0293790859823
386.988,261.55875951714415
389.761,174.68047356568604
392.532,101.01558618923627
395.301,67.23298312698034
398.068,34.239856696522565
400.833,30.610286828844437
403.596,11.870964960418405
406.358,5.12025125864011
409.117,-26.828958628913824
411.874,-21.734938253810014
414.629,-26.45093028416477
417.382,-38.87752061777928
420.133,-69.01025282343426
422.882,-73.60629294420642
425.629,-60.89871746074505
428.374,-15.644142213939631
431.117,52.1629737943008
433.858,99.6712559941775
436.597,101.45810212044034
439.334,106.2439415134022
442.069,101.89220870565941
444.802,78.83788843739376
447.533,61.51606067166358
450.262,57.36187418112513
452.989,71.90575823000017
455.714,96.96387235128168
458.438,143.2571275525138
461.159,126.93496942632783
463.878,60.62297078478741
466.595,35.66090048421802
469.31,25.340792250024606
472.024,43.00215635866152
474.735,68.74624259680877
477.444,61.578877296544306
480.152,46.02949525315444
482.857,73.62731450008141
485.561,101.94894586428745
488.262,135.8564834723793
490.962,113.83084072137581
493.659,108.25746720185816
496.355,122.61682752588786
499.048,152.43678491683022
501.74,200.34022289442646
504.43,231.14028600747451
507.118,232.26895389984566
509.804,251.5389487098396
512.488,294.47707104096753
515.17,340.1337264089211
517.85,395.65435645044136
520.528,408.3746796559976
523.204,417.0111701976998
525.878,444.6134415191218
528.551,467.4690108775044
531.221,547.9604448383352
533.89,600.8034571508938
536.556,580.9516732904544
539.221,589.5013950004904
541.883,580.9773172158302
544.544,538.380149747717
547.203,569.8056675402977
549.86,593.6828085461602
552.515,597.6308192209094
555.168,632.2687809701315
557.819,635.9298985011214
560.469,623.8519786508027
563.116,614.891718737445
565.761,607.0961377695403
568.405,576.1311505118078
571.047,557.2339510750207
573.687,500.8320631724814
576.324,457.924295138419
578.96,394.7474092320872
581.594,332.4427909418728
584.227,279.77073733700763
586.857,248.87236446690576
589.485,218.50770523669416
592.112,228.1509501398823
594.737,244.94283084818335
597.359,276.1668133251378
599.98,292.2491004635508
602.599,298.99672996101754
605.216,338.7404341002184
607.831,350.09654714825683
610.445,359.82415085124603
613.056,407.0155532622234
615.666,429.52486280715993
618.274,463.3013242557299
620.88,533.960749930176
623.484,556.4998080570217
626.086,579.7245968330835
628.686,649.3935042057542
631.284,685.0267343199753
633.881,708.477738727101
636.476,745.2665523556811
639.068,717.0559866250856
641.659,695.5563939877147
644.249,647.38281342358
646.836,574.0549730777493
649.421,482.6639595644647
652.005,390.7293634617354
654.587,281.4849962345015
657.166,211.73603572923457
659.745,151.38283833519517
662.321,115.13522733616719
664.895,90.7982098336197
667.468,36.22436033653594
670.038,23.313823398865225
672.607,35.109554352211035
675.174,46.892563766279636
677.739,70.75335481612592
680.303,72.21098328437984
682.864,20.26069368813023
685.424,-16.721301737039084
687.982,-29.549234529209116
690.538,-35.37061798610921
693.092,-1.904325041505217
695.645,2.0356163572510013
698.195,5.778128768533861
700.744,-24.919190374844675
703.291,-21.29862990115953
705.836,-27.554734967798595
708.38,-25.88191787378537
710.921,-19.33159492837558
713.461,4.902102329225272
715.999,33.14899413106377
718.535,63.64380317892119
721.069,67.28805821759761
723.602,59.650092846292864
726.133,61.298377663313204
728.662,48.70628098221596
731.189,54.01397240509095
733.714,48.55223115774788
736.238,50.842444901096314
738.759,50.92994187585782
741.279,54.66970399966249
743.798,35.82160377366063
746.314,15.098022141525234
748.829,-0.788533651549642
751.342,-6.077812199846903
753.853,-2.057057220984916
756.362,49.36756268403906
758.869,65.14714270907325
761.375,88.75670671152147
763.879,94.4333006524771
766.381,94.50932413209603
768.882,91.65062382973429
771.38,143.42792027741325
773.877,130.65013939519804
776.372,128.6025059313315
778.866,98.99892261665082
781.357,83.45815884282638
783.847,82.93242029297107
786.335,87.08829952463611
788.821,100.11629798138256
791.306,101.20701467101662
793.789,115.07495389144697
796.27,158.57757105177416
798.749,195.81050896957777
801.227,214.53616750152014
803.702,263.94560650729454
806.176,275.61092500404584
808.649,270.62811651126367
811.119,284.6646863004444
813.588,279.38822102569975
816.055,272.70448216389195
818.521,265.995499454767
820.984,272.5481405315595
823.446,241.17315674206247
825.906,224.15756230302804
828.365,179.5503467879107
830.821,143.25771142413168
833.276,132.8049720570125
835.729,157.6698906851293
838.181,167.61600699568135
840.631,185.0735889474654
843.079,155.092011925291
845.525,113.29213789439154
847.97,94.62821836436297
850.412,94.05455925786646
852.854,121.09694768408735
855.293,167.51931680744337
857.731,185.56183928771225
860.167,164.9885445296859
862.601,123.6111264090182
865.034,84.57465575997412
867.465,75.11948333937562
869.894,55.58123802863338
872.321,40.81939646436376
874.747,40.55061457375905
877.171,37.11063053853513
879.594,61.59712013983244
882.014,91.9649330554953
884.433,114.7403767763999
886.851,119.44978623706766
889.266,139.47666487484412
891.68,141.68073045099345
894.092,157.54077039559706
896.503,129.96416381911877
898.912,99.620213047775
901.319,105.03537992081647
903.724,152.16471256400064
906.128,179.43946263925363
908.53,182.71946449909592
910.931,161.62646672201527
913.329,141.8774636478397
915.726,140.09421738929996
918.122,185.0889703197863
920.516,190.53110994205053
922.908,153.09002423310676
925.298,154.14938556055495
927.687,143.71191078937818
930.074,148.92316900778542
932.459,155.11919877686069
934.843,160.92174442783607
937.225,140.0477780736428
939.605,144.45235495379802
941.984,148.1857544935774
944.361,169.4410975536607
946.736,130.98291606073053
949.11,129.4328654952128
951.482,104.98400880759391
953.853,92.82938604901756
956.222,88.59058400189042
958.589,66.79392485809649
960.954,51.72760727816876
963.318,56.870276021883
965.68,63.12911538838125
968.041,90.41127598962385
970.4,103.10006342860697
972.757,48.29303173947983
975.113,2.278172065762874
977.467,-25.227993899530247
979.819,-38.366129997580174
982.17,-15.467420500928938
984.519,-1.6250029402158361
986.866,-6.7892146225538
989.212,-8.053316970474725
991.556,5.822684732846255
993.899,29.316792318935086
996.24,68.14500296278197
998.579,37.07082181895544
1000.92,22.28620322915117
1003.25,21.411539548784276
1005.59,0.3051737831117407
1007.92,26.15862875489188
1010.25,61.44898129156218
1012.58,48.22456977748857
1014.91,25.485942431995
1017.24,32.09061511120808
1019.56,33.37211482417956
1021.88,72.90188296595488
1024.2,100.77499129081502
1026.52,106.89586122865148
1028.84,88.26398320134808
1031.16,68.73582641535245
1033.48,73.35817722567731
1035.79,93.93957273799788
1038.1,109.62173441074333
1040.41,118.35576356195702
1042.72,127.3307178285354
1045.03,121.2593304826064
1047.33,129.23515831934128
1049.64,118.73258668761832
1051.94,97.46397737783127
1054.24,107.57014984302964
1056.54,103.28705289625509
1058.84,103.42196021740256
1061.13,106.7820468124562
1063.43,106.93629880606318
1065.72,122.02504228171938
1068.01,167.99804355053266
1070.3,153.1859427533168
1072.59,164.15740174840516
1074.87,142.05244247564542
1077.16,151.1062615108765
1079.44,173.41113985849893
1081.72,187.82120988689894
1084.0,192.85722226386792
1086.28,231.3255986063175
1088.56,289.8898650823671
1090.84,376.4516098229576
1093.11,454.10286890489715
1095.38,482.5547028100975
1097.65,470.94672526576255
1099.92,415.51377494172675
1102.19,365.3002061954073
1104.46,307.3027512453291
1106.72,274.47052520179454
1108.98,254.51455490707303
1111.24,270.05064110892204
1113.5,291.50412539601325
1115.76,340.014657133358
1118.02,381.2933413501082
1120.28,402.81321996069414
1122.53,369.5235625097739
1124.78,359.08796644098607
1127.03,325.83674307999127
1129.28,274.62406552228117
1131.53,232.58987842574243
1133.77,179.3027601841843
1136.02,139.95040414847858
1138.26,161.33962365722414
1140.5,201.99159516265286
1142.74,191.09424421367612
1144.98,191.5974885817891
1147.22,206.59419567268833
1149.45,238.27256850932008
1151.69,263.582817429216
1153.92,280.80859368659026
1156.15,250.99556591158876
1158.38,205.57047276000662
1160.61,198.96017556301263
1162.83,175.11547288162728
1165.06,146.7968198231058
1167.28,148.81242830970677
1169.5,135.256367347454
1171.72,113.3657109139574
1173.94,100.04435251288851
1176.16,93.7677721094185
1178.37,63.20208877993559
1180.58,53.39454193319057
1182.8,57.392543960011835
1185.01,24.0055900258742
1187.22,-22.1947368984454
1189.42,-36.874761006208246
1191.63,-46.843470528821626
1193.84,-32.2906103031562
1196.04,14.641888330371557
1198.24,14.478948675132415
1200.44,-6.349566032395842
1202.64,6.062567479958034
1204.84,10.383639800583524
1207.03,1.8535249783230938
1209.23,7.045578238955613
1211.42,1.104725233534964
1213.61,-18.966829474987208
1215.8,3.5475353661706777
1217.99,8.60266225805708
1220.18,14.439227023637159
1222.36,57.10754172229872
1224.55,87.84850130033033
1226.73,86.95072218206701
1228.91,97.08387133724045
1231.09,59.67961439594433
1233.27,38.50303995408399
1235.44,55.5574172121494
1237.62,56.27466789970936
1239.79,60.22964772371188
1241.96,116.28299924535668
1244.13,121.20019523315727
1246.3,167.651534396957
1248.47,228.83118474099865
1250.64,235.1238459646106
1252.8,252.48569757718064
1254.96,328.444394632181
1257.13,394.6228729849977
1259.29,465.7393450269501
1261.44,556.3215811335933
1263.6,600.8497625415973
1265.76,604.0421913684786
1267.91,618.4267149180434
1270.06,615.6264357001235
1272.22,570.0263738312597
1274.37,519.1067961020522
1276.51,471.91940218737204
1278.66,366.70636799942145
1280.81,312.61462713604146
1282.95,251.7911047099676
1285.09,227.2874749876064
1287.23,210.39349045638346
1289.37,218.7798347016144
1291.51,198.11716575957576
1293.65,244.17134994675416
1295.78,250.18440997482276
1297.92,290.73166354180694
1300.05,316.150290494674
1302.18,315.87266189668935
1304.31,295.18824052333616
1306.44,307.33881469157745
1308.57,289.6137320891089
1310.69,274.25465741314633
1312.82,276.31271096159094
1314.94,292.98179770038496
1317.06,310.07479347372964
1319.18,327.3092550238209
1321.3,338.87884429630753
1323.41,323.02475274573453
1325.53,328.2261732600448
1327.64,340.81934351365067
1329.75,356.8546845586045
1331.87,369.19203465386
1333.98,366.1196926183477
1336.08,347.3544135650077
1338.19,307.23188082529146
1340.3,252.18289215938103
1342.4,207.11430787116865
1344.5,183.83761797085253
1346.6,153.49750933753717
1348.7,123.2861471675451
1350.8,118.53840880368921
1352.9,93.92235565978035
1354.99,87.53446704989551
1357.09,84.13773116051084
1359.18,62.54259316548564
1361.27,33.79742715057455
1363.36,58.140912799837906
1365.45,54.62107874872572
1367.54,65.47625419056499
1369.62,83.03983000686253
1371.7,85.21645394407801
1373.79,100.52965436183331
1375.87,131.02660683825206
1377.95,167.84956744197893
1380.03,172.18825838513976
1382.1,198.80368224773724
1384.18,197.36146001155817
1386.25,163.7651690940927
1388.33,122.77539566815312
1390.4,116.34307269579108
1392.47,81.56186558125614
1394.54,87.28722449061547
1396.6,58.945912861852776
1398.67,4.53601210544457
1400.74,-32.99212131410809
1402.8,-30.783470225320343
1404.86,4.826410331133275
1406.92,49.26377559879438
1408.98,42.90716546619569
1411.04,30.89692695011604
1413.09,17.468546202644802
1415.15,6.42883766110549
1417.2,39.44166010520894
1419.25,44.07553925678417
1421.3,29.089386281777934
1423.35,37.43250200653529
1425.4,40.57791446742249
1427.45,42.42714503187176
1429.49,60.357831662287936
1431.54,56.17611408471521
1433.58,61.16425705273832
1435.62,89.50922599234309
1437.66,102.7788816943862
1439.7,101.11246072135782
1441.74,81.93486533794635
1443.77,64.76619153684578
1445.81,66.3169713502748
1447.84,74.67865325673915
1449.87,82.1807492544608
1451.9,74.91464860147494
1453.93,68.40028869858861
1455.96,82.4909212104319
1457.98,105.13502104365853
1460.01,138.4239096108588
1462.03,197.02033047542795
1464.05,257.6822630916722
1466.07,312.8343555925287
1468.09,371.7107861487202
1470.11,455.73621956600164
1472.13,559.4781924538343
1474.14,681.8375936321563
1476.16,787.5248588238649
1478.17,864.393308204438
1480.18,897.391531570609
1482.19,899.0872020804577
1484.2,847.7623185649416
1486.21,741.4608287918009
1488.21,602.3695860628047
1490.22,498.4374010490908
1492.22,386.9464745788846
1494.22,289.1790685204578
1496.22,216.32227190318463
1498.22,157.42038608622101
1500.22,96.89873849860396
1502.22,69.99225828411772
1504.21,19.50738527948829
1506.21,-9.606497197896488
1508.2,-10.209439086072962
1510.19,-15.209014600303135
1512.18,-2.7984142379441437
1514.17,7.019747885262632
1516.16,-4.376089155244699
1518.14,7.964043432869175
1520.13,0.7045023396922261
1522.11,-37.061681539573556
1524.09,-9.479468381675815
1526.07,7.544382501649807
1528.05,15.388929232353803
1530.03,35.2428534397518
1532.01,28.437790899328775
1533.98,32.44832883820504
1535.96,37.03486038345932
1537.93,56.76739139139863
1539.9,70.31125203873489
1541.87,59.66518936614375
1543.84,56.87565029800999
1545.81,98.94154085265313
1547.78,82.00469963826708
1549.74,110.82608563457393
1551.7,133.40482311733558
1553.67,124.31153229714914
1555.63,134.8311837677661
1557.59,173.01071485917214
1559.55,167.32569360971343
1561.5,147.2041255953709
1563.46,131.7883559971292
1565.41,125.55411452548901
1567.37,148.8343222497399
1569.32,154.77146985580748
1571.27,180.60332923743294
1573.22,163.56771270639774
1575.17,152.6167560122733
1577.11,161.70262993359665
1579.06,160.44420425000794
1581.0,124.79371171438015
1582.95,118.03674535828554
1584.89,98.22082722603272
1586.83,76.63159615631866
1588.77,80.45947175435867
1590.7,73.3234612211561
1592.64,96.65210903991851
1594.58,116.15968475771069
1596.51,101.70332314806751
1598.44,26.94968818311827
