Raman Shift,Processed Intensity
331.095,54.20844587351348
333.909,152.42666551235288
336.721,140.9428014316436
339.531,80.0901923836409
342.339,81.65456891080066
345.145,68.54072543136954
347.949,94.27252565826166
350.751,166.08814611318576
353.55,244.51151011697766
356.348,297.54276939897045
359.144,351.8011666587545
361.937,329.62027908031223
364.729,316.66707136996547
367.518,327.0847583181362
370.306,357.9213816468291
373.091,412.272672571401
375.874,458.7582476956659
378.656,511.759709668916
381.435,497.9444621286393
384.212,399.6942865480187
386.988,265.9148714643702
389.761,123.8929607551986
392.532,48.724930485694586
395.301,53.9358419466912
398.068,59.0032565974102
400.833,42.071527198664626
403.596,19.76132704130987
406.358,-7.973201777682334
409.117,-45.55872438341021
411.874,-53.46936796244654
414.629,-48.798139439977604
417.382,-11.11406331455828
420.133,54.96638763982355
422.882,134.73166458825835
425.629,210.75608485237308
428.374,300.18554234278054
431.117,368.97559894390497
433.858,471.8438616130884
436.597,555.9366451939909
439.334,573.4956352299782
442.069,556.6197888727584
444.802,558.170092933864
447.533,538.6743219361297
450.262,541.4698914032624
452.989,570.1800444827395
455.714,595.8567052353806
458.438,569.8376176391989
461.159,569.0320560218347
463.878,535.5874878739273
466.595,493.17528428155083
469.31,488.3240494062584
472.024,535.9434261556116
474.735,534.5621875679844
477.444,528.7091853402367
480.152,527.6276316887165
482.857,519.1798574007316
485.561,524.228260362202
488.262,586.9210159900767
490.962,614.9777876647427
493.659,654.2611514481555
496.355,679.7765922305312
499.048,692.9582141627452
501.74,696.954451088744
504.43,780.8661579303352
507.118,888.8894639767341
509.804,1035.791959507445
512.488,1140.4365014627642
515.17,1231.9240667333179
517.85,1300.6413673543639
520.528,1388.9751323667651
523.204,1471.502580154157
525.878,1561.8009383991584
528.551,1606.0188688014887
531.221,1661.257415605604
533.89,1671.6652398426218
536.556,1657.2957583341386
539.221,1615.8214255532066
541.883,1618.2956345328998
544.544,1598.5812844415827
547.203,1596.684110062915
549.86,1568.228868418722
552.515,1561.0783825347148
555.168,1586.6668709205087
557.819,1624.5713722877267
560.469,1703.7974559823874
563.116,1796.4458847982492
565.761,1860.9507063615633
568.405,1937.841154039661
571.047,1992.551166897134
573.687,2010.2289096520385
576.324,2105.974864060667
578.96,2166.93706315946
581.594,2210.358706459295
584.227,2209.482917996929
586.857,2138.2194091483398
589.485,2040.811141442065
592.112,1969.9771798487427
594.737,1850.5317365468131
597.359,1805.6222623072863
599.98,1727.824680735649
602.599,1647.095765370911
605.216,1565.7731358322749
607.831,1540.860968251523
610.445,1516.9347533244413
613.056,1606.3317686479586
615.666,1687.4844082001487
618.274,1839.4916070583186
620.88,2052.404551831384
623.484,2292.845724425571
626.086,2518.627945810123
628.686,2712.563895973477
631.284,2816.7994434032603
633.881,2910.7184031377005
636.476,2902.3711043408443
639.068,2788.569624544433
641.659,2593.0306429374104
644.249,2263.3754365125787
646.836,1878.3203524037208
649.421,1541.2958516513067
652.005,1208.1131720158255
654.587,950.154800314901
657.166,794.231611427108
659.745,633.249531105293
662.321,495.2095321232432
664.895,408.16001137472404
667.468,321.1015479249013
670.038,250.55832772842086
672.607,217.67337787130373
675.174,206.01808652712452
677.739,206.68743719891017
680.303,188.1095286753166
682.864,154.4265235582361
685.424,114.58988250468929
687.982,37.931788944899836
690.538,23.260383324184204
693.092,19.62166401150398
695.645,14.680440068465487
698.195,19.148905710841518
700.744,25.262836037676607
703.291,3.8768320368976674
705.836,14.130996280168347
708.38,40.49856372757404
710.921,88.59543772650613
713.461,162.51353706168038
715.999,200.77319473375155
718.535,207.51365197602672
721.069,184.683552271179
723.602,137.66000679653916
726.133,99.62956463128103
728.662,121.39775439217556
731.189,110.19862586935369
733.714,105.59952975729357
736.238,80.35827833820213
738.759,35.56602045110412
741.279,-3.400359729543652
743.798,4.026537037143953
746.314,15.98559526566578
748.829,10.472916515405359
751.342,-7.086734552375674
753.853,-28.078007927076214
756.362,-53.837807906048965
758.869,-37.5600375138074
761.375,-24.771774383301363
763.879,-26.19040483416211
766.381,-27.818857104463405
768.882,-3.850360902133616
771.38,4.093457055340878
773.877,34.81971277324419
776.372,64.51664280720115
778.866,78.0869344716989
781.357,58.48105604861303
783.847,61.07820604334711
786.335,44.876786250504665
788.821,79.25630339098825
791.306,192.8821278919554
793.789,309.3245383810581
796.27,416.53490903782813
798.749,531.4647540879164
801.227,613.9704865830477
803.702,728.1467486095503
806.176,807.231170068314
808.649,847.7948417404614
811.119,814.1708835911054
813.588,744.3115845016905
816.055,642.9312562880373
818.521,592.0300400993428
820.984,555.3700937695658
823.446,526.7136839307072
825.906,484.2041352689571
828.365,418.5086845427413
830.821,349.6280012674374
833.276,282.61047030485406
835.729,262.40933159556926
838.181,250.02553417699255
840.631,258.26963782047096
843.079,258.33323847791826
845.525,252.88420325225434
847.97,217.59047679642163
850.412,181.64388771239692
852.854,161.47443114067892
855.293,147.75026563548545
857.731,123.13961480185435
860.167,121.5488594089411
862.601,111.07491521759266
865.034,95.05284890316307
867.465,85.81777969260884
869.894,91.46678100158033
872.321,97.43030588104102
874.747,125.90075532102901
877.171,121.64199893537352
879.594,106.60841945593756
882.014,78.13538579828355
884.433,83.55829755590867
886.851,104.59353425638392
889.266,143.38607128416425
891.68,157.69995294625141
894.092,168.91828934738487
896.503,190.04325326522576
898.912,198.31512464459593
901.319,196.8789541393303
903.724,179.1178933207948
906.128,161.5579534578319
908.53,172.58228810622404
910.931,201.47880903149326
913.329,221.8687545126495
915.726,232.2304957411793
918.122,194.94715274384316
920.516,160.6399245911898
922.908,144.26332436796974
925.298,141.53374747688713
927.687,137.83423041854257
930.074,189.83349528565486
932.459,216.2002323525321
934.843,215.69833504548433
937.225,217.80594443704467
939.605,231.0011604068527
941.984,181.8572766120651
944.361,199.0427773625297
946.736,193.84514401977003
949.11,173.3137090150194
951.482,160.40250986725096
953.853,149.68457177264008
956.222,108.49476162259634
958.589,102.97740392655851
960.954,88.22913483002822
963.318,102.2512799421279
965.68,113.61651787744768
968.041,125.51649617884505
970.4,103.71420914500959
972.757,89.49637565802641
975.113,33.72105510617757
977.467,10.531929973403749
979.819,-0.21312585694204245
982.17,15.486521201649794
984.519,18.012357646560304
986.866,40.888625594964196
989.212,48.40136993883971
991.556,57.64605876460837
993.899,72.19425139182431
996.24,78.18883784043555
998.579,65.10594496471731
1000.92,48.754937825295656
1003.25,36.61175439450608
1005.59,13.009383118900132
1007.92,44.13786429128322
1010.25,53.33000570846025
1012.58,64.29948060107745
1014.91,57.093211277740465
1017.24,44.56756229294797
1019.56,25.34072409121154
1021.88,33.41176331784254
1024.2,38.06538741544637
1026.52,70.25289969660435
1028.84,70.35410679751294
1031.16,88.03446422685738
1033.48,103.10222191468756
1035.79,92.65128404700681
1038.1,104.3469260432189
1040.41,113.56865439071771
1042.72,102.07687600328518
1045.03,112.67956757949423
1047.33,154.75608781825213
1049.64,165.5905134438658
1051.94,187.65735618349527
1054.24,164.90727974459742
1056.54,155.05281679237714
1058.84,133.99694307009304
1061.13,156.16641342411685
1063.43,156.60700259090027
1065.72,175.79303169823152
1068.01,144.81784714744208
1070.3,131.0604899718055
1072.59,103.42379376636518
1074.87,111.47724452252078
1077.16,110.64745951023724
1079.44,152.8372375888157
1081.72,203.33032380338318
1084.0,248.88665017185122
1086.28,306.6947193290298
1088.56,364.94303578977724
1090.84,398.2962991169211
1093.11,436.70493042250246
1095.38,479.35745601188455
1097.65,452.53765293262313
1099.92,406.5769326185755
1102.19,341.9972007244837
1104.46,297.65371696055763
1106.72,298.63985968894804
1108.98,340.7157000440552
1111.24,349.83181414805676
1113.5,400.7959524693074
1115.76,439.2254234664365
1118.02,472.30900104198645
1120.28,531.9021653293694
1122.53,574.8128196703005
1124.78,540.4203409255615
1127.03,520.6279631191023
1129.28,442.2913515583309
1131.53,361.59955790678987
1133.77,334.9321657330206
1136.02,335.5735789165633
1138.26,344.8082624349163
1140.5,395.1112212457251
1142.74,433.76705059755204
1144.98,521.5842244358805
1147.22,589.1331933329307
1149.45,597.8892443222353
1151.69,558.5182178760747
1153.92,477.0193677400548
1156.15,367.67774457720134
1158.38,322.68324627873017
1160.61,273.03538256052707
1162.83,239.30518241677373
1165.06,216.96853014500903
1167.28,191.88235851404124
1169.5,135.23703240805617
1171.72,113.60397056595957
1173.94,91.50707684452755
1176.16,60.61321910060815
1178.37,62.35127950188871
1180.58,74.53120483767088
1182.8,59.29639016297551
1185.01,42.64749101407733
1187.22,31.87099752880249
1189.42,-6.698858099839981
1191.63,-9.34676559860145
1193.84,-12.690619636556221
1196.04,-17.300565473451115
1198.24,-20.12756943236309
1200.44,9.068009235803402
1202.64,48.95451123284283
1204.84,63.390877361392995
1207.03,84.3790258257145
1209.23,89.96861048484698
1211.42,94.01892196291055
1213.61,126.29412209274415
1215.8,165.082287883356
1217.99,177.14778882071096
1220.18,194.58842607327597
1222.36,203.83542884042072
1224.55,194.17726022463148
1226.73,196.283423103725
1228.91,199.0615993364072
1231.09,178.9909794440082
1233.27,164.64606848270114
1235.44,177.50620620142854
1237.62,206.66984910459814
1239.79,271.2831382290651
1241.96,348.11132406396473
1244.13,426.1101914705514
1246.3,565.0451036496593
1248.47,714.4433794424908
1250.64,901.6895277742665
1252.8,1093.5966725740582
1254.96,1312.5970253136738
1257.13,1538.694262308441
1259.29,1824.4635210656102
1261.44,2059.289491870861
1263.6,2188.271176041472
1265.76,2231.98378703662
1267.91,2175.6692229962664
1270.06,1982.0455868990894
1272.22,1819.0690876727954
1274.37,1603.1245127330085
1276.51,1386.4537957602506
1278.66,1231.82267971502
1280.81,1102.9016655671462
1282.95,952.4564848346845
1285.09,830.6814292656509
1287.23,723.8183948054893
1289.37,666.9664017549967
1291.51,650.9387339758796
1293.65,703.4057923820133
1295.78,744.5141389068958
1297.92,789.9341118996686
1300.05,853.1455367592312
1302.18,953.294865139786
1304.31,1064.9570760611368
1306.44,1154.9451960666102
1308.57,1207.0722003333567
1310.69,1256.8652947350338
1312.82,1290.4230550473485
1314.94,1369.6535185345524
1317.06,1470.702751726415
1319.18,1523.621513433296
1321.3,1503.9366796659701
1323.41,1455.3179066507014
1325.53,1405.577627177639
1327.64,1335.6234279015998
1329.75,1249.2675694999934
1331.87,1115.3222211164539
1333.98,946.1708852806755
1336.08,814.2922037806234
1338.19,700.4028111537946
1340.3,606.4573310356118
1342.4,526.3150391744912
1344.5,410.1208121611867
1346.6,347.4955999676663
1348.7,288.34594610503336
1350.8,215.05446016239603
1352.9,197.95600463145502
1354.99,177.3853103025176
1357.09,133.29602023194775
1359.18,139.87973370961254
1361.27,123.89933594061404
1363.36,130.49851820321555
1365.45,126.77320276866703
1367.54,111.24772972579558
1369.62,95.44628190082267
1371.7,82.65478596767116
1373.79,101.01614689159715
1375.87,140.0540538014011
1377.95,145.10154776639592
1380.03,144.25339909718286
1382.1,110.74705607499664
1384.18,61.43883177628504
1386.25,38.85151946871292
1388.33,34.74581753097482
1390.4,38.31080199166263
1392.47,18.7353553614862
1394.54,18.636741836833153
1396.6,7.346329192916528
1398.67,-12.13802071471082
1400.74,-30.29479761926177
1402.8,-21.745497262508252
1404.86,-25.58794380461586
1406.92,23.79419387689859
1408.98,67.96950253603791
1411.04,106.69692207131084
1413.09,157.06860732438872
1415.15,211.84326606923423
1417.2,269.8271160488498
1419.25,355.4929372501242
1421.3,426.6943622739109
1423.35,451.33254765750144
1425.4,452.45141662565766
1427.45,408.33290184165025
1429.49,385.06837863448163
1431.54,368.4158125118247
1433.58,325.32357333962227
1435.62,273.78758285502954
1437.66,237.66084313172132
1439.7,208.79629837854827
1441.74,204.71350626198273
1443.77,207.55102351429196
1445.81,171.01879154170092
1447.84,169.5886172706562
1449.87,175.49417780361432
1451.9,183.44531078911336
1453.93,221.0089714585106
1455.96,285.94257061510166
1457.98,337.2892173851467
1460.01,439.85391434985377
1462.03,578.2511812487751
1464.05,714.2383929689288
1466.07,933.2872127720029
1468.09,1184.393120759669
1470.11,1533.980180434126
1472.13,1914.281995734835
1474.14,2342.627429980026
1476.16,2676.6310867129555
1478.17,2932.5266476910274
1480.18,2996.8811632558654
1482.19,2925.499818893868
1484.2,2665.759273225317
1486.21,2339.8457578982666
1488.21,1928.5169870062377
1490.22,1518.2926379344838
1492.22,1143.2638798252974
1494.22,845.3790925195206
1496.22,611.6343474028045
1498.22,450.3115072994947
1500.22,345.8829930331799
1502.22,255.53559760629219
1504.21,157.88477657018575
1506.21,119.0222717285435
1508.2,72.13516341222066
1510.19,26.934446563607708
1512.18,16.464559201948987
1514.17,-7.4204224446816625
1516.16,-31.580588807398726
1518.14,-21.875906606429453
1520.13,-5.499548286730715
1522.11,-2.835034366750051
1524.09,-5.599092377739453
1526.07,-4.7464211262495155
1528.05,19.72078285052544
1530.03,33.6575839710315
1532.01,41.2524943819692
1533.98,15.36080358805043
1535.96,5.88552712938008
1537.93,24.34883144931041
1539.9,45.17774447658667
1541.87,59.94224775154203
1543.84,54.02193998086773
1545.81,38.129843449522696
1547.78,43.26478186122222
1549.74,113.4732819884448
1551.7,168.80195151291218
1553.67,219.86890448512645
1555.63,248.24471059342568
1557.59,286.30953490923844
1559.55,316.6817062037587
1561.5,378.93199955034333
1563.46,398.393157022138
1565.41,401.44559886590037
1567.37,369.6126584853487
1569.32,328.3701031387941
1571.27,299.66994035105336
1573.22,262.70231956346356
1575.17,217.60981473627112
1577.11,194.4874212367381
1579.06,170.66826701296395
1581.0,182.6759904343744
1582.95,209.74854670363857
1584.89,212.64772855430147
1586.83,191.18297266270315
1588.77,148.3542136789422
1590.7,106.82807159117715
1592.64,113.22356289944673
1594.58,119.32638321806053
1596.51,100.0174755922676
1598.44,31.13017024349915
