Raman Shift,Processed Intensity
331.095,151.1619501014511
333.909,180.37451134452886
336.721,168.44995538052444
339.531,142.5549639709957
342.339,152.54672525775186
345.145,182.02056790535426
347.949,212.6909285769375
350.751,203.22470036241475
353.55,224.09839073049534
356.348,203.40766043308986
359.144,230.9149576478012
361.937,250.19239021566273
364.729,273.85983597411496
367.518,243.72781499474195
370.306,232.8927427734052
373.091,267.6893262775002
375.874,326.45248380275507
378.656,395.66021721097604
381.435,409.5526746439905
384.212,335.5607370471098
386.988,226.7346046925868
389.761,115.79143132212857
392.532,30.258196384646
395.301,-16.337803678382897
398.068,-27.27846414753276
400.833,-29.607237882923982
403.596,-29.033883781503846
406.358,-37.60112279677924
409.117,-60.82748750159908
411.874,-93.37398420013324
414.629,-60.42504473425015
417.382,-30.02186588575205
420.133,-38.205283215938834
422.882,-14.44436587779137
425.629,-13.922157524471459
428.374,41.94048335714206
431.117,101.38961298709773
433.858,177.14769222988525
436.597,215.03260465303765
439.334,246.91000791907663
442.069,222.93139946316205
444.802,267.9626583612185
447.533,272.15544434091726
450.262,303.42335869741737
452.989,329.5371528281512
455.714,333.26755581524367
458.438,275.48048296029447
461.159,265.2322443191774
463.878,215.7218960939813
466.595,190.4340682154252
469.31,170.09131573480136
472.024,164.70170831116047
474.735,156.70165779372837
477.444,194.14636485195706
480.152,208.2336155323078
482.857,212.16092716968205
485.561,225.74459906074526
488.262,230.51495361345405
490.962,227.66872035372216
493.659,267.783324693994
496.355,276.1978433684835
499.048,284.7272932017463
501.74,298.85311035344375
504.43,341.1517248011969
507.118,408.29456339487524
509.804,487.0956719584992
512.488,546.0831469159625
515.17,610.2610431072135
517.85,638.776043509205
520.528,704.0127003854195
523.204,797.7362954830119
525.878,824.0452240394675
528.551,853.9424264083241
531.221,879.9068196848766
533.89,856.5123483795201
536.556,848.1898922339419
539.221,828.1320311801746
541.883,768.9120960139358
544.544,750.198457163207
547.203,748.1354801234779
549.86,759.6292427977587
552.515,786.6332528365979
555.168,802.1484506923734
557.819,835.175593625971
560.469,877.0485920944029
563.116,917.148798519393
565.761,963.3335817702359
568.405,987.6029968847533
571.047,1032.8616928854894
573.687,1085.2522491673308
576.324,1108.2504166470358
578.96,1104.6651208175285
581.594,1105.3527505164616
584.227,1082.836208599559
586.857,1077.0668197567948
589.485,1042.043381185726
592.112,954.7645465981491
594.737,864.5145435600994
597.359,835.5298432127897
599.98,784.7610680887965
602.599,784.2539475472886
605.216,816.1969398759252
607.831,830.7307591546487
610.445,846.1388545004397
613.056,845.4188416930192
615.666,852.1396490862599
618.274,903.2986635196144
620.88,1048.9884000390598
623.484,1206.110790665658
626.086,1333.2343303069797
628.686,1407.213127430416
631.284,1479.9964309269817
633.881,1489.9143474513044
636.476,1507.963558761613
639.068,1495.3311342978277
641.659,1394.4421532834394
644.249,1193.00732682742
646.836,977.8325247880034
649.421,769.0568740650583
652.005,598.343237844827
654.587,489.592504368492
657.166,396.0864471293089
659.745,290.20201364116247
662.321,200.3160903976036
664.895,151.85312497374025
667.468,91.61846241384183
670.038,60.08406257133129
672.607,44.67421744876401
675.174,55.86079234733006
677.739,35.82990169280674
680.303,25.0533513540463
682.864,10.098181836690856
685.424,-21.611403897788023
687.982,-44.936871934188275
690.538,-31.787235472335396
693.092,-28.023792355764726
695.645,-22.41248656130574
698.195,-20.909606432293913
700.744,-28.995104939380326
703.291,-31.910684204018253
705.836,-27.278834589077633
708.38,-20.245686357273826
710.921,5.518992467370026
713.461,38.774176356102544
715.999,68.32662711917828
718.535,86.03089113053738
721.069,85.97977274296181
723.602,75.98052198894857
726.133,83.60245085300403
728.662,74.03407335346583
731.189,68.60691229098211
733.714,64.60502028271412
736.238,60.40783412985866
738.759,45.252076804224544
741.279,20.850802291950913
743.798,-8.987559562777733
746.314,-11.9782534521064
748.829,-5.693534713172085
751.342,35.29447075371081
753.853,43.5090018049641
756.362,9.663897373653526
758.869,7.092165122734059
761.375,-11.444497520758432
763.879,-5.041420426752666
766.381,8.206179319666717
768.882,3.727004166736606
771.38,-25.47870763169294
773.877,-12.50585145815512
776.372,6.598398035958326
778.866,53.310774631260756
781.357,73.48906062218157
783.847,91.13398880354862
786.335,78.38923969526058
788.821,82.30334352887303
791.306,121.63920128179097
793.789,189.58836761623297
796.27,265.0567623896268
798.749,348.9027631173799
801.227,397.1276783880353
803.702,439.49479270699385
806.176,474.52936372118756
808.649,481.8995718247097
811.119,462.70223166920323
813.588,435.4151703409116
816.055,399.75436744249464
818.521,355.53109517483836
820.984,327.74715365696557
823.446,281.73772529356484
825.906,227.07613390442248
828.365,171.24050861574415
830.821,149.08997156100486
833.276,125.43606367703615
835.729,149.70940859535722
838.181,141.91209081921443
840.631,125.28431961490924
843.079,110.25680718883768
845.525,91.97457543596192
847.97,99.01123887875838
850.412,109.84519236807
852.854,112.19294164110579
855.293,74.6281481651531
857.731,50.391150171763
860.167,22.24610273855842
862.601,27.290498823425878
865.034,23.62183315585662
867.465,23.909028033042887
869.894,6.821001973115926
872.321,8.169524082667976
874.747,-5.519360147153748
877.171,-7.1481880754936356
879.594,6.047156910133708
882.014,29.830776891731603
884.433,40.58580447393524
886.851,47.552496066547064
889.266,47.35203945279227
891.68,84.46274230994777
894.092,128.2200302537849
896.503,161.10215916872585
898.912,158.5397370618125
901.319,123.86810305953259
903.724,111.04161116654313
906.128,116.53839021487556
908.53,119.36034190837609
910.931,115.55694839095486
913.329,137.60622267197823
915.726,136.08137333737204
918.122,154.79365973691893
920.516,142.2209614572721
922.908,131.8887287473467
925.298,115.36998056276252
927.687,135.4281597531458
930.074,153.54094063037383
932.459,169.04308415587184
934.843,148.22167408029736
937.225,140.9351626070311
939.605,127.3752731985328
941.984,148.5908081445923
944.361,169.05907517821424
946.736,170.92398075815572
949.11,140.23412335147373
951.482,132.79993433512095
953.853,130.52700937372379
956.222,126.13039217831943
958.589,106.08695350318635
960.954,85.01634157124977
963.318,65.10955154710564
965.68,68.27178072433026
968.041,85.07480752231527
970.4,81.47127524500115
972.757,68.41373774437284
975.113,79.85465746491195
977.467,63.74640348804428
979.819,39.70791624325307
982.17,39.69137221919118
984.519,14.886943912895731
986.866,2.1989883504172667
989.212,12.484140369361285
991.556,2.0751217101062593
993.899,25.30455033492217
996.24,40.88589388340483
998.579,36.5325185808706
1000.92,48.29102641602003
1003.25,45.06506850907431
1005.59,38.758206098963456
1007.92,57.03581914955885
1010.25,62.56320543209699
1012.58,58.100822464741896
1014.91,52.26619611881665
1017.24,15.105353034555947
1019.56,-18.621461248854757
1021.88,-5.725492734665522
1024.2,42.791478787595
1026.52,89.49904792493817
1028.84,115.53818650960307
1031.16,134.14505595155538
1033.48,135.46053387669895
1035.79,129.48259790794623
1038.1,130.2568046843769
1040.41,161.30486411850302
1042.72,153.14845174876223
1045.03,156.64254490155008
1047.33,172.3563779008564
1049.64,170.763921087442
1051.94,177.52959793324544
1054.24,200.0797164415094
1056.54,186.41199578499345
1058.84,142.47652151562647
1061.13,148.55670077415016
1063.43,133.26926511881265
1065.72,139.32617811597333
1068.01,143.62987626403537
1070.3,161.8923194411907
1072.59,144.0635651626908
1074.87,175.90319998097243
1077.16,198.2660566000743
1079.44,230.57840718052967
1081.72,262.1712995014011
1084.0,271.1377026461271
1086.28,296.4277479264665
1088.56,349.32492218739117
1090.84,430.87464206436584
1093.11,508.88425681204785
1095.38,539.542098752039
1097.65,490.79843848255973
1099.92,418.0321543738328
1102.19,352.57454492061356
1104.46,337.6140934756761
1106.72,333.1012329832936
1108.98,309.17692023653035
1111.24,298.93454346787166
1113.5,295.18182993984533
1115.76,364.0598963927923
1118.02,459.61468044501135
1120.28,514.5112291357593
1122.53,537.7003684206381
1124.78,499.9901345717417
1127.03,452.1410151016112
1129.28,426.1992849252856
1131.53,383.78272347473353
1133.77,327.36633181328625
1136.02,294.4728116548283
1138.26,261.24399676394296
1140.5,257.72657007034695
1142.74,303.34825697380484
1144.98,366.39401864903675
1147.22,416.9108167792026
1149.45,448.8504735274719
1151.69,457.59348388955755
1153.92,389.2823518557566
1156.15,325.58349800156884
1158.38,280.258690887837
1160.61,225.87933560373926
1162.83,180.8264765955057
1165.06,157.71937192369933
1167.28,122.17740085383684
1169.5,101.72482858986655
1171.72,110.07652338859862
1173.94,104.89986415032672
1176.16,98.00521943803551
1178.37,74.48880744897679
1180.58,53.11365122435245
1182.8,23.404819573276654
1185.01,-3.5886653365855636
1187.22,-12.05572991218719
1189.42,-16.423246306365172
1191.63,-13.641744241651168
1193.84,-1.137790746174005
1196.04,-0.29018112068615665
1198.24,-8.477559893378611
1200.44,-18.459375224805854
1202.64,-11.852071437855102
1204.84,16.918527096078606
1207.03,16.712449178465477
1209.23,4.056523051487602
1211.42,-11.617532757951494
1213.61,-36.163588321161114
1215.8,18.755085895465527
1217.99,75.04676791478619
1220.18,106.28651493095822
1222.36,127.09711019713541
1224.55,106.33953372269184
1226.73,73.11295677996463
1228.91,72.80235545861865
1231.09,82.1737432676241
1233.27,87.61226088009516
1235.44,75.26502778288909
1237.62,68.80304154526198
1239.79,81.46879137323504
1241.96,130.83815737824716
1244.13,208.67754794104758
1246.3,274.13437040891813
1248.47,336.7370256024226
1250.64,450.91871184596266
1252.8,566.3983718554798
1254.96,704.5616396261585
1257.13,827.127501605838
1259.29,965.7673388208182
1261.44,1078.6763499540361
1263.6,1176.8592601375317
1265.76,1198.939839268719
1267.91,1151.1608965171226
1270.06,1069.574751021602
1272.22,986.99560734947
1274.37,869.2852642889598
1276.51,737.210252213109
1278.66,639.6799228246066
1280.81,551.4131103292061
1282.95,483.84288784723253
1285.09,426.06894287270734
1287.23,378.00042892295596
1289.37,325.4988171882028
1291.51,323.6159862764216
1293.65,342.3561214819729
1295.78,354.6757092923549
1297.92,403.43591284732383
1300.05,436.212090255151
1302.18,496.1985510041336
1304.31,527.3037885645713
1306.44,533.8647606097934
1308.57,529.646883522897
1310.69,582.8916459511033
1312.82,618.6499366458283
1314.94,702.2106103979927
1317.06,749.7195301638098
1319.18,757.7033710953428
1321.3,759.6410436186743
1323.41,740.4874974644563
1325.53,711.2451447460835
1327.64,687.8209973235762
1329.75,650.2647565484194
1331.87,588.4354744369689
1333.98,565.430119605765
1336.08,476.9169051116078
1338.19,403.135282958302
1340.3,322.5149862224521
1342.4,259.3426902268643
1344.5,207.47629276157704
1346.6,195.91633716203478
1348.7,148.90124491106462
1350.8,111.09778633609994
1352.9,69.64869416353667
1354.99,59.07741993023501
1357.09,53.097652299785295
1359.18,40.37521633114602
1361.27,43.05187750919504
1363.36,44.03105053718036
1365.45,22.596845533026226
1367.54,31.93788045229553
1369.62,54.623478872845226
1371.7,75.93701294824382
1373.79,133.30448768684937
1375.87,150.43741094517918
1377.95,125.71375865936739
1380.03,114.60655912424613
1382.1,111.87438203432612
1384.18,82.8946846676397
1386.25,67.14001521243995
1388.33,34.987549427232125
1390.4,15.576246348422956
1392.47,19.94971828368898
1394.54,24.103862710101566
1396.6,8.891638609995425
1398.67,-9.976917085124569
1400.74,-40.22038491771946
1402.8,-50.55737170727252
1404.86,-47.23030134159512
1406.92,-35.386352733202784
1408.98,-9.363165150268742
1411.04,17.120689460212134
1413.09,27.679992293010855
1415.15,47.31049587127791
1417.2,83.62702014212914
1419.25,125.43488190556172
1421.3,165.6822766243181
1423.35,209.8412316623228
1425.4,233.76474999931588
1427.45,218.54395394548033
1429.49,192.8890383798862
1431.54,161.795938274641
1433.58,116.212996219052
1435.62,125.66001089615952
1437.66,112.41871413069975
1439.7,103.72324793706775
1441.74,107.80778442442556
1443.77,129.4779552256191
1445.81,106.44418568800438
1447.84,113.60741001664974
1449.87,122.82097689373518
1451.9,134.70017414556673
1453.93,176.14603912388043
1455.96,200.63107384905265
1457.98,207.1040077723569
1460.01,241.18027482393722
1462.03,347.8086809369702
1464.05,427.0333096670736
1466.07,571.1363801926625
1468.09,707.8763434105433
1470.11,900.9164542219885
1472.13,1128.7771533426144
1474.14,1359.8360681598795
1476.16,1553.1851564477254
1478.17,1662.106897700273
1480.18,1709.83619875122
1482.19,1667.84610891706
1484.2,1522.7525827593472
1486.21,1319.5049571326717
1488.21,1086.1002377564528
1490.22,811.0116715010056
1492.22,611.3316043879081
1494.22,440.86672054273413
1496.22,310.6618525763629
1498.22,234.42855387105374
1500.22,161.49748039032556
1502.22,118.96124867931826
1504.21,78.48396053181727
1506.21,50.063108609664596
1508.2,38.934339205025026
1510.19,24.428595955035917
1512.18,18.067358794549364
1514.17,15.467406718396205
1516.16,6.388437686505085
1518.14,-0.600263851927366
1520.13,5.213507232401753
1522.11,10.637259203056601
1524.09,25.859519184371266
1526.07,21.35459703330207
1528.05,18.168302659725896
1530.03,-4.367765224693358
1532.01,-10.54097797668419
1533.98,-13.543388272503535
1535.96,-16.709822756463154
1537.93,-14.994071008334004
1539.9,4.79301933462898
1541.87,21.554969541528408
1543.84,31.14776187488087
1545.81,21.427455970198025
1547.78,26.916852834616975
1549.74,38.138825512193534
1551.7,83.99726879681884
1553.67,145.4437632308493
1555.63,176.85852481802522
1557.59,200.85992616495628
1559.55,203.25687476546864
1561.5,183.04881033256947
1563.46,175.23522593993835
1565.41,161.57757011579474
1567.37,162.45638703200552
1569.32,171.53798050271712
1571.27,143.726792268699
1573.22,119.49873266264444
1575.17,89.09165413161122
1577.11,82.6482057118451
1579.06,69.12059226551219
1581.0,64.93723847933325
1582.95,59.193262387026834
1584.89,60.2219012727021
1586.83,62.92784233616385
1588.77,77.83483907249638
1590.7,50.561899080222474
1592.64,29.91851948851354
1594.58,7.142779527253879
1596.51,1.6870521447178817
1598.44,26.718001339535704
