Raman Shift,Processed Intensity
331.095,42.8024255666578
333.909,45.01813096948899
336.721,55.59968600607499
339.531,72.88042825992352
342.339,109.3365609577395
345.145,107.99191912432752
347.949,117.98940240415277
350.751,149.94812216862647
353.55,131.48721529005206
356.348,162.36870553462722
359.144,187.16417447926642
361.937,180.6833371903117
364.729,171.06928456892638
367.518,184.75086855362497
370.306,185.9665158942371
373.091,259.04994668777863
375.874,318.62065481909576
378.656,340.5362931634022
381.435,299.8926778364462
384.212,260.8809353018164
386.988,163.0256018591922
389.761,94.70843741831322
392.532,72.35890593962358
395.301,49.4065606368099
398.068,51.70961965553579
400.833,40.078779847419355
403.596,7.562935305913015
406.358,-7.88415171685574
409.117,-2.2133703694385076
411.874,-23.23263708469267
414.629,-22.654510466902593
417.382,-42.95333024514639
420.133,-5.17474008984027
422.882,49.064310483734516
425.629,109.95651067178005
428.374,173.6946560878423
431.117,242.56688391745502
433.858,297.33762235850054
436.597,346.58092101395596
439.334,391.91854318939795
442.069,380.16282009527004
444.802,392.3642669539104
447.533,384.5734848208849
450.262,376.7935385967721
452.989,386.78947789610766
455.714,432.9930960115471
458.438,411.4076888780555
461.159,427.4651949894637
463.878,390.07381150548736
466.595,379.9989436920928
469.31,382.86320198090925
472.024,379.67020855244755
474.735,379.5664991574117
477.444,392.8415201761104
480.152,375.3085780588258
482.857,378.1143601947483
485.561,371.4055986380622
488.262,386.7100195483049
490.962,442.31729263073566
493.659,505.80283771954964
496.355,524.1706789801542
499.048,518.5677276828656
501.74,527.998064976613
504.43,549.418177043583
507.118,609.9274283490986
509.804,699.2442491772103
512.488,771.7537517377268
515.17,835.507727225618
517.85,937.9389285947045
520.528,1024.9086866646776
523.204,1122.1830976566948
525.878,1144.2425440623101
528.551,1150.4245488457323
531.221,1149.4475820270363
533.89,1174.9824863129902
536.556,1176.8905693945553
539.221,1171.652172434859
541.883,1146.6047623666827
544.544,1143.3715003804364
547.203,1166.337429459753
549.86,1195.4589952504116
552.515,1174.6926145483048
555.168,1179.6137199778937
557.819,1224.0358046706501
560.469,1288.3913717053993
563.116,1355.9700264058233
565.761,1418.6803781617682
568.405,1416.9547993934148
571.047,1450.273232134498
573.687,1489.35366128219
576.324,1513.7235402279425
578.96,1546.0055022026072
581.594,1559.4411668596513
584.227,1512.0816135250384
586.857,1480.025473494732
589.485,1417.3713080464845
592.112,1324.1699864516204
594.737,1253.0437306535014
597.359,1206.8051599459814
599.98,1148.5049070804416
602.599,1119.3363772299626
605.216,1106.445268858247
607.831,1070.453380302847
610.445,1057.3157496917097
613.056,1076.7968424787618
615.666,1149.5657865985572
618.274,1292.5297028590053
620.88,1424.119416286488
623.484,1564.7656436614516
626.086,1688.898990577809
628.686,1834.902329454725
631.284,1955.634606119822
633.881,2045.2879797257056
636.476,1986.8163912379478
639.068,1878.4117509706698
641.659,1700.361078503086
644.249,1524.6179283103274
646.836,1283.0404820609274
649.421,1083.4867837714605
652.005,849.2909273421333
654.587,652.5487679018838
657.166,510.1655379154008
659.745,415.4748918615578
662.321,366.905569959471
664.895,312.17187141837576
667.468,263.9879372113028
670.038,207.11536618209766
672.607,156.88702162862046
675.174,151.6355997907035
677.739,146.36029357620782
680.303,108.96488485850068
682.864,106.78155105965243
685.424,63.713719352669614
687.982,8.997968482785382
690.538,26.299263922070168
693.092,26.139532832589794
695.645,45.94528769076578
698.195,56.28572897470576
700.744,28.729898290513574
703.291,-28.53425909316138
705.836,-13.46178409152526
708.38,-4.674495443787691
710.921,11.491405734159798
713.461,69.41392035374429
715.999,124.75669239051422
718.535,154.70711777681026
721.069,173.30969138967203
723.602,166.08506832445755
726.133,105.26817278751378
728.662,83.52249746503094
731.189,81.41630765380933
733.714,79.51789301106601
736.238,75.72891454235014
738.759,57.76060873230426
741.279,14.705229770675942
743.798,-12.106793935965015
746.314,-36.344941347743315
748.829,-45.72620418452334
751.342,-38.6817399380011
753.853,-30.30924300985498
756.362,-1.753892207953868
758.869,26.839269110094847
761.375,29.087235495892855
763.879,13.1785609168046
766.381,12.254308833948016
768.882,38.55090704208942
771.38,49.87633584288051
773.877,54.56250669428209
776.372,68.79859324093786
778.866,53.48817186835868
781.357,27.77302892377884
783.847,29.604586984623438
786.335,43.02961684126285
788.821,95.57118757500712
791.306,170.41914044562418
793.789,250.43008658838426
796.27,306.74645233014417
798.749,379.9869530768633
801.227,456.7227814868297
803.702,538.6680813581747
806.176,578.6799453259073
808.649,599.8536506541791
811.119,595.2369426476048
813.588,551.7824133006702
816.055,490.87130851856955
818.521,444.31352581423243
820.984,393.25237391011615
823.446,345.30742757809
825.906,341.7173824793217
828.365,302.67338619464044
830.821,251.89046449299212
833.276,224.84561426656091
835.729,187.82542027541876
838.181,184.44986236835484
840.631,207.7675512751366
843.079,213.49382154162367
845.525,178.10596732202566
847.97,170.50990674259174
850.412,131.706846265301
852.854,135.88851648012405
855.293,135.5324078972908
857.731,141.54462578717403
860.167,117.87893549636101
862.601,99.29866490658242
865.034,77.75765451268444
867.465,98.97168369108522
869.894,86.03751601584554
872.321,83.90908743188629
874.747,74.54036109486788
877.171,45.07580125869481
879.594,82.37418049636017
882.014,142.29429168268325
884.433,146.74256473896867
886.851,132.81592147289211
889.266,94.89701137077873
891.68,69.89230453273512
894.092,94.18447032206677
896.503,147.01332744327055
898.912,190.61869878192192
901.319,199.3832662445693
903.724,173.49923512243322
906.128,164.44452226463272
908.53,133.268468060935
910.931,122.25850080545843
913.329,128.65442010799688
915.726,140.64839459105542
918.122,157.2421024440314
920.516,158.96101483453958
922.908,133.61629836735892
925.298,121.11433659100021
927.687,84.7424419804579
930.074,111.45456791996776
932.459,161.20463973339156
934.843,172.89893333364626
937.225,199.72940625309275
939.605,204.98321915010956
941.984,172.94749541090368
944.361,194.24265217989932
946.736,183.2509694853593
949.11,163.11658793644665
951.482,176.65026832504736
953.853,164.28177027520724
956.222,144.4408023211381
958.589,151.08082912808595
960.954,126.15525966557834
963.318,113.09363538067782
965.68,131.84924694264987
968.041,142.18484622574397
970.4,117.67264400624617
972.757,117.50383146906597
975.113,107.48857790480133
977.467,76.29412364489235
979.819,40.968587282492535
982.17,20.32191575047341
984.519,-0.9312608386594547
986.866,-0.0287743528538158
989.212,18.362890628099194
991.556,54.720025029731914
993.899,85.89979016368443
996.24,120.75926683873217
998.579,144.44117113848188
1000.92,108.1357606752531
1003.25,70.69988370110264
1005.59,56.84745679027583
1007.92,55.81613299785636
1010.25,60.98635097078454
1012.58,40.92895548746219
1014.91,8.690913235439211
1017.24,17.700076208162272
1019.56,57.38423081599535
1021.88,96.83776692018637
1024.2,110.77406115254985
1026.52,87.38262213990515
1028.84,61.567188109479275
1031.16,64.18382449430715
1033.48,79.89806915768213
1035.79,94.99445856998659
1038.1,104.47176827123303
1040.41,128.4715866669328
1042.72,145.1354602525421
1045.03,156.22394359980603
1047.33,177.78326839072383
1049.64,172.76439340389447
1051.94,156.2134830722905
1054.24,161.70048127913515
1056.54,149.03339943949163
1058.84,117.2106998199547
1061.13,154.89748838214382
1063.43,142.13980286430228
1065.72,139.41223419621952
1068.01,139.09411934273544
1070.3,134.85049605199765
1072.59,124.9654385561023
1074.87,164.81825041458637
1077.16,168.74060973888004
1079.44,201.20704775009062
1081.72,222.54923686058328
1084.0,244.57504066034244
1086.28,282.42565914141755
1088.56,361.9565834461748
1090.84,444.40426490126765
1093.11,508.0527840516015
1095.38,526.0909958847774
1097.65,452.1363417222026
1099.92,376.13961349115175
1102.19,314.33733704444126
1104.46,297.8232030991551
1106.72,283.4528315087025
1108.98,298.89139267773385
1111.24,315.51837183420116
1113.5,339.2847142537951
1115.76,361.9033038177222
1118.02,420.99182252285436
1120.28,491.1679909442644
1122.53,523.8590944120488
1124.78,515.8257949024371
1127.03,457.0668953098518
1129.28,368.4860084808722
1131.53,341.70108339105036
1133.77,318.5682170360201
1136.02,300.37213298926486
1138.26,291.7785647217954
1140.5,301.7866389218236
1142.74,325.6812588144246
1144.98,369.6045351002458
1147.22,387.793883560885
1149.45,410.9153607595058
1151.69,415.63509497954647
1153.92,385.8573838300997
1156.15,356.53422042271313
1158.38,285.37958145296625
1160.61,238.4408581391781
1162.83,200.81314430397856
1165.06,165.1630482654
1167.28,149.20488568035307
1169.5,127.03401524523929
1171.72,101.17446011085099
1173.94,80.15033882108173
1176.16,76.91443910878343
1178.37,57.27679169162161
1180.58,74.80943454412318
1182.8,41.0845105030578
1185.01,43.959983920441346
1187.22,21.579643030819852
1189.42,-13.579278633819058
1191.63,-38.56324273390533
1193.84,-31.894784707372764
1196.04,-13.620131936452026
1198.24,34.07174498213976
1200.44,44.56341059774445
1202.64,25.951812879912495
1204.84,16.90541720684132
1207.03,18.902292734760294
1209.23,45.46820141173566
1211.42,51.509926860847145
1213.61,71.69622429555761
1215.8,87.17210376841444
1217.99,114.93978008642125
1220.18,166.47771796450093
1222.36,176.35967717896165
1224.55,153.7309005781001
1226.73,136.68906399757543
1228.91,112.1414166519703
1231.09,126.28096914540083
1233.27,155.1103005297482
1235.44,148.63203202955492
1237.62,144.03930076692313
1239.79,153.95385253402083
1241.96,188.85461075607054
1244.13,250.55386450195533
1246.3,336.10202792339214
1248.47,443.1685901703004
1250.64,545.6611605442647
1252.8,675.915942223422
1254.96,856.4596345587884
1257.13,1051.7237163229504
1259.29,1237.5682527682961
1261.44,1413.2342741138068
1263.6,1502.3913921270907
1265.76,1508.7092262302199
1267.91,1465.3335915103296
1270.06,1385.5531629206926
1272.22,1234.8470918627481
1274.37,1098.3135751490863
1276.51,974.5269953950021
1278.66,844.347442362423
1280.81,736.0635676371717
1282.95,660.059248830039
1285.09,556.2421585397612
1287.23,492.996142839806
1289.37,486.1335997651597
1291.51,501.13357208483126
1293.65,531.9988876933999
1295.78,565.6847285739839
1297.92,568.4319616659809
1300.05,582.4338030661345
1302.18,624.8834346105548
1304.31,653.1644775995999
1306.44,683.3271808084567
1308.57,748.3741323072611
1310.69,793.0697808050143
1312.82,853.7499569935067
1314.94,940.3218710817087
1317.06,978.7879198539745
1319.18,1014.7218746806204
1321.3,1037.9355457189836
1323.41,1016.0025889716192
1325.53,975.7346942968863
1327.64,927.181582943336
1329.75,844.4881479412409
1331.87,757.6563563988964
1333.98,673.2595327512911
1336.08,611.6328324849765
1338.19,558.9684777676923
1340.3,473.69670736370153
1342.4,389.67625035865694
1344.5,318.48003797969614
1346.6,262.25234398698194
1348.7,216.47068696999054
1350.8,205.70773264380568
1352.9,169.67891043113082
1354.99,138.95669671096107
1357.09,143.01823140058627
1359.18,155.57864882331023
1361.27,132.78155143331287
1363.36,135.96091211194312
1365.45,144.21250027353562
1367.54,138.67959368551556
1369.62,148.6005950504059
1371.7,174.07093430212353
1373.79,166.04306614036773
1375.87,178.46932470786442
1377.95,194.6352544580925
1380.03,203.302464832532
1382.1,192.08958017600912
1384.18,192.37699917584996
1386.25,155.54498763436754
1388.33,114.11653314610794
1390.4,53.90019977510178
1392.47,31.561554160683045
1394.54,30.432686861397542
1396.6,44.845543222730385
1398.67,41.60811467816325
1400.74,16.290157024057635
1402.8,-18.300615114986613
1404.86,-11.166143344587226
1406.92,4.310551646312433
1408.98,16.03204035401359
1411.04,51.710296325158424
1413.09,84.05717515328524
1415.15,126.02251419060872
1417.2,192.60366083122494
1419.25,251.7978579371818
1421.3,307.69748640740295
1423.35,361.3472125085141
1425.4,357.31542091996084
1427.45,334.9799334934112
1429.49,298.4803946788247
1431.54,261.7182759981524
1433.58,225.97592813807432
1435.62,214.9165854237017
1437.66,179.63198933989088
1439.7,179.92810729065627
1441.74,155.99180373952845
1443.77,168.29560658801574
1445.81,143.21675926834087
1447.84,147.22770140762236
1449.87,160.46750187299654
1451.9,178.74186324531433
1453.93,176.90407867378417
1455.96,224.23598873062087
1457.98,256.0670335037885
1460.01,335.2504475468852
1462.03,419.3537405433153
1464.05,535.944416065699
1466.07,675.6375950971872
1468.09,851.2388776480095
1470.11,1083.744347229167
1472.13,1351.9596229451672
1474.14,1606.3570068248537
1476.16,1859.2183454379465
1478.17,2015.1588438925464
1480.18,2030.3651655469125
1482.19,1946.6906745783883
1484.2,1752.84591664757
1486.21,1531.827194800567
1488.21,1265.3927644188816
1490.22,984.967599597861
1492.22,721.2624452394368
1494.22,508.22620247818827
1496.22,357.85545696455824
1498.22,276.765911909961
1500.22,203.00191636999057
1502.22,161.13170781333815
1504.21,109.390273738328
1506.21,56.48887995612381
1508.2,5.281741731076636
1510.19,-19.614924126548885
1512.18,-27.727656691659604
1514.17,-8.535270260176048
1516.16,8.054957585803322
1518.14,19.516809217024274
1520.13,30.133696941752987
1522.11,30.66532822854083
1524.09,19.204847119463466
1526.07,-5.344976737594834
1528.05,-6.843178104274784
1530.03,21.13702145196862
1532.01,55.26059252048776
1533.98,51.62117134572827
1535.96,45.122009515995614
1537.93,37.8569236522203
1539.9,47.01505462052887
1541.87,56.547531506719224
1543.84,50.73889749550085
1545.81,34.63567860687999
1547.78,40.7606667182622
1549.74,91.0652978246444
1551.7,140.12012553690897
1553.67,179.78148505630816
1555.63,200.38196667275247
1557.59,194.2542225964321
1559.55,204.20715474181702
1561.5,218.668769178332
1563.46,242.49569724769276
1565.41,273.7827166812401
1567.37,280.91036795537275
1569.32,256.2116182660259
1571.27,227.01947788410507
1573.22,163.71461651092045
1575.17,135.0110748717209
1577.11,130.9086429758861
1579.06,155.83571456760455
1581.0,169.07785586226169
1582.95,157.87304094949218
1584.89,150.5545062438507
1586.83,146.0745573164386
1588.77,142.90932810747972
1590.7,121.58258775794866
1592.64,105.80859506023853
1594.58,70.53971481359372
1596.51,40.75212941763857
1598.44,27.11250284684934
