Raman Shift,Processed Intensity
331.095,-10.043892857143028
333.909,-34.52674047619043
336.721,-36.74281190476181
339.531,-27.418190476190478
342.339,-36.184595238095255
345.145,-9.672476190476164
347.949,-4.080547619047646
350.751,-2.3669619047619035
353.55,-0.24934761904760716
356.348,10.223785714285713
359.144,8.101566666666695
361.937,17.340333333333337
364.729,14.898528571428631
367.518,79.1180904761906
370.306,198.00970000000018
373.091,332.11023333333355
375.874,482.19642857142884
378.656,491.9517142857145
381.435,419.4426952380954
384.212,271.69021904761905
386.988,146.52644761904773
389.761,61.928371428571495
392.532,59.064847619047654
395.301,40.77315714285717
398.068,38.32110000000002
400.833,38.88253523809527
403.596,45.01391142857144
406.358,30.98741333333335
409.117,23.600469523809537
411.874,31.651913333333376
414.629,40.32278761904766
417.382,67.70024476190481
420.133,89.82502380952388
422.882,100.64396666666676
425.629,150.67603333333346
428.374,215.87005238095253
431.117,276.36650476190493
433.858,331.6398571428573
436.597,329.3560476190478
439.334,276.56309523809534
442.069,253.97609523809535
444.802,205.12076190476205
447.533,214.99942857142875
450.262,267.99604761904783
452.989,294.87628571428587
455.714,310.35880952380967
458.438,317.0198571428573
461.159,266.67457142857154
463.878,205.47109523809533
466.595,160.5111904761906
469.31,136.03966666666676
472.024,153.5871904761906
474.735,196.44709523809536
477.444,198.674761904762
480.152,192.03942857142872
482.857,209.83528571428585
485.561,221.6896190476192
488.262,243.51542857142869
490.962,260.08385714285725
493.659,213.02233333333345
496.355,188.72047619047632
499.048,165.52119047619055
501.74,148.3856380952382
504.43,118.56082857142863
507.118,107.57989523809532
509.804,124.07050476190489
512.488,196.89865714285727
515.17,250.8357809523811
517.85,288.0810190476192
520.528,254.8337142857144
523.204,198.2452095238096
525.878,141.22887619047629
528.551,140.84045714285722
531.221,134.85065238095245
533.89,126.55333333333341
536.556,119.81365428571434
539.221,93.82963809523811
541.883,36.60903761904764
544.544,32.7304704761905
547.203,28.296631904761945
549.86,55.981026666666736
552.515,104.4095214285715
555.168,119.82688857142864
557.819,106.81070952380956
560.469,95.70056190476197
563.116,125.3594761904763
565.761,149.7450476190477
568.405,172.91038095238105
571.047,161.6700952380953
573.687,133.07600000000008
576.324,109.5140000000001
578.96,121.32138095238103
581.594,135.97814285714296
584.227,175.77366666666677
586.857,201.14009523809534
589.485,206.46080952380962
592.112,186.50061904761913
594.737,160.16663809523817
597.359,151.03245238095244
599.98,114.52833809523813
602.599,74.84652380952383
605.216,63.27370000000004
607.831,44.85826190476197
610.445,74.98213809523817
613.056,100.26457142857146
615.666,93.37237142857148
618.274,70.16245714285719
620.88,100.92022857142865
623.484,121.74002380952393
626.086,203.001923809524
628.686,245.22830000000013
631.284,312.0843714285716
633.881,325.901523809524
636.476,325.20147619047634
639.068,303.4580476190478
641.659,259.2875238095239
644.249,190.1153809523811
646.836,200.79576190476206
649.421,183.18217142857154
652.005,160.27100476190483
654.587,145.53469047619052
657.166,94.87383809523814
659.745,63.56981428571435
662.321,75.3326190476191
664.895,83.25264285714293
667.468,94.23006666666673
670.038,98.06948571428576
672.607,87.0040047619048
675.174,82.55245714285721
677.739,104.51904285714295
680.303,146.5651676190477
682.864,150.78093238095244
685.424,111.16099523809527
687.982,57.60484285714288
690.538,26.01206095238099
693.092,29.043940000000045
695.645,60.02872285714288
698.195,44.627983809523805
700.744,17.836738095238108
703.291,18.364414285714304
705.836,6.206342857142873
708.38,32.92917619047623
710.921,40.86203333333334
713.461,36.61975714285719
715.999,54.96027619047625
718.535,90.45101428571434
721.069,80.65980476190481
723.602,111.10667142857149
726.133,96.1694571428572
728.662,105.8922857142858
731.189,117.0820095238096
733.714,141.11620952380963
736.238,146.61143333333342
738.759,143.7553857142858
741.279,133.40259047619054
743.798,127.16977619047624
746.314,118.67382857142866
748.829,122.38861428571435
751.342,118.59794761904769
753.853,100.44278095238101
756.362,101.87358571428578
758.869,104.07938095238102
761.375,115.10619333333338
763.879,93.04806000000002
766.381,60.28455333333336
768.882,47.05274000000005
771.38,60.92276285714292
773.877,85.2747695238096
776.372,101.44146000000003
778.866,96.32678571428576
781.357,73.64460000000004
783.847,92.8229952380953
786.335,92.14715714285718
788.821,99.95051428571435
791.306,84.99465238095242
793.789,80.04120952380957
796.27,77.13821428571435
798.749,88.38090000000005
801.227,100.10284761904771
803.702,127.82853809523817
806.176,140.60566666666676
808.649,150.5775000000001
811.119,164.60228571428578
813.588,153.91845714285722
816.055,144.57452857142866
818.521,131.80943809523816
820.984,128.76682380952388
823.446,98.25729047619053
825.906,106.85366190476199
828.365,123.17570000000008
830.821,122.22488571428579
833.276,117.90710476190483
835.729,114.65223809523813
838.181,96.50955714285723
840.631,117.43262857142867
843.079,125.75626666666673
845.525,111.81557142857147
847.97,66.80260000000001
850.412,36.956995238095274
852.854,40.75684761904767
855.293,47.822666666666706
857.731,67.537380952381
860.167,83.9504628571429
862.601,63.15901523809527
865.034,52.21251142857146
867.465,50.92245619047621
869.894,38.62417809523814
872.321,57.22433904761911
874.747,90.86782000000005
877.171,98.41391904761912
879.594,110.29340476190482
882.014,108.1748857142858
884.433,113.58413333333344
886.851,158.80920952380967
889.266,204.13787619047633
891.68,221.28652380952394
894.092,225.97180952380964
896.503,186.95747619047629
898.912,142.05514285714295
901.319,158.17223809523824
903.724,168.88193333333345
906.128,157.2340761904763
908.53,154.23081904761915
910.931,137.63630476190482
913.329,137.92886666666678
915.726,167.72993333333343
918.122,175.13640952380962
920.516,162.57911428571435
922.908,134.29806666666673
925.298,102.15246666666673
927.687,98.0969333333334
930.074,128.7050761904763
932.459,146.16903333333343
934.843,158.34787809523814
937.225,114.4340161904762
939.605,74.33393714285718
941.984,44.049769523809566
944.361,45.10711809523813
946.736,43.12664000000002
949.11,40.9196161904762
951.482,21.011542857142878
953.853,12.880228571428585
956.222,24.241366666666707
958.589,45.95364761904767
960.954,87.78042857142864
963.318,123.91372857142863
965.68,119.83103571428575
968.041,87.20023333333339
970.4,60.450892857142875
972.757,37.20312380952386
975.113,54.98186428571434
977.467,84.45467619047623
979.819,67.57479523809529
982.17,60.771523809523856
984.519,73.66450952380958
986.866,89.58781428571437
989.212,147.6376142857144
991.556,204.0521047619049
993.899,243.4507619047621
996.24,274.2624761904764
998.579,270.6780952380954
1000.92,244.74533333333346
1003.25,229.2266666666668
1005.59,199.74080952380965
1007.92,178.04961904761916
1010.25,161.7722857142858
1012.58,145.19442857142866
1014.91,147.45876190476199
1017.24,154.8985238095239
1019.56,161.13238095238106
1021.88,150.35042857142864
1024.2,118.31438095238101
1026.52,132.59519047619057
1028.84,158.2400000000001
1031.16,191.4864761904763
1033.48,227.61947619047635
1035.79,244.7814761904763
1038.1,218.6384285714287
1040.41,216.4756666666668
1042.72,226.0538095238097
1045.03,258.2773809523811
1047.33,277.5262380952382
1049.64,270.4186666666668
1051.94,245.52495238095253
1054.24,245.98728571428586
1056.54,247.80442857142873
1058.84,259.8807142857145
1061.13,267.4056190476192
1063.43,276.61576190476205
1065.72,271.700523809524
1068.01,292.4682857142859
1070.3,283.10842857142876
1072.59,258.5724761904764
1074.87,274.5257142857145
1077.16,295.63352380952404
1079.44,305.6090952380954
1081.72,339.1179523809526
1084.0,367.5872380952384
1086.28,432.3492857142861
1088.56,561.3070952380956
1090.84,673.9836190476195
1093.11,761.3773809523815
1095.38,790.0108095238099
1097.65,713.691904761905
1099.92,593.6102857142861
1102.19,487.5738571428575
1104.46,413.48614285714314
1106.72,400.012285714286
1108.98,419.86533333333364
1111.24,477.5673809523813
1113.5,555.3078571428575
1115.76,657.41880952381
1118.02,710.7081904761909
1120.28,743.698666666667
1122.53,709.6745714285718
1124.78,671.015285714286
1127.03,618.1478095238098
1129.28,556.4998571428574
1131.53,479.0222380952383
1133.77,422.8091428571431
1136.02,375.47800000000024
1138.26,347.64671428571455
1140.5,353.02833333333365
1142.74,351.6218095238097
1144.98,378.9017142857145
1147.22,370.24804761904784
1149.45,361.70695238095254
1151.69,315.99133333333344
1153.92,287.2908857142858
1156.15,215.6520761904763
1158.38,161.69277142857152
1160.61,131.74527619047626
1162.83,115.14200000000007
1165.06,93.54839523809531
1167.28,88.05880952380954
1169.5,54.0532904761905
1171.72,22.340247619047656
1173.94,42.109209523809554
1176.16,35.83566904761907
1178.37,38.66164761904764
1180.58,35.0149261904762
1182.8,33.51380476190478
1185.01,32.06232619047622
1187.22,42.755142857142886
1189.42,59.73437142857149
1191.63,81.95194285714291
1193.84,103.7406476190477
1196.04,113.05249047619056
1198.24,145.60118095238104
1200.44,134.8150476190477
1202.64,139.12232380952386
1204.84,130.04657142857147
1207.03,92.92094285714288
1209.23,61.36436190476196
1211.42,83.56719047619052
1213.61,70.33902380952385
1215.8,73.63234761904766
1217.99,75.16150000000002
1220.18,64.26005619047623
1222.36,52.4520804761905
1224.55,35.16667000000001
1226.73,25.403970952380984
1228.91,46.68865952380958
1231.09,64.25926428571434
1233.27,90.25930428571432
1235.44,93.5466647619048
1237.62,63.78885714285718
1239.79,58.748509523809574
1241.96,77.7602904761905
1244.13,67.06312857142859
1246.3,56.03911904761908
1248.47,55.68942857142861
1250.64,47.44387619047623
1252.8,60.256152380952436
1254.96,93.41327142857148
1257.13,92.2977047619048
1259.29,78.29191428571434
1261.44,92.25438095238103
1263.6,108.75835714285722
1265.76,117.94823809523817
1267.91,119.53993809523814
1270.06,117.86858095238102
1272.22,127.55485714285726
1274.37,142.69580952380963
1276.51,174.7698000000001
1278.66,175.20717142857148
1280.81,135.1525714285715
1282.95,103.46501904761911
1285.09,84.57503809523816
1287.23,105.48486666666678
1289.37,141.52979047619058
1291.51,187.33093333333346
1293.65,186.17617142857148
1295.78,143.97245714285722
1297.92,95.57896190476198
1300.05,106.66451428571436
1302.18,122.18377142857153
1304.31,142.66260952380958
1306.44,133.29371428571437
1308.57,118.7460095238096
1310.69,116.21193333333343
1312.82,160.74146666666678
1314.94,207.48018095238103
1317.06,221.42990476190488
1319.18,227.73571428571438
1321.3,208.30457142857153
1323.41,189.94823809523825
1325.53,213.38304761904777
1327.64,254.2305714285716
1329.75,300.77857142857164
1331.87,350.4579523809526
1333.98,355.08004761904783
1336.08,333.40933333333356
1338.19,308.92385714285734
1340.3,288.43557142857156
1342.4,255.04157142857156
1344.5,228.98219047619057
1346.6,219.64004761904778
1348.7,228.16028571428586
1350.8,226.16400000000013
1352.9,221.03404761904773
1354.99,208.2960000000001
1357.09,201.66619047619062
1359.18,225.4799523809525
1361.27,249.2629047619049
1363.36,258.54047619047634
1365.45,264.45723809523827
1367.54,276.44342857142874
1369.62,292.50042857142876
1371.7,321.15395238095255
1373.79,356.64361904761927
1375.87,395.5895714285717
1377.95,430.7080952380955
1380.03,445.90519047619074
1382.1,403.5152380952383
1384.18,346.82547619047637
1386.25,293.6461904761906
1388.33,237.5500952380954
1390.4,217.30038095238106
1392.47,207.99304761904773
1394.54,182.15276190476203
1396.6,170.06611428571435
1398.67,135.68604761904766
1400.74,91.68028095238103
1402.8,86.62088571428579
1404.86,91.03192857142865
1406.92,111.38995238095245
1408.98,115.31426190476193
1411.04,118.9006571428572
1413.09,97.1491285714286
1415.15,80.15514761904767
1417.2,75.25189047619054
1419.25,95.48683333333341
1421.3,95.57403809523818
1423.35,110.37045238095244
1425.4,103.58972857142862
1427.45,109.65991428571436
1429.49,103.58065714285719
1431.54,117.77971428571433
1433.58,88.06573333333337
1435.62,71.10454285714292
1437.66,75.0854095238096
1439.7,115.24523809523818
1441.74,120.82068095238103
1443.77,155.47712380952387
1445.81,133.21296666666674
1447.84,123.55055238095245
1449.87,132.1547000000001
1451.9,147.8808857142858
1453.93,148.77463333333344
1455.96,166.5008476190477
1457.98,164.15233333333342
1460.01,175.91790476190488
1462.03,183.50928571428582
1464.05,176.68633333333347
1466.07,176.97066666666677
1468.09,186.1217142857144
1470.11,189.94652380952394
1472.13,201.25242857142868
1474.14,202.36985714285726
1476.16,198.34420952380967
1478.17,175.22066190476198
1480.18,158.6633714285715
1482.19,132.09827142857148
1484.2,107.04657619047626
1486.21,93.31520952380959
1488.21,91.94943333333337
1490.22,61.184761904761935
1492.22,61.44721428571434
1494.22,82.59139047619053
1496.22,87.18629523809528
1498.22,84.70569523809527
1500.22,72.2424285714286
1502.22,54.6989047619048
1504.21,54.07271904761909
1506.21,44.21884761904763
1508.2,28.087419047619072
1510.19,29.152528571428597
1512.18,34.88829047619052
1514.17,51.95935238095243
1516.16,90.74484666666672
1518.14,79.48087761904766
1520.13,63.49898857142861
1522.11,72.46397476190481
1524.09,65.80284571428575
1526.07,64.27583476190482
1528.05,66.83386571428572
1530.03,49.85614761904765
1532.01,34.960247619047664
1533.98,63.096766666666724
1535.96,75.93125238095244
1537.93,109.17654285714293
1539.9,126.78360952380962
1541.87,140.2748476190477
1543.84,134.50623809523816
1545.81,133.47623809523816
1547.78,130.13633333333343
1549.74,153.91380952380965
1551.7,179.1887142857144
1553.67,188.3882380952382
1555.63,205.13052380952394
1557.59,205.27152380952393
1559.55,196.38171428571442
1561.5,184.7930952380953
1563.46,167.79104761904773
1565.41,170.13633333333348
1567.37,187.68542857142867
1569.32,204.1517142857144
1571.27,210.48685714285725
1573.22,194.2610476190477
1575.17,174.0454761904763
1577.11,186.02971428571442
1579.06,188.45157142857155
1581.0,208.54814285714298
1582.95,200.84295238095248
1584.89,180.4780476190477
1586.83,184.64357142857156
1588.77,202.81495238095252
1590.7,234.65857142857158
1592.64,254.5069523809525
1594.58,235.45526190476195
1596.51,213.38433333333353
1598.44,204.62733333333392
