Raman Shift,Processed Intensity
331.095,44.76715952380944
333.909,3.201045238095219
336.721,-18.053211904761888
339.531,-24.390095238095242
342.339,-24.49062380952382
345.145,-10.010857142857128
347.949,1.2295523809523505
350.751,-27.015266666666697
353.55,-32.2744761904762
356.348,-31.074842857142876
359.144,-43.4167761904762
361.937,-19.01256666666667
364.729,-4.4291190476190145
367.518,38.62622857142869
370.306,162.0199095238097
373.091,311.0966285714288
375.874,423.2033619047621
378.656,486.6895238095241
381.435,449.47784761904774
384.212,315.0647095238096
386.988,179.6149095238096
389.761,91.2949190476191
392.532,64.03508095238104
395.301,67.33902380952385
398.068,71.33095238095241
400.833,46.32736190476193
403.596,42.360519047619086
406.358,44.940390476190515
409.117,56.2927904761905
411.874,43.31137142857145
414.629,38.12942857142859
417.382,19.119552380952413
420.133,36.179523809523864
422.882,84.73180000000008
425.629,122.29555714285725
428.374,191.58113333333353
431.117,287.2528666666669
433.858,332.16619047619065
436.597,310.7009523809525
439.334,268.57161904761915
442.069,196.92209523809535
444.802,176.61061904761922
447.533,226.73542857142874
450.262,293.0138095238097
452.989,325.115523809524
455.714,329.331142857143
458.438,309.85576190476206
461.159,250.17095238095249
463.878,203.52057142857154
466.595,167.48247619047632
469.31,148.68195238095248
472.024,150.65000000000012
474.735,174.01314285714295
477.444,188.4932380952382
480.152,199.47885714285724
482.857,237.3593333333335
485.561,247.4760952380954
488.262,268.36161904761923
490.962,287.7389523809525
493.659,278.5213333333334
496.355,261.9557619047621
499.048,257.5274285714287
501.74,206.29290476190485
504.43,160.59442857142864
507.118,137.8695238095239
509.804,131.12728571428582
512.488,164.51947619047633
515.17,203.6739523809525
517.85,228.9804761904763
520.528,216.63819047619057
523.204,203.56066666666678
525.878,172.70866666666674
528.551,156.99542857142868
531.221,131.95283333333342
533.89,127.16043809523816
536.556,100.67389047619054
539.221,105.26291428571433
541.883,87.55386190476197
544.544,112.31619047619053
547.203,101.12844761904768
549.86,105.90237142857148
552.515,113.83532285714293
555.168,95.0766347619048
557.819,84.10857428571435
560.469,86.41383666666671
563.116,94.23619333333342
565.761,125.67644428571438
568.405,147.12118000000007
571.047,128.90855238095244
573.687,140.9958190476191
576.324,128.29269523809532
578.96,137.18446666666676
581.594,145.0083714285715
584.227,135.10171428571437
586.857,130.75366666666673
589.485,150.82457142857152
592.112,162.7462380952382
594.737,156.56909523809531
597.359,160.2480571428572
599.98,120.7855047619048
602.599,66.37403809523815
605.216,72.11071428571435
607.831,77.56854285714292
610.445,101.98666666666675
613.056,119.98542380952382
615.666,101.61340952380958
618.274,88.2996333333334
620.88,93.85435238095243
623.484,91.99170952380962
626.086,165.23550476190488
628.686,200.2045809523811
631.284,257.0409809523812
633.881,308.3628380952382
636.476,304.1691904761906
639.068,254.69642857142873
641.659,229.2765238095239
644.249,182.0980000000001
646.836,154.2539047619049
649.421,163.21842857142866
652.005,146.65580952380958
654.587,104.18211904761908
657.166,75.84207142857147
659.745,76.1559952380953
662.321,77.59698571428578
664.895,73.59014761904764
667.468,54.893795238095265
670.038,61.26600000000005
672.607,63.79811904761911
675.174,101.15248571428579
677.739,124.18250952380957
680.303,116.07426666666672
682.864,105.34721904761909
685.424,89.80651904761908
687.982,62.01916666666669
690.538,40.694953333333345
693.092,17.353389704761913
695.645,0.6089152047619056
698.195,4.504699457142868
700.744,8.036306176190495
703.291,23.67551293333334
705.836,16.941832633333334
708.38,7.59285146666667
710.921,8.052885047619075
713.461,33.22254680952385
715.999,38.28823466666669
718.535,51.055270476190515
721.069,55.61523857142861
723.602,77.10706095238103
726.133,107.76488047619054
728.662,106.06116380952386
731.189,113.89711428571438
733.714,134.60208095238104
736.238,125.7921095238096
738.759,142.17788095238103
741.279,142.47032857142864
743.798,112.38055714285721
746.314,97.14349523809528
748.829,90.18459523809528
751.342,71.11992857142863
753.853,73.70840952380956
756.362,58.51880952380955
758.869,57.07228095238099
761.375,73.89028095238102
763.879,76.63712380952386
766.381,69.73884761904765
768.882,61.33647142857145
771.38,63.95154761904767
773.877,64.86805238095243
776.372,84.46540952380956
778.866,77.17060000000004
781.357,70.12509047619054
783.847,79.80378095238103
786.335,106.49110000000006
788.821,115.28124761904769
791.306,105.64964285714294
793.789,86.97660000000008
796.27,117.59497619047627
798.749,117.5514952380953
801.227,125.27450952380963
803.702,182.81126666666677
806.176,197.49486190476202
808.649,169.56332380952392
811.119,172.11193809523817
813.588,124.95051428571436
816.055,114.12694761904771
818.521,128.49872857142861
820.984,101.87566666666672
823.446,86.44880476190484
825.906,89.50422857142865
828.365,94.99547142857152
830.821,131.44691428571437
833.276,153.5262000000001
835.729,148.23414285714296
838.181,163.5721238095239
840.631,144.68381428571433
843.079,116.28469523809531
845.525,96.56637142857149
847.97,94.14947619047625
850.412,85.36831904761912
852.854,109.89154285714291
855.293,105.86309047619054
857.731,113.28455238095243
860.167,106.10993333333339
862.601,89.15057142857147
865.034,65.36037142857147
867.465,62.40794761904766
869.894,65.29490476190482
872.321,65.73753333333337
874.747,75.59461904761909
877.171,110.29675238095246
879.594,102.3697714285715
882.014,123.67263333333344
884.433,138.4457095238096
886.851,151.54793333333345
889.266,203.17158571428587
891.68,242.03332380952392
894.092,198.89719047619062
896.503,188.43152380952392
898.912,153.40085714285726
901.319,148.04500000000013
903.724,178.41366666666676
906.128,181.27095238095248
908.53,154.28590476190482
910.931,168.88861904761913
913.329,156.60571428571436
915.726,151.77226666666675
918.122,141.58083809523816
920.516,131.17635238095244
922.908,104.75147142857148
925.298,87.92692380952386
927.687,104.94326190476201
930.074,131.37372380952388
932.459,147.83941428571435
934.843,154.86595238095245
937.225,129.97900952380957
939.605,92.79935238095244
941.984,84.99571428571431
944.361,61.141476190476226
946.736,55.1431285714286
949.11,43.71651904761907
951.482,33.053876190476224
953.853,46.4423047619048
956.222,63.455104761904806
958.589,72.52217619047624
960.954,97.50208095238102
963.318,110.72956190476197
965.68,92.06308571428575
968.041,66.74197619047622
970.4,59.57710952380955
972.757,27.283780952380972
975.113,34.577185714285754
977.467,50.125133333333366
979.819,62.738109523809584
982.17,94.32176190476198
984.519,115.73394285714292
986.866,133.11813333333345
989.212,166.76060952380965
991.556,207.90023809523825
993.899,242.20442857142874
996.24,270.1976666666668
998.579,258.16595238095255
1000.92,257.5381904761906
1003.25,240.40995238095252
1005.59,238.59133333333344
1007.92,211.17757142857155
1010.25,194.0262380952382
1012.58,161.94719047619057
1014.91,155.5595238095239
1017.24,161.86323809523822
1019.56,173.76338095238106
1021.88,172.5452857142858
1024.2,176.7807142857144
1026.52,181.70776190476204
1028.84,193.1834285714287
1031.16,209.2074285714287
1033.48,220.63700000000014
1035.79,218.42433333333346
1038.1,208.28333333333347
1040.41,199.6421904761906
1042.72,212.7389047619049
1045.03,226.28728571428584
1047.33,225.19195238095253
1049.64,213.3571904761906
1051.94,203.40180952380965
1054.24,191.80133333333347
1056.54,200.46014285714298
1058.84,201.66347619047633
1061.13,204.6488095238097
1063.43,224.84442857142872
1065.72,264.5832380952383
1068.01,302.4358095238097
1070.3,307.25847619047636
1072.59,301.28895238095254
1074.87,316.2884761904764
1077.16,308.4948571428573
1079.44,320.7640000000002
1081.72,349.33385714285737
1084.0,368.0603333333336
1086.28,442.5620952380956
1088.56,566.2670476190481
1090.84,694.9840000000005
1093.11,806.9976190476194
1095.38,843.6409523809527
1097.65,759.6747142857146
1099.92,647.5270952380956
1102.19,521.0068095238098
1104.46,452.30342857142887
1106.72,437.03523809523836
1108.98,437.6776190476194
1111.24,472.65800000000036
1113.5,541.1665714285718
1115.76,606.9167142857146
1118.02,661.9075714285718
1120.28,704.5671428571433
1122.53,691.3230000000003
1124.78,659.8887619047622
1127.03,608.6924761904766
1129.28,530.3044761904764
1131.53,465.39052380952404
1133.77,410.66433333333356
1136.02,370.22019047619074
1138.26,324.9150952380955
1140.5,321.7957619047621
1142.74,336.90880952380974
1144.98,351.729904761905
1147.22,353.353523809524
1149.45,319.2073809523811
1151.69,284.5769047619049
1153.92,281.79447619047636
1156.15,269.5261619047621
1158.38,206.05744761904774
1160.61,157.244580952381
1162.83,78.65857142857148
1165.06,67.06080000000007
1167.28,72.02203809523814
1169.5,66.39899523809527
1171.72,56.42939523809528
1173.94,56.92206190476193
1176.16,59.40058571428577
1178.37,76.38826190476193
1180.58,58.78960000000001
1182.8,26.1280142857143
1185.01,24.92702000000002
1187.22,10.805381904761923
1189.42,19.191430476190504
1191.63,50.46594190476195
1193.84,63.2475971428572
1196.04,106.77460571428583
1198.24,144.8085247619048
1200.44,149.25414285714294
1202.64,142.73007619047627
1204.84,141.85556190476197
1207.03,102.86832857142862
1209.23,111.29246666666673
1211.42,98.27056666666672
1213.61,99.65977142857149
1215.8,95.31704761904767
1217.99,96.0999047619048
1220.18,79.81769523809528
1222.36,89.89912380952386
1224.55,80.91563333333339
1226.73,84.77189523809528
1228.91,80.75387619047625
1231.09,92.05211428571435
1233.27,94.47631428571435
1235.44,107.83597142857148
1237.62,103.98855714285719
1239.79,96.12463809523815
1241.96,92.67300952380958
1244.13,83.4909666666667
1246.3,67.4835190476191
1248.47,64.69830952380957
1250.64,76.51671904761909
1252.8,84.74834761904769
1254.96,105.91731428571435
1257.13,110.6430476190477
1259.29,138.21161904761914
1261.44,146.48023809523818
1263.6,156.02095238095248
1265.76,152.3575714285715
1267.91,157.82390476190483
1270.06,161.70580952380965
1272.22,180.19414285714294
1274.37,177.19409523809531
1276.51,174.65857142857152
1278.66,175.730761904762
1280.81,176.17285714285723
1282.95,176.46133333333344
1285.09,155.73947619047627
1287.23,164.91257142857157
1289.37,181.60009523809538
1291.51,213.46909523809535
1293.65,217.61509523809536
1295.78,203.6102857142858
1297.92,151.50261904761913
1300.05,142.14980952380964
1302.18,156.9806666666668
1304.31,188.09080952380964
1306.44,205.14757142857155
1308.57,216.0561904761906
1310.69,238.72166666666683
1312.82,281.1450000000002
1314.94,307.8023809523811
1317.06,315.59933333333356
1319.18,325.53638095238114
1321.3,330.1377619047621
1323.41,340.9752857142859
1325.53,365.0971904761907
1327.64,392.7419523809526
1329.75,412.52933333333357
1331.87,439.36457142857165
1333.98,441.057904761905
1336.08,426.5145714285716
1338.19,393.63952380952406
1340.3,403.8621428571431
1342.4,388.5161904761907
1344.5,351.64980952380967
1346.6,302.78747619047635
1348.7,281.5484761904763
1350.8,264.17161904761923
1352.9,262.8956190476192
1354.99,276.1020000000002
1357.09,295.79123809523827
1359.18,323.39266666666686
1361.27,354.6684285714288
1363.36,383.3809523809526
1365.45,367.1495238095241
1367.54,377.6893809523812
1369.62,393.1436190476193
1371.7,430.51309523809556
1373.79,468.7031428571432
1375.87,499.9998095238098
1377.95,504.78442857142886
1380.03,523.867428571429
1382.1,505.201285714286
1384.18,474.78671428571454
1386.25,419.67166666666685
1388.33,373.3327619047621
1390.4,320.0562857142859
1392.47,298.08100000000013
1394.54,261.07395238095256
1396.6,237.36904761904776
1398.67,217.53809523809537
1400.74,201.0574285714287
1402.8,191.689761904762
1404.86,199.19723809523822
1406.92,197.34233333333344
1408.98,206.64938095238108
1411.04,201.64280952380963
1413.09,184.9414761904763
1415.15,175.4510000000001
1417.2,176.55257142857153
1419.25,188.43685714285726
1421.3,219.1044761904763
1423.35,210.41290476190488
1425.4,195.7908095238096
1427.45,196.90580952380967
1429.49,189.42461904761916
1431.54,196.63328571428585
1433.58,197.9130000000001
1435.62,188.88300000000015
1437.66,189.35328571428587
1439.7,219.65757142857157
1441.74,209.41500000000013
1443.77,207.00709523809536
1445.81,198.8622380952382
1447.84,201.7424761904763
1449.87,211.98185714285728
1451.9,225.24685714285727
1453.93,194.29990476190488
1455.96,184.9506190476192
1457.98,197.38947619047633
1460.01,209.85471428571444
1462.03,213.4421904761906
1464.05,222.96104761904778
1466.07,214.0306666666668
1468.09,220.36533333333347
1470.11,204.6318095238096
1472.13,190.6397142857144
1474.14,180.38904761904774
1476.16,186.02266666666677
1478.17,190.0166666666668
1480.18,195.5140476190477
1482.19,164.37200000000007
1484.2,139.25715238095248
1486.21,116.16936666666672
1488.21,98.44210000000004
1490.22,84.6940285714286
1492.22,78.63940952380958
1494.22,80.70669047619053
1496.22,85.41952380952387
1498.22,91.6348971428572
1500.22,70.6383185714286
1502.22,72.28675142857148
1504.21,61.151381428571455
1506.21,47.422446666666694
1508.2,30.24251380952383
1510.19,49.27798285714289
1512.18,46.86185238095243
1514.17,75.99378285714289
1516.16,70.48295666666667
1518.14,46.70992761904763
1520.13,29.53145761904765
1522.11,35.37569904761907
1524.09,36.480266190476215
1526.07,40.89231619047621
1528.05,37.70660952380955
1530.03,34.8274104761905
1532.01,25.444703333333344
1533.98,30.557954285714313
1535.96,32.547582380952406
1537.93,40.65114476190481
1539.9,67.67774142857148
1541.87,92.1504628571429
1543.84,97.7356333333334
1545.81,116.86125714285721
1547.78,126.0505238095239
1549.74,139.63642857142867
1551.7,160.80873333333344
1553.67,149.56685238095247
1555.63,148.33890476190484
1557.59,132.83876190476195
1559.55,112.87544761904769
1561.5,102.06755238095245
1563.46,110.12869523809532
1565.41,113.5821476190477
1567.37,147.4752095238096
1569.32,147.56915238095246
1571.27,157.9112952380953
1573.22,139.4531904761905
1575.17,106.2420333333334
1577.11,122.94376190476198
1579.06,123.93922380952388
1581.0,114.84685714285722
1582.95,136.14250000000007
1584.89,126.96830000000008
1586.83,96.03814285714296
1588.77,115.97023333333341
1590.7,123.9550476190477
1592.64,142.37292857142867
1594.58,181.77102380952354
1596.51,209.36313095238057
1598.44,206.81543333333275
