Raman Shift,Processed Intensity
331.095,45.41873452380906
333.909,-43.20409523809541
336.721,-54.99320238095249
339.531,-20.842928571428544
342.339,20.684921428571467
345.145,46.38685238095238
347.949,23.633666190476177
350.751,-4.249309666666686
353.55,-29.648828833333326
356.348,-17.758829095238095
359.144,-21.961767595238115
361.937,-11.590053857142847
364.729,-8.783411690476175
367.518,26.36796938095247
370.306,124.72878095238111
373.091,263.78482857142876
375.874,390.78580476190507
378.656,468.792961904762
381.435,424.53629523809536
384.212,299.7472714285715
386.988,195.82641809523818
389.761,108.31873285714292
392.532,66.05677533333336
395.301,24.732017714285714
398.068,9.799653047619069
400.833,17.335395619047674
403.596,53.940559714285754
406.358,80.8846448571429
409.117,91.53398152380954
411.874,56.065920952380964
414.629,17.278351904761912
417.382,8.97057523809526
420.133,7.800500476190534
422.882,64.80840380952391
425.629,137.36878047619058
428.374,208.66729238095252
431.117,259.65239047619065
433.858,309.9407142857144
436.597,292.14995238095247
439.334,237.70790476190487
442.069,203.71019047619063
444.802,170.39619047619055
447.533,178.00600000000014
450.262,259.6380952380954
452.989,326.0104761904764
455.714,373.31785714285735
458.438,392.3274761904763
461.159,313.99728571428585
463.878,207.52404761904774
466.595,135.628761904762
469.31,124.31895238095251
472.024,156.22138095238105
474.735,176.3919523809525
477.444,203.1722380952382
480.152,214.19047619047632
482.857,222.64619047619064
485.561,260.3584761904764
488.262,274.05142857142874
490.962,260.40171428571443
493.659,270.94300000000015
496.355,242.16204761904774
499.048,192.35471428571435
501.74,151.34100000000007
504.43,108.36985714285721
507.118,102.26114285714297
509.804,157.21604761904774
512.488,227.578523809524
515.17,284.78771428571446
517.85,322.85400000000016
520.528,302.3119523809525
523.204,250.36195238095252
525.878,199.15742857142868
528.551,185.61323809523822
531.221,167.83466666666678
533.89,169.40271428571438
536.556,182.18469523809534
539.221,129.85643333333337
541.883,105.2370095238096
544.544,115.90666190476196
547.203,106.87426190476197
549.86,95.62461428571434
552.515,130.690080952381
555.168,112.45981904761915
557.819,134.03695714285726
560.469,189.52441904761918
563.116,206.8819904761906
565.761,211.78309523809537
568.405,199.47271428571437
571.047,186.4811904761906
573.687,179.33833333333348
576.324,202.00247619047633
578.96,223.19304761904777
581.594,227.2959047619049
584.227,217.7923333333335
586.857,230.21023809523822
589.485,235.45866666666683
592.112,236.58876190476204
594.737,232.46071428571437
597.359,189.8396380952382
599.98,145.34718571428579
602.599,111.50922857142865
605.216,116.61362380952389
607.831,125.3758476190477
610.445,143.27346666666674
613.056,109.8312761904762
615.666,65.81163333333336
618.274,49.45293333333339
620.88,79.46939523809533
623.484,121.52716190476201
626.086,186.00673333333344
628.686,202.09761904761916
631.284,243.03642857142876
633.881,306.2980000000002
636.476,340.3088571428573
639.068,354.25757142857157
641.659,326.28438095238107
644.249,268.2916190476192
646.836,226.27590476190488
649.421,211.47226666666677
652.005,158.11498095238105
654.587,127.10539047619054
657.166,100.10582857142865
659.745,100.39800000000008
662.321,101.78679047619055
664.895,101.83908571428574
667.468,72.97859523809528
670.038,65.39086666666674
672.607,95.21382380952389
675.174,125.91813333333342
677.739,148.64133809523818
680.303,157.09230476190484
682.864,156.26534190476195
685.424,113.250210952381
687.982,85.80342190476193
690.538,57.96675095238099
693.092,52.972645714285754
695.645,50.95835380952384
698.195,64.29909428571429
700.744,28.179971428571434
703.291,20.738376190476203
705.836,-1.9357428571428588
708.38,8.485542857142887
710.921,32.14014761904767
713.461,65.68982857142862
715.999,74.84390952380959
718.535,113.07405238095244
721.069,136.51842857142867
723.602,138.60119523809533
726.133,153.65159047619056
728.662,159.61771428571436
731.189,144.92409523809536
733.714,179.32857142857154
736.238,213.54161904761915
738.759,179.416761904762
741.279,183.04542857142866
743.798,174.2338095238096
746.314,146.5976857142858
748.829,137.37149047619056
751.342,114.64753333333337
753.853,90.51784285714294
756.362,97.7412476190477
758.869,109.88679523809529
761.375,113.9515714285715
763.879,107.36140476190482
766.381,96.06628571428577
768.882,88.63519047619053
771.38,100.7328352380953
773.877,85.35704714285718
776.372,68.41045142857148
778.866,75.36749571428577
781.357,78.32165619047626
783.847,96.2713900000001
786.335,142.40581619047626
788.821,155.4378380952382
791.306,159.5567476190477
793.789,144.95210476190482
796.27,127.28941904761916
798.749,130.139361904762
801.227,167.45351428571445
803.702,251.08887619047638
806.176,293.6160666666668
808.649,267.2253333333334
811.119,225.9162857142858
813.588,197.92693333333344
816.055,162.59043333333344
818.521,172.9069142857144
820.984,157.82880476190482
823.446,120.59472380952388
825.906,119.25248095238106
828.365,151.3739333333334
830.821,176.15024761904775
833.276,184.34370000000007
835.729,176.09806666666677
838.181,144.9381095238096
840.631,151.76892380952393
843.079,148.82979523809536
845.525,164.02658095238104
847.97,145.07461904761914
850.412,138.21314285714294
852.854,133.77680952380962
855.293,138.62361904761912
857.731,146.5174761904763
860.167,159.983161904762
862.601,137.16530476190482
865.034,131.16056190476198
867.465,125.97074285714294
869.894,111.50180000000009
872.321,140.75597142857154
874.747,169.7346857142858
877.171,170.4395238095239
879.594,172.39647619047628
882.014,176.70261904761918
884.433,189.74052380952395
886.851,214.65547619047635
889.266,219.78276190476203
891.68,220.7429047619049
894.092,213.01480952380962
896.503,220.45733333333345
898.912,232.7868571428573
901.319,226.9580476190477
903.724,210.3061904761906
906.128,193.26180952380963
908.53,169.0657142857144
910.931,186.8626666666668
913.329,212.41695238095252
915.726,223.6354761904763
918.122,237.2823809523811
920.516,229.69304761904775
922.908,207.7748571428573
925.298,221.72000000000014
927.687,235.38795238095253
930.074,241.9238095238097
932.459,236.23480952380964
934.843,202.6088571428572
937.225,167.00040952380962
939.605,132.9353571428572
941.984,95.55867142857149
944.361,76.34874285714288
946.736,57.40303809523813
949.11,52.390395238095294
951.482,73.36022857142864
953.853,95.36235047619053
956.222,69.30346238095241
958.589,72.37615333333339
960.954,86.05849000000006
963.318,91.16187238095245
965.68,112.8784671428572
968.041,126.44850761904766
970.4,89.58786666666674
972.757,98.44145714285722
975.113,116.01079047619055
977.467,109.44030952380957
979.819,106.44571428571435
982.17,97.98140476190481
984.519,98.14400000000009
986.866,106.7447857142858
989.212,156.16576190476204
991.556,216.7417142857144
993.899,244.9029047619049
996.24,278.7460476190478
998.579,288.60547619047634
1000.92,251.0066666666668
1003.25,250.0456190476192
1005.59,232.10466666666676
1007.92,190.66128571428584
1010.25,184.09752380952392
1012.58,178.65228571428582
1014.91,177.56538095238108
1017.24,203.40904761904773
1019.56,217.6127142857144
1021.88,209.2247142857144
1024.2,204.6271904761906
1026.52,206.2495238095239
1028.84,197.14028571428582
1031.16,212.4430952380954
1033.48,211.44452380952393
1035.79,215.76423809523823
1038.1,216.16514285714302
1040.41,234.0285714285716
1042.72,257.49795238095254
1045.03,285.00238095238103
1047.33,274.97128571428584
1049.64,271.1192380952382
1051.94,229.20876190476204
1054.24,223.5260476190478
1056.54,229.64280952380963
1058.84,195.8930476190477
1061.13,190.6579523809525
1063.43,188.5569523809525
1065.72,182.5426666666668
1068.01,216.75819047619063
1070.3,231.44166666666678
1072.59,201.3079047619049
1074.87,212.4043809523811
1077.16,209.16023809523824
1079.44,237.6228095238097
1081.72,309.45890476190493
1084.0,343.52571428571446
1086.28,399.77557142857177
1088.56,490.92261904761943
1090.84,605.8242857142861
1093.11,706.3847619047623
1095.38,742.3182857142862
1097.65,669.0535714285717
1099.92,557.9712380952383
1102.19,449.49957142857176
1104.46,408.11480952380975
1106.72,406.5305238095241
1108.98,426.6510476190479
1111.24,457.19080952380983
1113.5,488.8634761904765
1115.76,537.1921904761908
1118.02,570.7960952380955
1120.28,599.6265714285719
1122.53,611.8738571428573
1124.78,574.8708095238098
1127.03,529.9978095238098
1129.28,509.0157142857146
1131.53,470.25766666666686
1133.77,437.53219047619075
1136.02,379.79138095238113
1138.26,317.0820476190478
1140.5,294.40361904761926
1142.74,312.6598095238097
1144.98,336.754523809524
1147.22,349.06776190476205
1149.45,321.26557142857155
1151.69,267.9184761904763
1153.92,219.45428571428582
1156.15,201.72898095238108
1158.38,166.1700476190477
1160.61,129.49080000000006
1162.83,113.8332428571429
1165.06,79.62481904761908
1167.28,57.959790476190534
1169.5,66.3606904761905
1171.72,44.15976666666669
1173.94,51.40355714285719
1176.16,64.66215714285718
1178.37,80.60101428571433
1180.58,81.83791904761907
1182.8,70.6097142857143
1185.01,27.819921428571448
1187.22,35.18140000000004
1189.42,42.31194047619053
1191.63,51.82922380952385
1193.84,86.63650714285723
1196.04,102.25623333333338
1198.24,101.7347095238096
1200.44,114.68920000000006
1202.64,104.92799047619052
1204.84,93.63997619047628
1207.03,90.72833809523814
1209.23,85.85846666666674
1211.42,87.50511428571434
1213.61,97.47610476190484
1215.8,96.81780952380959
1217.99,102.05244761904767
1220.18,119.08343333333342
1222.36,134.38577619047626
1224.55,128.29133809523816
1226.73,109.41780000000004
1228.91,107.09720476190482
1231.09,67.23305714285719
1233.27,54.34800952380957
1235.44,80.20294761904769
1237.62,110.89185238095246
1239.79,121.08051428571437
1241.96,155.38682380952386
1244.13,131.19104285714292
1246.3,84.34923809523818
1248.47,108.38476666666675
1250.64,127.72510476190484
1252.8,153.03622380952393
1254.96,169.98434285714293
1257.13,160.23557142857155
1259.29,159.1224761904763
1261.44,175.16861904761916
1263.6,200.5639047619049
1265.76,230.92704761904773
1267.91,238.4004761904763
1270.06,212.26976190476202
1272.22,214.86780952380963
1274.37,201.00404761904775
1276.51,221.63085714285728
1278.66,249.55752380952393
1280.81,258.59328571428586
1282.95,243.45252380952394
1285.09,233.8019523809525
1287.23,247.022523809524
1289.37,256.54319047619066
1291.51,286.03052380952397
1293.65,269.9607142857144
1295.78,238.66752380952397
1297.92,213.48461904761922
1300.05,238.888142857143
1302.18,248.11695238095257
1304.31,278.599523809524
1306.44,291.14542857142874
1308.57,303.89871428571445
1310.69,328.43104761904783
1312.82,354.8855714285716
1314.94,348.12014285714304
1317.06,339.4683333333336
1319.18,328.7403333333335
1321.3,334.84195238095265
1323.41,353.96366666666694
1325.53,381.9633333333336
1327.64,449.22266666666707
1329.75,496.2186190476194
1331.87,543.189904761905
1333.98,547.8038571428575
1336.08,519.4420000000002
1338.19,472.24838095238124
1340.3,473.175904761905
1342.4,434.5113809523812
1344.5,420.49338095238113
1346.6,372.5513809523812
1348.7,350.21009523809545
1350.8,312.13738095238114
1352.9,303.71447619047643
1354.99,306.0378095238097
1357.09,321.67961904761927
1359.18,333.54571428571455
1361.27,345.06552380952405
1363.36,355.7164285714288
1365.45,399.45147619047646
1367.54,426.74795238095265
1369.62,451.4640952380955
1371.7,471.5053333333336
1373.79,475.11095238095277
1375.87,507.18657142857177
1377.95,556.9712380952384
1380.03,560.6088571428575
1382.1,529.4816190476193
1384.18,473.1614285714288
1386.25,420.41171428571454
1388.33,369.6618095238098
1390.4,349.19838095238117
1392.47,348.7843809523812
1394.54,324.46857142857164
1396.6,304.0613809523811
1398.67,270.1829523809525
1400.74,235.69119047619063
1402.8,226.9203809523811
1404.86,223.63357142857157
1406.92,247.022142857143
1408.98,251.5634761904763
1411.04,229.68676190476202
1413.09,232.67871428571442
1415.15,227.34980952380968
1417.2,210.27247619047637
1419.25,252.11409523809542
1421.3,252.3518095238097
1423.35,236.9863809523811
1425.4,235.5904285714287
1427.45,231.54576190476206
1429.49,221.23395238095253
1431.54,238.22742857142873
1433.58,243.00309523809534
1435.62,221.32338095238106
1437.66,200.8559047619049
1439.7,193.98242857142867
1441.74,204.22728571428587
1443.77,212.78180952380967
1445.81,203.2179523809525
1447.84,213.4886666666668
1449.87,235.2139047619049
1451.9,241.06100000000015
1453.93,264.6970000000001
1455.96,263.1223809523811
1457.98,242.81385714285727
1460.01,237.96242857142875
1462.03,247.18771428571446
1464.05,253.87100000000018
1466.07,276.6314761904764
1468.09,306.94566666666685
1470.11,323.1000476190478
1472.13,302.09466666666685
1474.14,280.8822380952382
1476.16,274.32033333333345
1478.17,253.64695238095254
1480.18,232.52880952380963
1482.19,190.44261904761916
1484.2,151.4355238095239
1486.21,137.41261904761916
1488.21,151.85029047619054
1490.22,118.12908809523813
1492.22,104.29670952380958
1494.22,73.01961190476194
1496.22,66.39261428571434
1498.22,74.5586747619048
1500.22,70.18421285714287
1502.22,41.98304952380956
1504.21,47.90739190476193
1506.21,34.051930476190506
1508.2,55.55910809523814
1510.19,69.57132952380955
1512.18,53.70714761904765
1514.17,50.82318095238097
1516.16,35.87120000000002
1518.14,39.8983190476191
1520.13,55.85627619047622
1522.11,61.315871428571455
1524.09,46.94315714285716
1526.07,38.02322380952382
1528.05,18.17445238095241
1530.03,28.824861904761928
1532.01,41.021387619047644
1533.98,35.33480666666667
1535.96,29.716899047619073
1537.93,35.928960000000025
1539.9,42.065618095238136
1541.87,51.126340000000035
1543.84,65.53912571428573
1545.81,54.684390476190515
1547.78,51.89496666666671
1549.74,72.6942571428572
1551.7,98.46250476190482
1553.67,117.3897952380953
1555.63,142.28519523809533
1557.59,139.8151571428572
1559.55,127.55071904761911
1561.5,101.34866190476195
1563.46,94.54178571428577
1565.41,94.89149047619054
1567.37,108.4926571428572
1569.32,100.4880047619048
1571.27,100.01997619047624
1573.22,77.85016666666672
1575.17,94.78802380952389
1577.11,116.07109047619055
1579.06,113.6993571428572
1581.0,111.52949523809531
1582.95,117.60906190476197
1584.89,116.79497142857151
1586.83,128.80117619047627
1588.77,126.05610476190483
1590.7,128.74990476190484
1592.64,138.4538095238096
1594.58,150.57259523809523
1596.51,146.01080952380948
1598.44,111.76828571428555
