Raman Shift,Processed Intensity
331.095,9.146589833333174
333.909,-60.74945342857142
336.721,-63.30469114285699
339.531,-24.74255780952378
342.339,28.83185714285718
345.145,62.147790476190494
347.949,35.05615238095235
350.751,-1.3996666666666773
353.55,-17.793349047619046
356.348,-14.88701928571427
359.144,10.654428095238107
361.937,11.691921666666664
364.729,9.040799523809572
367.518,41.184890238095335
370.306,125.60954619047635
373.091,275.23102857142885
375.874,440.7289238095241
378.656,503.2611904761907
381.435,465.89166666666677
384.212,337.11500000000007
386.988,197.47461904761914
389.761,109.08728571428578
392.532,94.21376190476198
395.301,86.4504952380953
398.068,78.48978095238101
400.833,91.6929314285715
403.596,82.94611714285716
406.358,62.85107714285717
409.117,19.296659047619038
411.874,2.1737057142857434
414.629,23.94529333333338
417.382,43.64739809523813
420.133,53.602900000000076
422.882,114.37427142857152
425.629,162.04889523809538
428.374,255.0013285714288
431.117,364.65454285714304
433.858,383.5276190476192
436.597,366.8074285714287
439.334,319.63404761904775
442.069,243.3389047619049
444.802,200.39761904761917
447.533,188.38152380952397
450.262,240.7674761904764
452.989,311.22361904761925
455.714,353.3706666666668
458.438,340.9252857142859
461.159,292.79569523809533
463.878,176.1760761904763
466.595,116.26148571428578
469.31,85.2946857142858
472.024,111.80443809523821
474.735,146.74879047619058
477.444,199.46688571428584
480.152,220.2510952380954
482.857,229.44138095238108
485.561,235.8065714285716
488.262,254.30590476190494
490.962,226.661142857143
493.659,249.97490476190492
496.355,250.54113333333345
499.048,208.3676571428572
501.74,171.51026666666672
504.43,135.59591428571434
507.118,109.48998095238107
509.804,145.86751428571438
512.488,181.26056190476203
515.17,236.34447619047634
517.85,267.7463809523811
520.528,250.14128571428586
523.204,226.72814285714298
525.878,197.99157142857155
528.551,159.2252238095239
531.221,145.96140952380958
533.89,114.5889428571429
536.556,85.06826666666673
539.221,81.216761904762
541.883,109.75685714285721
544.544,128.41038571428578
547.203,149.23262857142865
549.86,110.37370476190478
552.515,100.46011428571435
555.168,82.83209523809529
557.819,89.63967619047628
560.469,124.5564761904763
563.116,166.20824761904768
565.761,137.41083809523818
568.405,150.8375333333334
571.047,130.8275476190477
573.687,106.14862857142863
576.324,103.09245238095247
578.96,117.90230476190484
581.594,124.53577619047628
584.227,147.95040000000006
586.857,141.72210000000007
589.485,123.99839047619055
592.112,115.21199523809533
594.737,138.89025714285722
597.359,149.4180190476191
599.98,125.98920000000004
602.599,83.8924571428572
605.216,77.27375238095243
607.831,74.37333809523817
610.445,103.57422380952387
613.056,96.25944761904765
615.666,67.71627619047624
618.274,52.946261904761954
620.88,82.90260000000009
623.484,116.82420952380964
626.086,169.09250000000011
628.686,202.27892380952397
631.284,229.14528571428582
633.881,227.88204761904774
636.476,239.25009523809538
639.068,218.01066666666676
641.659,180.40052380952392
644.249,162.65595238095244
646.836,152.48980952380958
649.421,123.23341428571436
652.005,106.455980952381
654.587,77.53605714285717
657.166,49.28050000000005
659.745,61.4005333333334
662.321,78.94118571428575
664.895,88.9466666666667
667.468,75.46132380952385
670.038,63.291180952381005
672.607,74.95625238095245
675.174,92.30997619047625
677.739,111.30106190476197
680.303,121.92544761904766
682.864,101.60773619047622
685.424,67.62953142857145
687.982,30.70087714285715
690.538,10.293949523809545
693.092,-4.738239523809515
695.645,21.171605714285757
698.195,39.78125333333335
700.744,50.89615333333336
703.291,30.84562095238096
705.836,18.530400952380948
708.38,-4.577204285714263
710.921,24.566593333333365
713.461,44.33887142857146
715.999,58.116880952380974
718.535,51.70641904761908
721.069,53.056219047619095
723.602,73.97230000000008
726.133,97.7843571428572
728.662,112.58415238095243
731.189,103.51110476190482
733.714,102.03806190476197
736.238,93.63788095238101
738.759,101.30727142857151
741.279,108.09059523809529
743.798,100.889480952381
746.314,102.08164285714295
748.829,141.04533809523818
751.342,135.82494571428578
753.853,102.51272428571431
756.362,79.77251523809528
758.869,56.83964714285719
761.375,41.75894857142862
763.879,81.33766238095244
766.381,83.47769809523813
768.882,50.74807142857147
771.38,69.71776000000006
773.877,76.0512085714286
776.372,46.88907571428575
778.866,51.37217523809526
781.357,37.879369047619065
783.847,19.98023333333339
786.335,64.52981095238101
788.821,120.90774190476198
791.306,114.82654333333338
793.789,104.76091523809528
796.27,88.47137095238098
798.749,63.38532476190483
801.227,92.35842428571439
803.702,167.1042504761906
806.176,206.81208571428584
808.649,208.14804761904773
811.119,191.87319047619056
813.588,181.7013238095239
816.055,153.9651190476191
818.521,125.80703809523816
820.984,120.08406190476195
823.446,84.93895714285719
825.906,73.84752857142864
828.365,98.04810952380959
830.821,121.63599047619056
833.276,130.27786190476198
835.729,134.73600952380957
838.181,103.10586190476194
840.631,88.34038095238101
843.079,95.29732857142866
845.525,109.26290000000006
847.97,120.61875714285722
850.412,108.69886190476194
852.854,95.7895714285715
855.293,85.51124285714292
857.731,105.53123809523817
860.167,110.80307619047625
862.601,95.9470666666667
865.034,74.24998095238101
867.465,86.18900000000005
869.894,81.33702857142866
872.321,117.1712857142858
874.747,153.93131428571436
877.171,153.3330476190477
879.594,150.09219047619058
882.014,164.73409523809534
884.433,152.26033333333345
886.851,182.43428571428586
889.266,230.35304761904777
891.68,242.1134285714287
894.092,269.1455714285716
896.503,264.49895238095246
898.912,226.88966666666676
901.319,208.79595238095249
903.724,199.31509523809532
906.128,180.0197142857144
908.53,184.00738095238106
910.931,206.13688571428582
913.329,194.8864571428572
915.726,190.067961904762
918.122,180.82578095238102
920.516,192.73340952380966
922.908,161.0787380952382
925.298,160.33992380952387
927.687,141.37600476190485
930.074,145.61765714285724
932.459,144.7333761904763
934.843,162.8206666666667
937.225,120.45288571428576
939.605,100.77531428571434
941.984,73.31338095238098
944.361,45.64043809523813
946.736,49.90162857142862
949.11,63.62239047619051
951.482,49.995319047619084
953.853,69.59389523809524
956.222,47.372276190476214
958.589,38.95135238095243
960.954,61.80932380952386
963.318,82.75744761904768
965.68,105.70204285714293
968.041,118.45423809523815
970.4,106.30131904761912
972.757,106.86371428571434
975.113,105.52398571428579
977.467,98.56947619047627
979.819,97.3822428571429
982.17,84.6304952380953
984.519,93.79126666666676
986.866,134.24694285714298
989.212,188.33184761904775
991.556,263.57085714285734
993.899,306.86995238095255
996.24,323.1828571428573
998.579,315.3193333333334
1000.92,268.9474761904763
1003.25,242.7343333333335
1005.59,226.25223809523825
1007.92,186.83561904761916
1010.25,175.1042380952382
1012.58,152.0582857142858
1014.91,144.26990476190488
1017.24,165.40642857142868
1019.56,172.51614285714297
1021.88,160.55195238095246
1024.2,153.8953333333334
1026.52,136.97490476190487
1028.84,161.17219047619056
1031.16,166.439761904762
1033.48,185.5400000000001
1035.79,194.28266666666678
1038.1,186.76304761904777
1040.41,202.1240952380954
1042.72,229.46152380952392
1045.03,253.72761904761916
1047.33,245.92247619047632
1049.64,222.52238095238104
1051.94,181.90804761904775
1054.24,195.22261904761922
1056.54,223.41833333333352
1058.84,261.97142857142876
1061.13,277.11947619047635
1063.43,267.8623333333335
1065.72,259.485523809524
1068.01,274.22719047619063
1070.3,287.80123809523826
1072.59,287.3027142857145
1074.87,314.4456666666669
1077.16,318.2773809523812
1079.44,351.7970952380955
1081.72,386.38580952380977
1084.0,402.5668571428575
1086.28,452.19666666666706
1088.56,563.7512857142862
1090.84,709.9445238095243
1093.11,845.9184761904767
1095.38,875.7681428571433
1097.65,802.6833809523813
1099.92,687.996666666667
1102.19,558.1839047619051
1104.46,488.9588571428575
1106.72,473.41623809523844
1108.98,448.31695238095267
1111.24,479.6129047619051
1113.5,553.4462857142861
1115.76,602.7687619047623
1118.02,677.1511428571433
1120.28,731.7830952380956
1122.53,709.2352857142861
1124.78,671.126285714286
1127.03,590.5503333333337
1129.28,497.3161904761907
1131.53,445.1850476190478
1133.77,395.15595238095256
1136.02,341.6569523809526
1138.26,314.9730476190478
1140.5,293.53190476190497
1142.74,300.4754285714288
1144.98,317.4694285714288
1147.22,318.60838095238114
1149.45,300.32009523809535
1151.69,281.46066666666684
1153.92,249.9819047619049
1156.15,214.59710476190486
1158.38,166.7815333333334
1160.61,134.34387619047627
1162.83,105.37868571428578
1165.06,90.98009523809527
1167.28,57.76646666666669
1169.5,47.927565714285734
1171.72,22.557603809523826
1173.94,16.512688571428583
1176.16,28.173120952380977
1178.37,31.776125238095258
1180.58,27.5589104761905
1182.8,32.42548047619048
1185.01,13.327410476190481
1187.22,8.216325238095258
1189.42,10.186778095238104
1191.63,21.90458380952385
1193.84,57.98807523809529
1196.04,88.57970857142863
1198.24,107.3931333333334
1200.44,99.76114761904765
1202.64,73.73080000000004
1204.84,64.11093333333338
1207.03,49.6629285714286
1209.23,58.148580952380996
1211.42,71.7577666666667
1213.61,55.06150952380956
1215.8,73.15489047619053
1217.99,73.8469666666667
1220.18,69.04218095238102
1222.36,86.74056666666672
1224.55,90.9894190476191
1226.73,83.50286666666672
1228.91,85.90005714285718
1231.09,62.22831428571431
1233.27,65.67824761904765
1235.44,71.44026666666672
1237.62,78.60966190476196
1239.79,73.42459523809526
1241.96,72.59950380952384
1244.13,40.80122761904764
1246.3,36.74444095238099
1248.47,49.23881047619053
1250.64,74.09407428571434
1252.8,92.0250133333334
1254.96,120.41296285714292
1257.13,91.78216380952384
1259.29,53.75212761904764
1261.44,42.085264761904796
1263.6,55.400899047619106
1265.76,77.9855971428572
1267.91,81.93508285714289
1270.06,97.01196190476196
1272.22,90.26420000000007
1274.37,123.21640952380963
1276.51,152.86903809523818
1278.66,169.36593333333337
1280.81,133.13627619047625
1282.95,119.70460000000007
1285.09,86.2617714285715
1287.23,116.52326666666679
1289.37,147.2513238095239
1291.51,168.9232761904763
1293.65,175.9682857142858
1295.78,165.19661904761912
1297.92,139.75214285714296
1300.05,126.87392857142865
1302.18,135.51476190476197
1304.31,127.24716666666676
1306.44,154.64328571428584
1308.57,166.18035714285725
1310.69,196.62123809523825
1312.82,203.06200000000013
1314.94,225.59847619047633
1317.06,212.37447619047632
1319.18,228.7722380952382
1321.3,206.60209523809536
1323.41,197.7696666666668
1325.53,207.89500000000015
1327.64,248.21690476190497
1329.75,284.5934761904764
1331.87,357.07352380952403
1333.98,382.6100952380955
1336.08,365.3471428571431
1338.19,330.8095714285716
1340.3,301.1410000000002
1342.4,273.43752380952395
1344.5,256.46209523809534
1346.6,245.6917142857144
1348.7,232.5083333333335
1350.8,211.43714285714302
1352.9,212.5738571428573
1354.99,228.8240952380954
1357.09,250.7130000000002
1359.18,273.47928571428594
1361.27,289.5047619047621
1363.36,318.02861904761926
1365.45,338.0514285714288
1367.54,358.24095238095265
1369.62,402.50314285714313
1371.7,407.50519047619076
1373.79,426.7719047619051
1375.87,473.97057142857176
1377.95,471.3876666666669
1380.03,457.071904761905
1382.1,420.5001428571431
1384.18,377.7685714285717
1386.25,358.2114285714288
1388.33,352.1626666666669
1390.4,311.5752857142858
1392.47,280.40238095238107
1394.54,235.93033333333346
1396.6,220.58852380952396
1398.67,190.28252380952392
1400.74,173.63214285714298
1402.8,166.7807142857144
1404.86,165.25261904761916
1406.92,187.9054285714287
1408.98,189.26371428571437
1411.04,173.18514285714295
1413.09,161.9084761904763
1415.15,169.7674761904763
1417.2,148.4770000000001
1419.25,147.41823809523817
1421.3,151.4968476190477
1423.35,140.04601428571436
1425.4,139.35207619047628
1427.45,152.79608095238103
1429.49,147.28350476190485
1431.54,142.19541428571435
1433.58,137.8180095238096
1435.62,122.62751428571435
1437.66,116.243361904762
1439.7,135.66537142857152
1441.74,156.65582857142869
1443.77,160.2622571428572
1445.81,131.1515238095239
1447.84,139.3714761904763
1449.87,149.87438095238107
1451.9,177.0890000000001
1453.93,197.34828571428582
1455.96,194.22357142857152
1457.98,175.52423809523822
1460.01,183.631142857143
1462.03,194.06790476190488
1464.05,202.54861904761918
1466.07,206.35857142857154
1468.09,195.5450952380953
1470.11,179.2030476190477
1472.13,169.4746666666668
1474.14,164.88380952380965
1476.16,176.4769523809525
1478.17,177.92070476190483
1480.18,152.2143285714286
1482.19,117.21434761904769
1484.2,94.91986666666672
1486.21,66.7590047619048
1488.21,71.11162380952385
1490.22,55.691490476190495
1492.22,52.49756666666671
1494.22,57.33848285714289
1496.22,57.689440000000026
1498.22,38.78752761904764
1500.22,33.06022666666667
1502.22,11.22071333333335
1504.21,5.791625714285726
1506.21,24.295611428571448
1508.2,20.874319047619053
1510.19,23.09798190476192
1512.18,23.01295571428572
1514.17,17.760890000000003
1516.16,1.8644109523809647
1518.14,18.893718571428582
1520.13,9.704817619047638
1522.11,29.58208904761909
1524.09,56.619923809523854
1526.07,79.67410952380958
1528.05,92.21974285714289
1530.03,80.25567857142859
1532.01,50.01894761904764
1533.98,29.41308333333336
1535.96,39.48512857142862
1537.93,55.66220238095242
1539.9,74.6576285714286
1541.87,69.04186190476194
1543.84,58.09962380952384
1545.81,69.11563809523817
1547.78,84.99389047619053
1549.74,103.44779047619055
1551.7,122.38087619047626
1553.67,111.69726190476196
1555.63,112.68175238095249
1557.59,125.66679047619054
1559.55,100.74680476190483
1561.5,102.8735714285715
1563.46,100.37924761904767
1565.41,96.88231904761913
1567.37,119.33425714285721
1569.32,125.92500000000008
1571.27,131.89173809523817
1573.22,125.71016666666674
1575.17,102.23682857142863
1577.11,109.80406190476198
1579.06,107.98268571428578
1581.0,121.81965238095248
1582.95,142.26686666666674
1584.89,129.94266666666672
1586.83,124.32300000000008
1588.77,119.69252380952388
1590.7,131.4792380952382
1592.64,151.06361904761914
1594.58,162.35009523809532
1596.51,162.5285952380953
1598.44,145.93195238095242
