Raman Shift,Processed Intensity
331.095,16.851768095238313
333.909,31.98284666666677
336.721,18.778896666666753
339.531,-3.489015238095241
342.339,2.8779866666666827
345.145,22.38936238095241
347.949,31.985999047619043
350.751,-10.389014761904795
353.55,-28.552202857142873
356.348,-29.984404761904763
359.144,-45.640209523809524
361.937,0.5282095238095401
364.729,8.475976190476219
367.518,51.97001428571444
370.306,167.77986666666686
373.091,349.2961619047622
375.874,460.86443809523837
378.656,511.0227714285716
381.435,412.54957142857154
384.212,282.7010666666667
386.988,141.3073428571429
389.761,73.91438571428579
392.532,68.35599047619054
395.301,69.13443809523814
398.068,55.37277142857147
400.833,66.29073714285718
403.596,56.53852285714288
406.358,37.72016476190478
409.117,28.965005714285716
411.874,8.07062666666667
414.629,7.264432380952414
417.382,28.346718095238124
420.133,47.78563333333339
422.882,76.43167619047627
425.629,118.80304761904775
428.374,200.32378095238113
431.117,315.0857428571431
433.858,384.1817619047621
436.597,358.0390476190478
439.334,280.2288571428573
442.069,215.13228571428587
444.802,173.1790476190478
447.533,186.99023809523825
450.262,247.14000000000016
452.989,270.4411904761906
455.714,317.56457142857164
458.438,342.8004761904764
461.159,304.0111523809526
463.878,206.8691285714287
466.595,145.52354285714296
469.31,101.26668095238105
472.024,107.53397142857152
474.735,138.285461904762
477.444,172.67124761904773
480.152,181.69976190476203
482.857,198.23661904761914
485.561,210.7190000000001
488.262,209.48900000000012
490.962,211.60333333333347
493.659,225.40442857142872
496.355,222.473142857143
499.048,196.9141714285715
501.74,153.21312380952386
504.43,108.42720000000006
507.118,95.18497142857154
509.804,146.25820000000013
512.488,213.79902857142875
515.17,275.8169809523811
517.85,290.51233333333346
520.528,262.6088285714287
523.204,196.4492095238096
525.878,147.7569523809525
528.551,105.5888095238096
531.221,88.14421428571436
533.89,65.67032380952385
536.556,73.41385771428575
539.221,50.859584857142885
541.883,51.20620780952384
544.544,36.79538371428574
547.203,55.34917447619052
549.86,52.35168485714291
552.515,86.76280057142864
555.168,92.82772857142864
557.819,121.6965238095239
560.469,132.9474238095239
563.116,157.01525714285725
565.761,186.19216190476203
568.405,187.15054285714294
571.047,157.7053714285715
573.687,169.81454285714295
576.324,139.34024285714293
578.96,129.52502857142866
581.594,115.27829523809527
584.227,101.84199047619055
586.857,92.2675714285715
589.485,111.98689523809529
592.112,106.28884285714292
594.737,121.12808571428577
597.359,107.36453333333341
599.98,109.90474761904768
602.599,88.56001428571432
605.216,104.47462380952388
607.831,93.50676190476196
610.445,121.46631904761914
613.056,129.40161428571432
615.666,107.6934952380953
618.274,77.2942095238096
620.88,105.06016190476197
623.484,91.08566190476199
626.086,130.41717142857152
628.686,173.14827619047634
631.284,201.41995238095254
633.881,233.8968571428573
636.476,274.9097619047621
639.068,258.59885714285724
641.659,218.4852857142858
644.249,194.32752380952388
646.836,165.4076380952382
649.421,128.81716190476197
652.005,129.07620000000009
654.587,110.46607142857147
657.166,91.93521904761913
659.745,111.95508095238104
662.321,115.1400952380953
664.895,90.15218095238099
667.468,56.272300000000016
670.038,51.68590952380959
672.607,86.00685238095247
675.174,111.65845238095243
677.739,118.635880952381
680.303,121.69566190476192
682.864,70.97549714285717
685.424,44.660687619047636
687.982,31.698251428571425
690.538,-2.297649523809514
693.092,5.525254285714314
695.645,19.114297619047626
698.195,36.51236000000003
700.744,27.66717571428572
703.291,22.33617238095239
705.836,11.419737619047627
708.38,2.9613328571428577
710.921,3.195045714285749
713.461,40.259893809523845
715.999,47.48555523809527
718.535,74.53520619047623
721.069,72.07219428571432
723.602,68.56957142857148
726.133,79.21480000000005
728.662,96.05253809523815
731.189,95.27059047619053
733.714,117.34251428571436
736.238,114.36095238095247
738.759,130.56201904761912
741.279,128.51471428571435
743.798,115.45498095238102
746.314,89.90473809523814
748.829,99.7190190476191
751.342,90.03896190476195
753.853,104.76818857142862
756.362,90.71428380952383
758.869,60.78066285714289
761.375,40.96598761904766
763.879,46.17366285714289
766.381,43.06939809523813
768.882,55.12856000000002
771.38,46.588114285714305
773.877,35.780680952380976
776.372,41.038861904761944
778.866,56.219180952380995
781.357,59.74967142857145
783.847,54.24899523809526
786.335,40.002452380952406
788.821,49.248085714285764
791.306,71.27123333333338
793.789,75.92897619047622
796.27,77.50680476190482
798.749,78.624180952381
801.227,85.23349047619057
803.702,122.95432380952388
806.176,150.40562857142862
808.649,137.73068095238102
811.119,112.40592857142862
813.588,94.52744285714292
816.055,62.61948095238099
818.521,80.0161095238096
820.984,95.7655190476191
823.446,98.58285238095245
825.906,102.08777142857149
828.365,118.99572857142863
830.821,104.54558571428579
833.276,106.59539047619053
835.729,90.52721904761907
838.181,59.485004761904804
840.631,75.04099047619054
843.079,87.48252380952387
845.525,93.14392380952386
847.97,85.74077619047621
850.412,70.79819047619051
852.854,48.79366190476195
855.293,57.53797142857146
857.731,56.461228571428606
860.167,50.56481428571432
862.601,50.516828571428604
865.034,48.84254761904766
867.465,62.40070476190481
869.894,76.04997619047626
872.321,108.74433333333342
874.747,121.38990000000007
877.171,134.13127619047626
879.594,119.49371428571436
882.014,113.14566666666673
884.433,126.75542857142865
886.851,139.75338095238104
889.266,165.18857142857155
891.68,204.3484761904763
894.092,217.85357142857154
896.503,227.89623809523826
898.912,215.43066666666675
901.319,168.74414285714295
903.724,150.60019047619056
906.128,154.76220952380962
908.53,154.422461904762
910.931,143.53512380952387
913.329,134.6257476190477
915.726,138.93385714285725
918.122,138.0324523809525
920.516,177.3516761904763
922.908,184.98841904761912
925.298,149.8490000000001
927.687,148.8872857142858
930.074,156.10479047619057
932.459,140.50313809523817
934.843,143.9410000000001
937.225,122.51498095238098
939.605,83.13121428571435
941.984,78.41017142857149
944.361,76.63873809523814
946.736,86.38966190476195
949.11,78.47380952380955
951.482,73.94003619047622
953.853,53.31332190476192
956.222,29.690177142857156
958.589,24.45265904761909
960.954,40.22057238095242
963.318,61.042745714285786
965.68,96.96759333333338
968.041,93.28171904761908
970.4,66.93827619047623
972.757,78.84321428571434
975.113,87.61588095238102
977.467,99.5428095238096
979.819,109.71995714285721
982.17,116.76661428571435
984.519,102.63587619047627
986.866,113.23305238095247
989.212,128.84408571428582
991.556,149.56477142857153
993.899,191.58602857142873
996.24,237.95560000000015
998.579,259.7691904761906
1000.92,255.5979047619049
1003.25,227.15647619047635
1005.59,209.0163809523811
1007.92,199.79666666666677
1010.25,167.59285714285724
1012.58,180.83366666666677
1014.91,175.51876190476202
1017.24,151.6004761904763
1019.56,166.4119523809525
1021.88,159.6673333333334
1024.2,149.55709523809537
1026.52,181.8429523809525
1028.84,185.47719047619057
1031.16,169.69723809523822
1033.48,175.78861904761916
1035.79,187.41761904761918
1038.1,211.10785714285726
1040.41,230.33504761904774
1042.72,236.57480952380968
1045.03,228.68400000000014
1047.33,210.37652380952395
1049.64,231.22319047619064
1051.94,257.6998095238097
1054.24,293.13919047619066
1056.54,301.7782857142859
1058.84,277.5218571428573
1061.13,250.08366666666683
1063.43,248.31995238095254
1065.72,265.03985714285733
1068.01,272.2428095238097
1070.3,274.07052380952393
1072.59,255.5228095238097
1074.87,272.5987619047621
1077.16,314.2974285714288
1079.44,362.14219047619065
1081.72,378.6563333333336
1084.0,435.1242380952384
1086.28,479.3552380952384
1088.56,576.1578095238099
1090.84,708.3883809523815
1093.11,809.5223809523815
1095.38,839.4164761904766
1097.65,782.3075238095242
1099.92,653.195047619048
1102.19,513.8400952380956
1104.46,458.57519047619076
1106.72,447.39928571428595
1108.98,475.12128571428605
1111.24,532.6451428571431
1113.5,600.3035238095242
1115.76,655.3337142857147
1118.02,706.6873809523814
1120.28,734.3161904761909
1122.53,718.8858095238098
1124.78,711.7289523809528
1127.03,668.1304761904764
1129.28,595.5180952380955
1131.53,523.9863333333336
1133.77,456.6777142857145
1136.02,401.11514285714304
1138.26,369.7261904761907
1140.5,344.3199523809526
1142.74,342.5144761904764
1144.98,370.642523809524
1147.22,341.51319047619063
1149.45,333.55447619047635
1151.69,300.24157142857155
1153.92,256.1934285714287
1156.15,239.69490476190487
1158.38,216.55490476190485
1160.61,173.1539523809525
1162.83,170.92012857142868
1165.06,128.66219761904767
1167.28,88.99882380952387
1169.5,58.310540476190496
1171.72,42.88250000000004
1173.94,47.0478966666667
1176.16,47.806372857142875
1178.37,38.443140952380986
1180.58,48.196017619047645
1182.8,52.493264761904804
1185.01,63.95363952380955
1187.22,64.4340323809524
1189.42,50.64852380952385
1191.63,53.73976666666671
1193.84,60.13613809523814
1196.04,85.45672857142864
1198.24,98.79652380952388
1200.44,93.29834285714291
1202.64,105.96224285714293
1204.84,125.26458571428579
1207.03,102.63384523809529
1209.23,97.07034761904765
1211.42,58.57417380952383
1213.61,41.66934761904767
1215.8,53.68973571428577
1217.99,78.96917142857146
1220.18,68.36509047619052
1222.36,73.8780666666667
1224.55,62.31821428571433
1226.73,59.25745714285717
1228.91,70.649080952381
1231.09,72.7793666666667
1233.27,61.4109428571429
1235.44,75.21148571428577
1237.62,90.7055047619048
1239.79,79.9890952380953
1241.96,91.15856380952384
1244.13,65.35762095238097
1246.3,39.20633714285718
1248.47,46.5631028571429
1250.64,59.809760952381
1252.8,62.42357333333338
1254.96,76.97711142857145
1257.13,65.85248571428575
1259.29,53.38414761904767
1261.44,74.19238095238103
1263.6,113.65928095238104
1265.76,138.59565714285722
1267.91,144.1931476190477
1270.06,138.16722857142864
1272.22,113.70951428571439
1274.37,138.7261142857144
1276.51,170.21834285714294
1278.66,191.52096190476198
1280.81,166.96833333333342
1282.95,149.51408571428578
1285.09,111.58794285714293
1287.23,124.57202857142866
1289.37,130.99143809523818
1291.51,147.37145714285725
1293.65,156.76082285714295
1295.78,125.97012285714288
1297.92,92.95297904761912
1300.05,109.56735333333341
1302.18,110.00498380952388
1304.31,134.21947523809536
1306.44,155.78344666666675
1308.57,131.31700952380962
1310.69,140.01148095238105
1312.82,168.53440952380964
1314.94,187.22028571428586
1317.06,213.78438095238107
1319.18,231.89428571428584
1321.3,226.55104761904772
1323.41,203.80266666666677
1325.53,205.55509523809536
1327.64,237.1422857142859
1329.75,279.3273333333335
1331.87,333.0632857142858
1333.98,340.6842380952382
1336.08,308.1907142857144
1338.19,287.72657142857156
1340.3,264.2921904761906
1342.4,232.12657142857157
1344.5,232.706761904762
1346.6,194.89014285714296
1348.7,198.96328571428583
1350.8,201.54571428571438
1352.9,204.25685714285729
1354.99,203.4784285714287
1357.09,227.21109523809537
1359.18,241.59780952380973
1361.27,277.6870476190478
1363.36,303.86004761904786
1365.45,350.2599523809526
1367.54,381.12552380952405
1369.62,384.98080952380974
1371.7,371.39771428571447
1373.79,366.70990476190497
1375.87,381.53666666666686
1377.95,437.0212380952384
1380.03,465.30680952380976
1382.1,452.488523809524
1384.18,394.757523809524
1386.25,366.68509523809536
1388.33,306.17623809523826
1390.4,245.04080952380963
1392.47,205.8029523809525
1394.54,161.2720000000001
1396.6,162.35309523809536
1398.67,190.61766666666676
1400.74,188.30385714285723
1402.8,172.74490476190488
1404.86,166.94109523809533
1406.92,155.1302380952382
1408.98,154.6932857142858
1411.04,175.24957142857153
1413.09,191.56071428571443
1415.15,188.00776190476202
1417.2,153.4002857142858
1419.25,158.4522380952382
1421.3,146.1635238095239
1423.35,151.86719047619056
1425.4,159.75332380952386
1427.45,143.2983190476191
1429.49,89.59728571428577
1431.54,93.79278571428578
1433.58,94.59886666666671
1435.62,105.58671904761913
1437.66,129.0892000000001
1439.7,141.53482857142865
1441.74,122.35176190476199
1443.77,134.68233333333345
1445.81,133.62161904761916
1447.84,150.8834761904763
1449.87,172.32480952380962
1451.9,178.94509523809532
1453.93,183.60085714285725
1455.96,178.19661904761915
1457.98,151.58909523809533
1460.01,150.92057142857155
1462.03,165.66700000000012
1464.05,171.82747619047632
1466.07,199.35380952380964
1468.09,219.1503809523811
1470.11,216.6929047619049
1472.13,209.4095238095239
1474.14,177.44223809523817
1476.16,169.93328571428586
1478.17,175.6913238095239
1480.18,174.4777476190477
1482.19,153.43502380952387
1484.2,128.60993809523814
1486.21,80.33507619047624
1488.21,83.08602857142861
1490.22,82.57608095238098
1492.22,67.3760666666667
1494.22,50.77092380952385
1496.22,57.997909523809554
1498.22,48.818152380952405
1500.22,33.61182380952383
1502.22,42.04458571428576
1504.21,63.35394285714291
1506.21,70.7769571428572
1508.2,93.7413447619048
1510.19,82.9128423809524
1512.18,37.195325238095265
1514.17,23.01627666666669
1516.16,35.23220619047622
1518.14,32.889547142857175
1520.13,57.13023761904765
1522.11,56.04852857142859
1524.09,47.54821428571431
1526.07,30.152085714285725
1528.05,14.383033333333337
1530.03,14.811510476190499
1532.01,18.341348571428586
1533.98,27.78118285714289
1535.96,34.9396561904762
1537.93,25.720692380952407
1539.9,45.218615238095296
1541.87,68.8136485714286
1543.84,75.07640476190481
1545.81,79.72045714285717
1547.78,66.55446190476195
1549.74,70.86341428571436
1551.7,115.97993809523818
1553.67,128.33209047619056
1555.63,151.72863809523818
1557.59,148.31170476190485
1559.55,126.31856666666673
1561.5,102.2724047619048
1563.46,90.41103333333338
1565.41,72.54311904761911
1567.37,94.33485238095246
1569.32,109.02368095238101
1571.27,120.56145714285722
1573.22,108.85256190476196
1575.17,104.99202857142865
1577.11,111.83586666666673
1579.06,115.00298095238102
1581.0,129.11184761904772
1582.95,149.35245714285722
1584.89,135.20056190476197
1586.83,127.89402857142866
1588.77,134.76558095238104
1590.7,141.95769523809534
1592.64,158.9463238095239
1594.58,179.30234761904757
1596.51,185.35873333333325
1598.44,165.28174761904745
