Raman Shift,Processed Intensity
331.095,-24.434340476190517
333.909,-31.112142857142857
336.721,-35.045671428571424
339.531,-36.1325761904762
342.339,-32.41426571428574
345.145,-32.62138952380952
347.949,-13.623979047619073
350.751,-25.33710476190479
353.55,-41.101822380952385
356.348,-38.16131523809525
359.144,-18.89904333333331
361.937,13.351705714285734
364.729,26.736343333333373
367.518,56.21240190476199
370.306,150.35853428571446
373.091,271.7083952380955
375.874,399.6073809523812
378.656,429.1650000000002
381.435,368.39764761904775
384.212,242.7526000000001
386.988,175.67883714285725
389.761,107.2940871428572
392.532,112.4799552380953
395.301,74.54841761904763
398.068,65.71829809523814
400.833,49.25767761904767
403.596,88.86487904761908
406.358,68.47809428571433
409.117,78.60862190476192
411.874,48.435881904761935
414.629,37.521931428571456
417.382,32.668060952381
420.133,47.81981333333337
422.882,67.25783333333342
425.629,107.64427142857156
428.374,190.50028095238108
431.117,252.6811619047621
433.858,304.1861904761907
436.597,311.8250476190478
439.334,294.5040476190477
442.069,237.17742857142866
444.802,220.99152380952393
447.533,202.71195238095254
450.262,252.24833333333353
452.989,321.08185714285736
455.714,358.26638095238116
458.438,347.0468095238097
461.159,295.5252857142858
463.878,206.75719047619057
466.595,164.89385714285723
469.31,150.18214285714296
472.024,146.10714285714297
474.735,186.3454285714287
477.444,219.66823809523825
480.152,221.37152380952395
482.857,249.0373333333335
485.561,257.1526666666668
488.262,242.25195238095253
490.962,252.3462380952382
493.659,271.7798095238096
496.355,245.564142857143
499.048,223.56766666666675
501.74,208.23028571428583
504.43,163.2302857142858
507.118,149.05504761904774
509.804,188.85876190476202
512.488,191.03390476190486
515.17,204.2583333333335
517.85,249.01932380952394
520.528,217.9948238095239
523.204,186.5290857142858
525.878,156.3472095238096
528.551,118.69776190476199
531.221,105.21060000000008
533.89,133.1813904761906
536.556,138.4775476190477
539.221,125.34695238095243
541.883,95.65645714285719
544.544,98.41514285714291
547.203,90.96572380952388
549.86,93.41210476190483
552.515,116.47719047619053
555.168,98.07405714285721
557.819,102.35348571428581
560.469,132.9422952380953
563.116,145.4189333333334
565.761,145.26688571428582
568.405,137.7307428571429
571.047,113.1501333333334
573.687,97.05489047619054
576.324,98.06996190476198
578.96,119.81925238095246
581.594,139.45090476190484
584.227,146.34994761904773
586.857,159.37782857142867
589.485,161.91904761904775
592.112,167.59647619047632
594.737,178.6987142857144
597.359,172.70461904761913
599.98,129.3305952380953
602.599,106.15001904761911
605.216,96.54517142857148
607.831,85.61272857142862
610.445,70.9723285714286
613.056,65.43391428571431
615.666,18.045219047619067
618.274,17.234161904761947
620.88,54.52401428571436
623.484,100.81870000000009
626.086,158.92638095238107
628.686,224.7977809523811
631.284,270.0973333333335
633.881,302.06061904761924
636.476,311.8754285714287
639.068,269.9200952380953
641.659,195.619761904762
644.249,159.25661904761915
646.836,143.5408476190477
649.421,133.18276666666674
652.005,110.65422380952383
654.587,73.33180095238097
657.166,15.781998571428591
659.745,11.33324952380955
662.321,26.504110952380977
664.895,35.24172571428574
667.468,50.683522380952425
670.038,60.966791428571455
672.607,50.41923809523814
675.174,68.7492333333334
677.739,85.47489523809529
680.303,101.11424761904769
682.864,101.51843333333336
685.424,74.58622857142859
687.982,42.12121904761907
690.538,41.4982485714286
693.092,29.14012752380955
695.645,33.422009666666675
698.195,13.43325742857142
700.744,1.977727952380964
703.291,7.811721238095256
705.836,6.310727761904765
708.38,15.94562180952383
710.921,33.71122380952383
713.461,35.41203809523813
715.999,60.662257142857186
718.535,82.02861428571431
721.069,52.173252380952405
723.602,48.66322380952385
726.133,61.54185238095244
728.662,91.51959047619056
731.189,109.78281904761911
733.714,153.94674285714294
736.238,136.81730476190484
738.759,117.10523809523816
741.279,91.18807619047625
743.798,110.634180952381
746.314,84.96410476190482
748.829,97.55577142857148
751.342,72.07306190476194
753.853,57.79900000000004
756.362,48.06432857142863
758.869,87.91419047619053
761.375,94.5843847619048
763.879,80.83464190476192
766.381,46.901017142857164
768.882,25.019739047619083
771.38,45.28414476190482
773.877,62.454626666666705
776.372,60.33919714285717
778.866,67.12695809523814
781.357,56.86431238095243
783.847,58.26456571428579
786.335,102.99299428571433
788.821,114.09670000000006
791.306,104.90827619047624
793.789,96.80804761904766
796.27,88.51000952380959
798.749,79.01377142857149
801.227,96.84259047619055
803.702,136.56785238095247
806.176,176.90414285714297
808.649,187.51804761904773
811.119,181.60047619047626
813.588,149.43740000000008
816.055,129.83851428571438
818.521,139.80459047619058
820.984,142.43171904761914
823.446,119.14893333333339
825.906,103.10016666666674
828.365,80.85770476190483
830.821,78.89855714285721
833.276,110.79572380952388
835.729,124.35954285714293
838.181,109.73437142857149
840.631,122.06471428571435
843.079,100.25661428571433
845.525,83.69260952380958
847.97,91.3744428571429
850.412,83.63693333333337
852.854,59.577342857142895
855.293,57.388071428571465
857.731,58.642566666666724
860.167,87.72382380952388
862.601,95.6338047619048
865.034,110.0888647619048
867.465,78.18663380952384
869.894,56.73878190476195
872.321,60.84314238095244
874.747,93.16897238095245
877.171,128.0044623809525
879.594,166.39951714285723
882.014,161.0235238095239
884.433,168.45028571428583
886.851,170.73009523809534
889.266,169.15166666666676
891.68,182.38447619047625
894.092,153.33566666666673
896.503,142.10357142857154
898.912,160.69090476190487
901.319,163.766761904762
903.724,174.33442857142865
906.128,179.0155714285715
908.53,143.43180952380962
910.931,153.68152380952392
913.329,163.43390476190484
915.726,161.4535714285715
918.122,172.21980952380963
920.516,159.3063333333334
922.908,127.52552380952389
925.298,111.30850000000005
927.687,124.22905714285724
930.074,132.71856190476197
932.459,130.82700000000006
934.843,125.27070476190482
937.225,105.0524571428572
939.605,91.74587142857152
941.984,110.97206190476196
944.361,105.01890000000006
946.736,73.22170476190479
949.11,60.20127142857146
951.482,48.007214285714326
953.853,56.165134285714316
956.222,41.295577142857155
958.589,29.44772095238097
960.954,19.194399047619086
963.318,56.58435904761912
965.68,90.38080095238101
968.041,102.8228628571429
970.4,87.00673333333336
972.757,72.2665571428572
975.113,66.8887714285715
977.467,82.1119571428572
979.819,88.88930000000003
982.17,96.79238095238102
984.519,88.05976190476196
986.866,102.12010476190487
989.212,144.87858095238107
991.556,191.71590476190488
993.899,234.01319047619066
996.24,284.1512380952382
998.579,290.8918571428573
1000.92,270.2346190476192
1003.25,247.70338095238108
1005.59,220.20190476190484
1007.92,196.06314285714296
1010.25,203.57257142857156
1012.58,202.25309523809534
1014.91,185.72328571428585
1017.24,171.79180952380963
1019.56,169.98138095238107
1021.88,163.4820000000001
1024.2,163.05457142857153
1026.52,175.88847619047633
1028.84,201.7925714285716
1031.16,219.86038095238112
1033.48,243.8054285714287
1035.79,241.0550952380954
1038.1,244.1793809523811
1040.41,254.03438095238107
1042.72,254.23823809523824
1045.03,261.170142857143
1047.33,265.1147619047621
1049.64,268.16538095238116
1051.94,281.17814285714303
1054.24,295.9132857142859
1056.54,267.1318095238097
1058.84,261.0698095238097
1061.13,256.6307142857145
1063.43,270.2890476190478
1065.72,269.7580952380954
1068.01,276.32138095238105
1070.3,261.54923809523825
1072.59,254.24942857142872
1074.87,287.22995238095257
1077.16,310.20385714285726
1079.44,336.6931904761907
1081.72,352.93414285714306
1084.0,384.8780476190479
1086.28,440.04709523809555
1088.56,573.5349047619052
1090.84,682.9117619047623
1093.11,783.0328095238099
1095.38,787.4678571428575
1097.65,719.5493809523813
1099.92,608.5612380952384
1102.19,522.5499523809527
1104.46,465.84742857142885
1106.72,453.1665714285717
1108.98,458.02980952380983
1111.24,494.1501428571431
1113.5,542.7167142857146
1115.76,580.1570000000004
1118.02,613.2317142857147
1120.28,647.654047619048
1122.53,660.7087142857147
1124.78,666.870666666667
1127.03,637.4727142857146
1129.28,574.9897619047622
1131.53,512.4687619047622
1133.77,455.81338095238124
1136.02,410.49895238095263
1138.26,368.33461904761924
1140.5,320.51023809523826
1142.74,307.02509523809545
1144.98,308.6407619047621
1147.22,316.49957142857164
1149.45,336.6012857142859
1151.69,316.08857142857164
1153.92,269.86590476190486
1156.15,243.07585714285725
1158.38,196.33771428571438
1160.61,160.65147619047627
1162.83,150.5409714285715
1165.06,132.9112514285715
1167.28,86.85800380952386
1169.5,68.76239809523813
1171.72,64.72055809523813
1173.94,44.87583142857146
1176.16,42.13350380952384
1178.37,41.018418095238104
1180.58,28.10289523809527
1182.8,44.57845238095243
1185.01,56.97004285714288
1187.22,68.27895238095243
1189.42,67.6969666666667
1191.63,56.41597619047623
1193.84,68.62809523809528
1196.04,75.38235714285717
1198.24,73.01370952380958
1200.44,97.61910952380958
1202.64,88.48597619047624
1204.84,88.94950476190482
1207.03,77.10690000000002
1209.23,61.05513809523815
1211.42,69.51042380952386
1213.61,74.23656666666669
1215.8,67.33077619047623
1217.99,62.31880000000002
1220.18,62.297947619047676
1222.36,73.65101447619051
1224.55,68.37993066666668
1226.73,55.91519942857145
1228.91,46.592130285714305
1231.09,29.317347047619084
1233.27,29.23574019047621
1235.44,43.06328114285717
1237.62,51.51606190476195
1239.79,62.59582380952385
1241.96,62.16140000000003
1244.13,52.78585714285717
1246.3,53.75655238095244
1248.47,81.31294761904769
1250.64,100.55194285714292
1252.8,125.99856666666673
1254.96,128.74971428571433
1257.13,108.8542333333334
1259.29,93.78962857142861
1261.44,99.84260476190482
1263.6,93.63342857142865
1265.76,121.78242380952389
1267.91,136.00511428571434
1270.06,128.11194285714294
1272.22,121.72307619047628
1274.37,143.31532380952393
1276.51,138.12763809523818
1278.66,158.16106666666676
1280.81,145.55938095238102
1282.95,128.22823809523817
1285.09,118.07309523809532
1287.23,157.71338095238104
1289.37,174.05458095238106
1291.51,178.8592476190477
1293.65,165.8901428571429
1295.78,122.43347142857148
1297.92,81.4896476190477
1300.05,113.48757619047628
1302.18,146.856161904762
1304.31,152.69129047619055
1306.44,155.32636190476197
1308.57,138.47614285714295
1310.69,133.80771428571438
1312.82,162.36880952380966
1314.94,211.20719047619062
1317.06,242.7042857142859
1319.18,257.9073809523811
1321.3,254.2456190476192
1323.41,235.4332857142859
1325.53,246.5178571428573
1327.64,296.1660476190478
1329.75,329.5685714285716
1331.87,374.48680952380977
1333.98,387.49280952380974
1336.08,373.3956190476193
1338.19,349.48085714285736
1340.3,345.70076190476215
1342.4,321.8172380952383
1344.5,315.11538095238114
1346.6,302.5478095238097
1348.7,282.68542857142876
1350.8,250.0043809523811
1352.9,244.21852380952396
1354.99,250.18500000000014
1357.09,266.52219047619064
1359.18,269.99190476190495
1361.27,255.9268571428573
1363.36,280.70766666666685
1365.45,324.0003809523812
1367.54,369.99538095238114
1369.62,409.6921904761907
1371.7,412.3284285714288
1373.79,405.8083333333336
1375.87,443.1789047619051
1377.95,477.48742857142884
1380.03,482.1620476190478
1382.1,443.7260952380954
1384.18,372.1310476190478
1386.25,338.7098095238097
1388.33,324.12819047619064
1390.4,321.1954285714287
1392.47,298.5776666666668
1394.54,261.5600000000001
1396.6,219.47509523809538
1398.67,185.32238095238102
1400.74,172.72004761904773
1402.8,176.42933333333343
1404.86,162.4500000000001
1406.92,170.73347619047632
1408.98,172.61233333333342
1411.04,177.3719523809525
1413.09,195.77309523809535
1415.15,202.48200000000008
1417.2,174.49814285714297
1419.25,171.7254761904763
1421.3,165.30600000000013
1423.35,172.42976190476202
1425.4,188.09561904761918
1427.45,190.97000000000008
1429.49,173.28990476190486
1431.54,180.95976190476202
1433.58,163.26457142857151
1435.62,140.53671428571437
1437.66,149.4422380952382
1439.7,145.36161904761914
1441.74,150.62704761904772
1443.77,176.80966666666677
1445.81,184.76604761904775
1447.84,196.06647619047632
1449.87,218.85352380952395
1451.9,203.07900000000012
1453.93,195.5989047619049
1455.96,202.79390476190488
1457.98,211.187142857143
1460.01,209.0159047619049
1462.03,238.32733333333348
1464.05,252.02566666666684
1466.07,261.82442857142877
1468.09,278.342142857143
1470.11,280.6732857142859
1472.13,252.67466666666684
1474.14,260.2502380952382
1476.16,252.63771428571442
1478.17,228.74152380952393
1480.18,217.32290476190488
1482.19,188.28600000000012
1484.2,165.20214285714295
1486.21,154.40376190476198
1488.21,162.69993333333343
1490.22,147.9475857142858
1492.22,133.95573809523816
1494.22,94.91444761904765
1496.22,86.2523190476191
1498.22,86.92080000000009
1500.22,109.01490000000005
1502.22,118.53464285714291
1504.21,106.86044285714289
1506.21,76.3253952380953
1508.2,75.02457619047624
1510.19,91.57653904761911
1512.18,71.9336723809524
1514.17,74.42930666666669
1516.16,50.01548476190478
1518.14,46.263530476190525
1520.13,57.12572476190481
1522.11,91.36395809523813
1524.09,73.64481904761908
1526.07,82.77780952380957
1528.05,56.76290000000003
1530.03,53.83816190476195
1532.01,37.71790000000003
1533.98,49.7355047619048
1535.96,60.55756666666673
1537.93,89.46986666666672
1539.9,101.9007714285715
1541.87,119.27921904761912
1543.84,105.55740952380958
1545.81,101.30682857142864
1547.78,98.71793809523815
1549.74,94.36227619047627
1551.7,117.00137619047628
1553.67,133.8262095238096
1555.63,156.64619523809534
1557.59,153.0326714285715
1559.55,160.27153333333345
1561.5,147.41028095238102
1563.46,149.59181904761914
1565.41,157.33986190476202
1567.37,159.27360000000007
1569.32,144.58333333333343
1571.27,157.60271428571434
1573.22,141.42695238095246
1575.17,136.10390476190486
1577.11,164.44261904761916
1579.06,158.9194761904763
1581.0,162.96285714285725
1582.95,157.620761904762
1584.89,152.46461904761915
1586.83,144.82794285714294
1588.77,128.42470476190482
1590.7,143.3026000000001
1592.64,158.22339047619056
1594.58,182.85395714285735
1596.51,188.36115714285734
1598.44,156.0784904761905
