Raman Shift,Processed Intensity
331.095,118.22027571428552
333.909,-17.09030619047624
336.721,-66.76504976190466
339.531,-59.36345333333332
342.339,-22.68388904761905
345.145,-11.499859047619037
347.949,26.608679523809535
350.751,13.873421904761873
353.55,-28.947922380952384
356.348,-27.285858095238098
359.144,-23.663899999999977
361.937,25.58707142857152
364.729,111.47190476190485
367.518,155.3308285714287
370.306,241.60123809523833
373.091,364.24636190476224
375.874,468.8984285714289
378.656,496.47719047619074
381.435,447.618742857143
384.212,300.6273714285715
386.988,177.66627142857152
389.761,108.85278095238102
392.532,94.49677142857149
395.301,68.33821904761912
398.068,93.54732380952387
400.833,82.05766190476194
403.596,90.51861428571435
406.358,98.2480190476191
409.117,92.66033333333336
411.874,50.55234285714286
414.629,24.246123809523816
417.382,-0.791995238095204
420.133,14.905400000000057
422.882,75.3314000000001
425.629,177.62260952380967
428.374,277.1075333333335
431.117,363.06833333333356
433.858,404.40714285714307
436.597,380.64638095238115
439.334,318.11880952380966
442.069,253.49119047619064
444.802,228.1455714285716
447.533,264.65538095238117
450.262,318.3566190476193
452.989,349.68166666666684
455.714,362.4914761904764
458.438,330.6479523809526
461.159,277.4420476190478
463.878,229.11738095238104
466.595,187.39466666666675
469.31,130.13828571428581
472.024,147.26004761904775
474.735,182.00576190476204
477.444,223.4308571428573
480.152,234.82914285714298
482.857,254.54266666666678
485.561,208.91352380952392
488.262,218.4747142857144
490.962,237.61644761904773
493.659,217.25280476190486
496.355,203.0123523809525
499.048,170.8096047619048
501.74,112.46380952380962
504.43,112.8418238095239
507.118,134.47726666666676
509.804,167.66574285714302
512.488,247.0836952380954
515.17,264.7410476190478
517.85,271.9333047619049
520.528,232.33670000000006
523.204,163.77041428571437
525.878,116.95820476190482
528.551,105.24306190476197
531.221,91.72916666666673
533.89,111.0922428571429
536.556,112.86515238095244
539.221,116.10412380952386
541.883,84.86532380952386
544.544,97.49072380952389
547.203,94.94060000000006
549.86,76.17536190476196
552.515,82.82174285714291
555.168,77.55375238095242
557.819,77.09291428571437
560.469,116.58910476190485
563.116,157.52500000000012
565.761,164.95447619047627
568.405,168.31238095238103
571.047,154.31871428571438
573.687,166.88354476190486
576.324,132.05979714285724
578.96,109.04269428571432
581.594,100.69391714285722
584.227,89.54170380952388
586.857,117.9705780952382
589.485,153.07911142857148
592.112,144.96587619047625
594.737,114.34807142857147
597.359,115.84743809523816
599.98,90.51377142857147
602.599,89.20601904761911
605.216,101.87787619047626
607.831,108.14966666666673
610.445,119.73682380952391
613.056,128.9254428571429
615.666,103.1919190476191
618.274,88.39330000000007
620.88,83.7196714285715
623.484,95.21792857142867
626.086,153.55398571428583
628.686,195.72627619047634
631.284,239.7806190476192
633.881,263.9057142857144
636.476,252.1473904761906
639.068,214.59819523809534
641.659,142.255680952381
644.249,108.06901428571436
646.836,83.60643809523815
649.421,97.19818571428578
652.005,99.98355714285718
654.587,84.7682285714286
657.166,29.40543333333335
659.745,33.17660000000002
662.321,11.220528571428604
664.895,42.62812380952385
667.468,39.49016190476193
670.038,56.75441904761909
672.607,61.797280952381
675.174,85.75686666666672
677.739,97.43803809523817
680.303,130.4549428571429
682.864,124.99338571428578
685.424,113.57229047619052
687.982,74.0441142857143
690.538,24.35644285714286
693.092,-8.876261904761893
695.645,-5.658780952380928
698.195,30.290219047619086
700.744,50.728187142857166
703.291,42.26988238095239
705.836,28.6730242857143
708.38,19.457322380952398
710.921,13.38069571428575
713.461,49.82024904761909
715.999,58.438880000000026
718.535,54.42342380952385
721.069,58.770333333333376
723.602,71.19046666666671
726.133,73.48994761904768
728.662,80.71311428571433
731.189,88.61870000000005
733.714,91.53696666666671
736.238,82.6077190476191
738.759,79.35204285714292
741.279,105.71921904761913
743.798,114.2303238095239
746.314,121.88263809523815
748.829,140.34042380952386
751.342,113.26762857142862
753.853,80.61434761904768
756.362,77.18755238095243
758.869,72.46121428571433
761.375,63.67124285714292
763.879,76.95856190476194
766.381,61.08284761904765
768.882,48.70882380952384
771.38,39.12031904761909
773.877,47.79183809523815
776.372,84.38832380952388
778.866,114.38418571428578
781.357,123.73026190476195
783.847,107.18697619047622
786.335,74.6101190476191
788.821,90.99850000000008
791.306,103.49370952380957
793.789,102.23735238095242
796.27,91.08553809523814
798.749,82.32309047619054
801.227,92.94888571428582
803.702,156.81952857142866
806.176,183.6482571428572
808.649,168.24403809523818
811.119,126.93962857142863
813.588,112.35371428571435
816.055,96.43802380952388
818.521,99.95432380952388
820.984,95.56879047619051
823.446,97.51955238095245
825.906,88.0444714285715
828.365,105.90565714285722
830.821,115.05520000000008
833.276,137.68367619047626
835.729,116.22014761904768
838.181,116.37914285714291
840.631,115.25614285714292
843.079,107.66147619047626
845.525,103.50016666666674
847.97,108.4395047619048
850.412,106.24239523809531
852.854,88.3854571428572
855.293,87.53617142857148
857.731,87.07648571428577
860.167,76.91227142857149
862.601,62.663566666666725
865.034,85.7605571428572
867.465,77.96603809523815
869.894,97.99554285714296
872.321,137.85064761904772
874.747,132.19946666666672
877.171,139.6626238095239
879.594,100.28955714285718
882.014,91.55811428571438
884.433,115.51747142857153
886.851,157.12240952380967
889.266,215.23161428571444
891.68,265.94244761904775
894.092,261.0190000000002
896.503,266.3209523809525
898.912,228.6595238095239
901.319,172.9898095238096
903.724,161.36161904761914
906.128,139.30109523809537
908.53,149.23933333333343
910.931,182.9881904761906
913.329,179.5499523809525
915.726,163.4035238095239
918.122,143.12290476190483
920.516,136.61542857142868
922.908,149.64561904761916
925.298,165.9774761904763
927.687,169.61390476190488
930.074,178.65253333333342
932.459,148.57193809523818
934.843,136.46981238095248
937.225,109.96774333333336
939.605,66.06791047619052
941.984,51.677637619047665
944.361,75.98970095238101
946.736,86.67293380952385
949.11,92.53897904761908
951.482,79.82817142857147
953.853,61.92350952380954
956.222,21.9699404761905
958.589,30.540776190476222
960.954,37.30472142857147
963.318,54.453966666666744
965.68,116.60970714285723
968.041,149.6306428571429
970.4,127.23275238095243
972.757,116.94137619047623
975.113,76.18686190476194
977.467,52.58968095238101
979.819,64.96102380952387
982.17,86.30240476190482
984.519,98.52008095238104
986.866,139.61500952380962
989.212,161.16034285714295
991.556,185.77619047619064
993.899,209.17800000000014
996.24,248.74804761904778
998.579,270.5826666666668
1000.92,268.8732380952382
1003.25,238.1449523809525
1005.59,221.7796666666668
1007.92,198.01652380952393
1010.25,178.14190476190487
1012.58,164.8710000000001
1014.91,157.3950000000001
1017.24,157.14325714285724
1019.56,159.87847142857152
1021.88,150.98208571428577
1024.2,119.55038571428577
1026.52,114.7266095238096
1028.84,141.84461428571439
1031.16,154.6669238095239
1033.48,178.19390476190486
1035.79,181.47347619047625
1038.1,170.50614285714295
1040.41,165.7208095238096
1042.72,174.07028571428583
1045.03,180.6023333333335
1047.33,209.74561904761916
1049.64,201.21471428571442
1051.94,219.48566666666682
1054.24,237.0829047619049
1056.54,264.7683333333335
1058.84,264.8274761904763
1061.13,257.21276190476203
1063.43,240.06680952380967
1065.72,261.53247619047636
1068.01,271.3715714285716
1070.3,271.6793333333335
1072.59,250.93128571428588
1074.87,265.17519047619066
1077.16,289.1722857142859
1079.44,328.1132380952383
1081.72,358.1879523809526
1084.0,391.5869047619051
1086.28,458.40447619047654
1088.56,574.68780952381
1090.84,713.4361428571433
1093.11,816.8400000000004
1095.38,851.3745714285718
1097.65,788.1350000000004
1099.92,674.8822380952384
1102.19,563.3297619047622
1104.46,494.3818095238099
1106.72,481.46633333333364
1108.98,466.8681428571431
1111.24,489.8725238095241
1113.5,540.9069523809527
1115.76,604.3037619047623
1118.02,661.157428571429
1120.28,736.2766190476195
1122.53,729.3268571428575
1124.78,704.3075714285717
1127.03,647.1698571428574
1129.28,542.8648571428573
1131.53,472.8680952380955
1133.77,410.55957142857164
1136.02,380.0329523809526
1138.26,345.00171428571446
1140.5,326.7503333333336
1142.74,295.2773333333335
1144.98,323.010523809524
1147.22,315.8531904761907
1149.45,342.8513809523811
1151.69,316.1469047619049
1153.92,285.0243809523811
1156.15,232.8154285714287
1158.38,195.61414285714295
1160.61,150.46672857142866
1162.83,125.3715533333334
1165.06,70.85125571428576
1167.28,58.61841619047623
1169.5,49.76689190476195
1171.72,74.2474352380953
1173.94,83.53484142857147
1176.16,97.43705809523814
1178.37,70.00012857142859
1180.58,63.79372380952385
1182.8,62.48314380952385
1185.01,53.971439047619064
1187.22,48.352178095238145
1189.42,56.29061333333337
1191.63,66.59484000000006
1193.84,111.50132952380963
1196.04,143.24664380952387
1198.24,133.30571904761914
1200.44,147.34335238095247
1202.64,123.92980000000006
1204.84,119.34970000000007
1207.03,100.50623095238097
1209.23,56.82676666666671
1211.42,40.73876428571434
1213.61,60.19317619047625
1215.8,86.47511666666675
1217.99,141.39294761904767
1220.18,168.89826666666676
1222.36,142.75194285714292
1224.55,130.47693333333342
1226.73,127.11981904761913
1228.91,135.06135238095248
1231.09,137.96714285714293
1233.27,125.7893952380953
1235.44,90.05095238095244
1237.62,86.32326190476198
1239.79,100.74834285714293
1241.96,118.04038095238101
1244.13,113.86555238095242
1246.3,95.50952857142865
1248.47,101.30490476190485
1250.64,121.77575714285722
1252.8,122.96958095238102
1254.96,140.88611428571434
1257.13,131.52547619047624
1259.29,123.03080952380961
1261.44,120.78280952380959
1263.6,149.4482380952382
1265.76,152.17019047619058
1267.91,160.2343333333334
1270.06,163.78385714285724
1272.22,170.39061904761914
1274.37,187.29314285714298
1276.51,216.68204761904775
1278.66,225.79576190476203
1280.81,183.0158095238096
1282.95,174.86652380952393
1285.09,169.87223809523823
1287.23,194.65247619047634
1289.37,223.6839047619049
1291.51,256.6335238095239
1293.65,245.9309047619049
1295.78,237.14814285714297
1297.92,222.38119047619057
1300.05,208.5829523809525
1302.18,213.56400000000014
1304.31,216.3724285714287
1306.44,225.2949047619049
1308.57,223.80828571428586
1310.69,244.62795238095254
1312.82,251.2308571428573
1314.94,253.85604761904776
1317.06,279.31385714285733
1319.18,318.31933333333353
1321.3,336.8260000000002
1323.41,372.26352380952403
1325.53,361.0140000000002
1327.64,350.55438095238117
1329.75,378.40971428571453
1331.87,404.58076190476214
1333.98,413.49723809523834
1336.08,438.3507142857145
1338.19,405.2373809523812
1340.3,404.92028571428597
1342.4,392.6388571428573
1344.5,357.2987619047621
1346.6,319.18704761904775
1348.7,312.1620000000002
1350.8,305.5101904761907
1352.9,324.18523809523833
1354.99,347.7124761904764
1357.09,357.0451428571431
1359.18,351.8036666666669
1361.27,372.5602380952384
1363.36,400.316285714286
1365.45,414.93000000000023
1367.54,439.0693809523812
1369.62,455.87838095238124
1371.7,459.3581904761908
1373.79,497.46219047619076
1375.87,544.4301428571431
1377.95,568.6913809523812
1380.03,572.9613333333335
1382.1,518.5746666666669
1384.18,447.4370476190479
1386.25,416.0736190476193
1388.33,388.7712380952383
1390.4,348.10219047619063
1392.47,345.11542857142877
1394.54,293.19319047619064
1396.6,251.95523809523826
1398.67,226.45061904761914
1400.74,206.10866666666678
1402.8,184.78738095238108
1404.86,210.86909523809538
1406.92,221.64047619047633
1408.98,210.62638095238106
1411.04,215.0184285714287
1413.09,224.9126666666668
1415.15,214.30966666666683
1417.2,222.0676666666668
1419.25,224.94942857142868
1421.3,212.00390476190492
1423.35,225.42200000000014
1425.4,226.7762380952382
1427.45,199.35290476190485
1429.49,171.43838095238104
1431.54,160.84304761904772
1433.58,164.90114285714296
1435.62,179.898761904762
1437.66,183.02738095238104
1439.7,185.43038095238109
1441.74,169.48914285714298
1443.77,176.77580952380967
1445.81,189.05280952380963
1447.84,203.12985714285728
1449.87,208.4363809523811
1451.9,221.0202857142858
1453.93,211.5007142857144
1455.96,173.5452380952382
1457.98,165.29685714285725
1460.01,169.56514285714297
1462.03,200.77919047619065
1464.05,232.89123809523824
1466.07,244.47276190476202
1468.09,235.66709523809538
1470.11,228.3312380952382
1472.13,208.60833333333343
1474.14,189.6885238095239
1476.16,198.47657142857156
1478.17,182.49619047619055
1480.18,188.17586666666676
1482.19,161.22956666666673
1484.2,127.18100952380959
1486.21,84.41049047619053
1488.21,92.67980952380957
1490.22,64.79781904761909
1492.22,62.716495238095284
1494.22,66.24493809523814
1496.22,86.4300450476191
1498.22,79.6045038571429
1500.22,66.67248390476192
1502.22,49.82350423809527
1504.21,35.91406009523813
1506.21,34.61008004761908
1508.2,44.91059266666668
1510.19,44.4337923809524
1512.18,22.797770952380976
1514.17,30.620508571428594
1516.16,42.04403380952384
1518.14,49.876851428571456
1520.13,45.40370428571431
1522.11,28.480766190476192
1524.09,17.91657142857145
1526.07,21.281569047619076
1528.05,38.05099523809527
1530.03,53.84297380952384
1532.01,70.75179523809527
1533.98,49.109861904761935
1535.96,54.059147619047664
1537.93,66.21779523809528
1539.9,61.82308095238099
1541.87,61.44557142857147
1543.84,69.65583809523812
1545.81,75.97687619047625
1547.78,70.74117619047624
1549.74,98.18619047619055
1551.7,109.59682380952387
1553.67,103.92450952380959
1555.63,124.45421428571439
1557.59,142.9472714285715
1559.55,135.45035238095247
1561.5,129.86780000000005
1563.46,111.62742857142862
1565.41,85.53801428571434
1567.37,95.45611428571435
1569.32,98.57141428571437
1571.27,125.07375238095243
1573.22,111.153080952381
1575.17,92.380180952381
1577.11,105.18313809523818
1579.06,106.41847142857151
1581.0,123.98999523809532
1582.95,129.27845238095244
1584.89,101.2832047619048
1586.83,86.24188095238102
1588.77,97.91593809523818
1590.7,110.39981904761915
1592.64,141.2169095238096
1594.58,143.15248095238096
1596.51,133.23000238095244
1598.44,113.11575714285732
