Raman Shift,Processed Intensity
331.095,58.65313523809508
333.909,-34.309108571428574
336.721,-68.93611642857138
339.531,-63.11925333333333
342.339,-33.65543
345.145,-8.935719047619038
347.949,12.17565952380951
350.751,1.5785676190475915
353.55,-37.58679476190478
356.348,-25.46368
359.144,-21.193055238095234
361.937,-6.865999999999981
364.729,12.190285714285752
367.518,66.41303809523822
370.306,189.4318142857145
373.091,362.6879952380955
375.874,477.57720952380976
378.656,512.6398095238097
381.435,435.2751238095239
384.212,286.551242857143
386.988,161.96641428571434
389.761,82.78281428571434
392.532,25.50222380952384
395.301,13.628061904761928
398.068,23.236919047619068
400.833,33.978304761904816
403.596,62.788985714285765
406.358,82.98820761904764
409.117,59.610902857142875
411.874,25.979115238095254
414.629,27.939925714285756
417.382,36.05614380952385
420.133,46.463326666666724
422.882,102.58357428571438
425.629,160.17369523809538
428.374,242.89622857142876
431.117,320.55756190476205
433.858,338.2506190476192
436.597,315.7363809523811
439.334,269.30004761904775
442.069,209.13252380952395
444.802,176.09252380952393
447.533,181.32466666666684
450.262,252.97438095238118
452.989,326.5211904761906
455.714,359.44528571428594
458.438,373.84600000000023
461.159,306.7285238095239
463.878,223.43138095238106
466.595,180.6747142857144
469.31,145.89328571428584
472.024,155.71300000000014
474.735,184.52185714285721
477.444,171.75585714285722
480.152,142.8988095238096
482.857,170.10090476190493
485.561,180.84652380952394
488.262,223.5247142857144
490.962,220.90614285714295
493.659,191.4758095238096
496.355,156.86114285714297
499.048,157.21376190476195
501.74,131.16161904761913
504.43,145.23723809523818
507.118,144.59261904761914
509.804,181.47509523809538
512.488,189.70285714285728
515.17,203.28485714285728
517.85,226.51574285714295
520.528,188.97552857142864
523.204,159.38726666666676
525.878,120.71215714285717
528.551,77.1013333333334
531.221,64.13465238095243
533.89,77.82065238095241
536.556,64.73867619047624
539.221,68.32530952380954
541.883,47.302580952381
544.544,71.48748095238099
547.203,69.12561428571432
549.86,70.12890952380958
552.515,79.17098095238099
555.168,80.11570952380957
557.819,64.25534761904764
560.469,68.69133809523815
563.116,78.2393714285715
565.761,100.90510476190484
568.405,124.8369095238096
571.047,151.516161904762
573.687,160.56659047619058
576.324,143.08799523809535
578.96,156.7040857142858
581.594,148.3711952380953
584.227,137.37851428571437
586.857,133.72975714285724
589.485,142.2372476190477
592.112,117.28477619047625
594.737,124.68438095238102
597.359,104.72388571428576
599.98,84.7857428571429
602.599,65.30029047619053
605.216,93.84016190476198
607.831,92.50124285714291
610.445,110.71266666666673
613.056,101.37934285714289
615.666,68.64401428571432
618.274,52.12530952380959
620.88,78.06089047619054
623.484,77.21130476190484
626.086,130.4323761904763
628.686,193.24628571428588
631.284,225.93680952380964
633.881,240.02580952380964
636.476,210.8442857142858
639.068,172.43685714285726
641.659,153.75285714285724
644.249,153.93195238095248
646.836,172.6372380952382
649.421,177.24614285714293
652.005,148.51656666666673
654.587,111.15860476190481
657.166,70.16795714285718
659.745,59.9212714285715
662.321,79.36611428571435
664.895,103.64061904761908
667.468,90.7397904761905
670.038,88.56352857142863
672.607,90.10660000000007
675.174,101.84015238095245
677.739,104.61593809523815
680.303,99.19064761904765
682.864,79.70183142857148
685.424,68.57288704761908
687.982,34.51265919047621
690.538,35.32563504761908
693.092,26.863617476190488
695.645,10.026284095238115
698.195,33.903904904761916
700.744,30.253488476190483
703.291,19.832186666666697
705.836,24.207021904761906
708.38,21.37333619047621
710.921,24.707784285714318
713.461,36.53955571428573
715.999,45.912111428571464
718.535,68.44056809523813
721.069,67.4070352380953
723.602,105.95084619047628
726.133,144.5444390476191
728.662,139.51766666666674
731.189,137.05771428571438
733.714,143.82796190476196
736.238,112.01593809523816
738.759,101.57135238095245
741.279,99.15739523809529
743.798,111.15245714285723
746.314,127.60156666666676
748.829,135.64486190476194
751.342,113.32746666666672
753.853,103.69488095238101
756.362,76.88720476190481
758.869,85.61696666666673
761.375,84.97707142857148
763.879,73.8226571428572
766.381,57.81848571428575
768.882,64.86759047619051
771.38,76.92057619047625
773.877,91.92842380952386
776.372,81.88949047619053
778.866,103.6594714285715
781.357,86.3799714285715
783.847,98.383261904762
786.335,109.8584952380953
788.821,108.90009523809532
791.306,108.12594285714295
793.789,129.43998095238103
796.27,117.6986095238096
798.749,125.66342857142865
801.227,107.61958095238103
803.702,145.80460000000014
806.176,180.02764761904774
808.649,183.62180952380962
811.119,182.3962380952382
813.588,180.39905714285723
816.055,143.86827142857152
818.521,152.23236190476197
820.984,134.4918095238096
823.446,104.97994285714293
825.906,104.64961904761913
828.365,126.02569523809531
830.821,141.53698571428583
833.276,172.85104761904773
835.729,158.77806190476196
838.181,153.65200000000007
840.631,132.61693333333338
843.079,118.96002857142865
845.525,113.30123809523815
847.97,105.78482380952386
850.412,73.60247142857149
852.854,88.75575714285719
855.293,81.29379047619054
857.731,89.50410476190483
860.167,102.15019619047625
862.601,74.56728428571431
865.034,55.51921619047623
867.465,58.81771571428575
869.894,49.179068571428616
872.321,90.08156047619056
874.747,118.52768666666672
877.171,114.61499523809532
879.594,129.20315714285724
882.014,128.10420000000008
884.433,159.0350190476192
886.851,212.8553047619049
889.266,259.04442857142874
891.68,263.2714285714287
894.092,242.39623809523817
896.503,215.56480952380963
898.912,217.39880952380966
901.319,195.61561904761916
903.724,220.932761904762
906.128,201.87666666666675
908.53,183.1168571428573
910.931,196.56161904761916
913.329,185.78485714285722
915.726,160.408761904762
918.122,146.53195238095242
920.516,134.96674285714295
922.908,110.7637190476191
925.298,103.25924761904767
927.687,106.21804285714293
930.074,122.40481904761913
932.459,130.5371000000001
934.843,158.18887619047626
937.225,128.60113809523813
939.605,99.30027142857149
941.984,78.24154285714289
944.361,58.04650666666669
946.736,36.241608095238114
949.11,19.114993333333334
951.482,11.145284285714311
953.853,17.953833333333346
956.222,19.92383095238097
958.589,32.24793904761907
960.954,47.594846666666704
963.318,68.01419047619055
965.68,85.98393333333337
968.041,85.07727142857146
970.4,75.91490000000005
972.757,65.78408571428577
975.113,50.78156190476195
977.467,58.861095238095274
979.819,68.69072380952386
982.17,69.55723809523815
984.519,111.69972380952389
986.866,128.5953333333334
989.212,136.86421904761914
991.556,168.45971428571443
993.899,211.430142857143
996.24,238.53795238095253
998.579,291.4029047619049
1000.92,273.9300000000001
1003.25,239.54838095238108
1005.59,215.68723809523817
1007.92,180.44176190476202
1010.25,166.85985714285724
1012.58,171.3705238095239
1014.91,157.8305238095239
1017.24,171.0970476190477
1019.56,148.17026190476196
1021.88,134.7642380952382
1024.2,123.7835476190477
1026.52,136.9421904761906
1028.84,169.38250000000016
1031.16,214.4372380952382
1033.48,193.6301904761906
1035.79,192.67514285714296
1038.1,178.23790476190487
1040.41,154.98471428571438
1042.72,156.43861904761914
1045.03,169.64628571428582
1047.33,165.46428571428584
1049.64,182.22523809523824
1051.94,215.59442857142872
1054.24,245.04752380952397
1056.54,277.6787142857145
1058.84,278.3440952380954
1061.13,272.3283333333335
1063.43,268.1542857142859
1065.72,273.96309523809543
1068.01,282.61100000000016
1070.3,283.90614285714304
1072.59,266.8950952380954
1074.87,284.9097142857145
1077.16,300.18700000000024
1079.44,324.05857142857167
1081.72,360.66609523809547
1084.0,405.72219047619075
1086.28,473.0351428571432
1088.56,610.8413333333338
1090.84,722.0918571428576
1093.11,797.3562857142863
1095.38,803.9666190476195
1097.65,722.4449523809528
1099.92,587.694428571429
1102.19,497.09461904761935
1104.46,437.78652380952406
1106.72,434.9112380952384
1108.98,459.276666666667
1111.24,528.8811428571432
1113.5,605.0083809523813
1115.76,677.2285714285717
1118.02,733.1586190476194
1120.28,766.7018571428575
1122.53,751.1898571428576
1124.78,701.0967619047623
1127.03,635.8019523809527
1129.28,540.6846666666669
1131.53,464.64752380952405
1133.77,421.1652380952383
1136.02,386.33161904761926
1138.26,334.858523809524
1140.5,325.93538095238114
1142.74,324.70285714285734
1144.98,350.4926666666669
1147.22,357.06495238095255
1149.45,340.5608095238097
1151.69,289.5497142857144
1153.92,247.26828571428587
1156.15,224.90513333333348
1158.38,186.3637714285715
1160.61,146.54732857142864
1162.83,104.59671428571433
1165.06,65.41518095238098
1167.28,49.42957142857148
1169.5,59.3525666666667
1171.72,46.99227142857146
1173.94,46.156657142857156
1176.16,42.79657714285717
1178.37,25.386739047619066
1180.58,29.687601904761923
1182.8,27.12635142857144
1185.01,20.415844761904772
1187.22,15.078581904761926
1189.42,19.4465723809524
1191.63,34.280409523809574
1193.84,75.2930714285715
1196.04,118.72158095238103
1198.24,135.46976190476198
1200.44,142.9174476190477
1202.64,125.06387142857147
1204.84,126.66995523809531
1207.03,106.06831952380956
1209.23,92.25842952380955
1211.42,29.858999523809526
1213.61,29.821934285714335
1215.8,39.242538571428625
1217.99,69.78737428571435
1220.18,88.45660476190483
1222.36,105.06019523809528
1224.55,77.97963333333338
1226.73,63.977395238095255
1228.91,56.19738571428575
1231.09,59.44986190476196
1233.27,63.54531904761909
1235.44,75.00870476190481
1237.62,97.93663809523814
1239.79,75.23538571428575
1241.96,82.47811619047623
1244.13,71.61864952380954
1246.3,47.94443714285718
1248.47,43.88564095238099
1250.64,60.34896095238099
1252.8,67.6697590476191
1254.96,74.32621142857145
1257.13,65.17753333333339
1259.29,56.89253333333337
1261.44,56.33055238095243
1263.6,68.35100952380958
1265.76,92.90859047619054
1267.91,80.7200047619048
1270.06,90.12073333333339
1272.22,87.6374571428572
1274.37,101.60573809523817
1276.51,120.21865714285721
1278.66,132.14559047619053
1280.81,113.15098571428578
1282.95,100.76092380952386
1285.09,96.45491904761913
1287.23,129.71154285714294
1289.37,154.00960476190485
1291.51,164.68541904761912
1293.65,143.02733809523815
1295.78,114.27600000000007
1297.92,101.33937619047626
1300.05,85.7440952380953
1302.18,95.58782380952385
1304.31,97.63564285714288
1306.44,79.69980000000007
1308.57,96.25931904761913
1310.69,130.22171428571437
1312.82,150.68518571428584
1314.94,194.89009523809534
1317.06,203.69678095238103
1319.18,185.44119047619057
1321.3,189.26933333333346
1323.41,179.13600000000014
1325.53,181.56790476190488
1327.64,223.71019047619063
1329.75,240.04195238095252
1331.87,264.70847619047635
1333.98,291.47452380952393
1336.08,283.3423809523811
1338.19,262.21942857142875
1340.3,270.3462380952383
1342.4,241.05852380952393
1344.5,230.40633333333346
1346.6,195.24890476190487
1348.7,191.63628571428583
1350.8,165.42766666666677
1352.9,162.53023809523822
1354.99,173.56490476190487
1357.09,197.96228571428583
1359.18,184.39085714285727
1361.27,214.0431904761906
1363.36,224.63519047619064
1365.45,240.5020476190478
1367.54,250.264142857143
1369.62,264.20890476190493
1371.7,278.6711904761907
1373.79,331.79533333333353
1375.87,398.8204761904764
1377.95,432.9383809523812
1380.03,407.24519047619066
1382.1,335.9803809523811
1384.18,279.6206190476192
1386.25,260.11933333333354
1388.33,258.9532571428573
1390.4,233.83730476190487
1392.47,200.7243333333334
1394.54,116.32899047619051
1396.6,79.79405714285721
1398.67,76.35796190476196
1400.74,97.02064761904771
1402.8,103.92464285714294
1404.86,111.83168095238099
1406.92,88.55091904761912
1408.98,83.65320000000007
1411.04,84.09035714285721
1413.09,108.24241904761912
1415.15,106.96570476190483
1417.2,125.11625238095246
1419.25,129.74091428571433
1421.3,121.4097952380953
1423.35,104.35980000000005
1425.4,101.68491904761909
1427.45,72.52635714285718
1429.49,62.07290476190479
1431.54,64.03759523809529
1433.58,70.65660000000004
1435.62,73.59480476190483
1437.66,94.85077142857149
1439.7,109.51726666666673
1441.74,101.97369047619054
1443.77,121.21799047619056
1445.81,148.77184761904772
1447.84,146.20450476190484
1449.87,138.94234285714296
1451.9,140.221161904762
1453.93,148.51505714285724
1455.96,142.86924285714295
1457.98,142.75783809523818
1460.01,126.13069047619057
1462.03,119.12800000000009
1464.05,132.271261904762
1466.07,174.6532380952382
1468.09,180.6048095238096
1470.11,177.31409523809532
1472.13,162.49309523809532
1474.14,157.66261904761916
1476.16,168.77261904761917
1478.17,171.34466666666674
1480.18,167.28058095238103
1482.19,123.81617619047624
1484.2,100.85372380952387
1486.21,81.15243809523814
1488.21,85.85293809523814
1490.22,75.7147190476191
1492.22,88.25896666666671
1494.22,60.05478571428575
1496.22,67.14724285714288
1498.22,54.20078000000002
1500.22,36.02257047619049
1502.22,20.467455238095265
1504.21,34.485581904761936
1506.21,54.931888571428615
1508.2,77.28042190476194
1510.19,77.14813857142858
1512.18,55.77108857142859
1514.17,20.099693809523814
1516.16,2.7034742857143046
1518.14,9.294853809523833
1520.13,29.586370476190517
1522.11,58.33825238095244
1524.09,77.12033333333338
1526.07,88.35970476190482
1528.05,72.24533333333336
1530.03,70.82357142857147
1532.01,67.4262428571429
1533.98,78.29026666666671
1535.96,86.31902857142865
1537.93,93.79702857142861
1539.9,89.7708333333334
1541.87,90.2393047619048
1543.84,87.10602857142864
1545.81,90.98910476190483
1547.78,99.79215238095246
1549.74,131.65715238095248
1551.7,174.96429523809536
1553.67,178.14109523809535
1555.63,186.32947619047627
1557.59,165.90938095238104
1559.55,156.0709047619049
1561.5,162.76557142857152
1563.46,181.1354761904763
1565.41,186.98980952380964
1567.37,184.70838095238105
1569.32,172.71914285714297
1571.27,177.069761904762
1573.22,151.90214285714296
1575.17,147.9300476190477
1577.11,153.24847619047628
1579.06,137.9042857142858
1581.0,148.42090476190486
1582.95,171.9884761904763
1584.89,168.1305714285715
1586.83,144.51366666666675
1588.77,140.32776190476199
1590.7,152.8586190476192
1592.64,176.6294285714287
1594.58,216.9495000000002
1596.51,224.41421428571425
1598.44,168.0235714285711
