Raman Shift,Processed Intensity
331.095,81.35995714285663
333.909,-5.721171428571623
336.721,-14.538864285714325
339.531,14.031128571428592
342.339,2.8508495238095186
345.145,0.4970352380952237
347.949,-13.023862857142866
350.751,-11.133044761904758
353.55,-18.58406190476191
356.348,-3.1770685714285865
359.144,-13.234910476190475
361.937,-9.269943809523784
364.729,14.063987619047671
367.518,75.35190095238103
370.306,107.41824857142868
373.091,196.0408333333335
375.874,287.1894952380954
378.656,312.1202857142859
381.435,287.90080952380964
384.212,215.07527619047625
386.988,92.42754190476192
389.761,30.742518095238115
392.532,-12.336159047619052
395.301,-19.59276666666665
398.068,2.6189495238095253
400.833,-3.9587552380952467
403.596,-8.963119047619053
406.358,0.2079933333333326
409.117,-12.79438666666666
411.874,-7.889396190476184
414.629,14.147771428571453
417.382,56.11483809523816
420.133,80.04859047619053
422.882,84.7964285714286
425.629,96.1117095238096
428.374,127.12956190476203
431.117,180.65290000000016
433.858,222.62847619047625
436.597,210.6706380952382
439.334,177.06117142857153
442.069,140.6066238095239
444.802,137.35205714285723
447.533,132.6773285714286
450.262,130.58124761904773
452.989,157.87324285714297
455.714,205.50655238095248
458.438,209.76772380952394
461.159,166.5632952380953
463.878,116.99106666666674
466.595,102.81551428571436
469.31,109.6588857142858
472.024,115.3822333333334
474.735,114.37036190476195
477.444,88.77082380952388
480.152,93.82663809523818
482.857,122.8289857142858
485.561,151.68826666666675
488.262,136.98185238095246
490.962,130.1443714285715
493.659,127.32501428571437
496.355,106.43522380952385
499.048,96.33896666666672
501.74,92.61470095238097
504.43,45.88861047619051
507.118,53.12037333333339
509.804,77.60282761904767
512.488,114.96259714285725
515.17,157.68361047619055
517.85,193.96359619047627
520.528,160.42933809523817
523.204,129.66008571428577
525.878,109.99621428571436
528.551,113.44554095238101
531.221,92.87288619047624
533.89,76.52343428571432
536.556,57.21421380952384
539.221,33.61912952380957
541.883,57.98321000000006
544.544,91.50406476190481
547.203,79.99798571428576
549.86,79.09091904761911
552.515,86.31279047619054
555.168,97.24173809523819
557.819,126.836161904762
560.469,159.24493333333342
563.116,162.37833333333342
565.761,152.76571428571438
568.405,149.65014285714295
571.047,151.7514761904763
573.687,165.21685714285726
576.324,184.57485714285727
578.96,178.54366666666678
581.594,151.65100000000012
584.227,154.56696000000008
586.857,107.4856314285715
589.485,90.64769142857148
592.112,99.15133047619054
594.737,108.80854857142867
597.359,124.85967904761915
599.98,156.4490552380953
602.599,146.3876952380953
605.216,124.24807619047625
607.831,100.50720000000004
610.445,85.02297142857147
613.056,77.84326666666674
615.666,78.77726190476199
618.274,116.53882857142867
620.88,123.36557619047626
623.484,130.1133238095239
626.086,138.63818571428578
628.686,141.7958761904763
631.284,161.6319523809525
633.881,186.28728571428582
636.476,192.5214285714287
639.068,189.426761904762
641.659,168.04804761904768
644.249,142.3346000000001
646.836,136.759180952381
649.421,109.84197142857148
652.005,113.43655238095243
654.587,94.01498571428576
657.166,69.04921904761908
659.745,53.67770476190478
662.321,26.943547619047635
664.895,30.889876190476244
667.468,58.178647619047666
670.038,68.28097142857148
672.607,80.71575238095244
675.174,93.90644571428575
677.739,70.56224952380956
680.303,50.72578333333334
682.864,28.391685714285728
685.424,22.31673238095241
687.982,22.73379214285717
690.538,31.16146285714287
693.092,35.16606166666668
695.645,19.21866476190477
698.195,9.980879761904779
700.744,35.16203619047621
703.291,24.328679047619055
705.836,16.714134761904788
708.38,31.980399047619073
710.921,49.17054761904767
713.461,68.8039714285715
715.999,100.16211904761909
718.535,90.24093809523814
721.069,104.41733333333339
723.602,79.83040952380955
726.133,74.09555238095243
728.662,65.49495238095241
731.189,60.21570952380957
733.714,56.873690476190525
736.238,81.6562428571429
738.759,79.70331904761912
741.279,98.39323333333338
743.798,87.86625714285718
746.314,80.50087619047622
748.829,56.96146666666668
751.342,43.38868571428576
753.853,38.35184285714289
756.362,51.753895238095275
758.869,65.49784761904766
761.375,71.67732857142862
763.879,84.52875714285719
766.381,83.6223904761905
768.882,58.7665190476191
771.38,84.5790095238096
773.877,108.20180476190484
776.372,113.01476666666674
778.866,129.3979571428572
781.357,120.20821428571435
783.847,86.15922380952387
786.335,92.01243809523815
788.821,83.43420000000005
791.306,74.61460000000005
793.789,75.22006666666672
796.27,112.39377619047627
798.749,134.08797619047627
801.227,167.39824761904774
803.702,190.2770380952382
806.176,178.1058571428572
808.649,157.64671428571438
811.119,160.5194761904763
813.588,161.58161904761914
816.055,151.21502380952387
818.521,147.61076190476197
820.984,120.15107142857148
823.446,120.97927619047627
825.906,117.14408571428577
828.365,129.26572380952385
830.821,97.345180952381
833.276,91.14560952380957
835.729,73.09698571428576
838.181,75.91462857142862
840.631,70.17147142857148
843.079,73.34533809523813
845.525,66.7708571428572
847.97,91.21158095238101
850.412,95.19284857142861
852.854,70.04965809523813
855.293,51.259897142857156
857.731,33.11099428571431
860.167,37.747587619047664
862.601,44.695320000000024
865.034,45.81316761904764
867.465,48.8649428571429
869.894,60.376352380952426
872.321,58.39694761904765
874.747,65.21443333333337
877.171,58.9260666666667
879.594,49.629104761904806
882.014,76.7543571428572
884.433,87.11324761904766
886.851,65.27929047619051
889.266,61.016523809523854
891.68,79.61285238095243
894.092,83.02280952380961
896.503,129.7723571428572
898.912,137.7685047619048
901.319,119.15622857142864
903.724,96.31886190476196
906.128,100.73479047619054
908.53,107.12070000000008
910.931,132.43061904761913
913.329,143.7147476190477
915.726,144.2609571428572
918.122,113.92872857142862
920.516,90.95837619047623
922.908,81.06661428571434
925.298,66.826680952381
927.687,61.621985714285756
930.074,81.74034285714292
932.459,93.75534285714294
934.843,123.0028000000001
937.225,122.86564761904766
939.605,100.8698666666667
941.984,57.44617142857145
944.361,34.69174761904764
946.736,12.323061904761934
949.11,36.151928571428606
951.482,60.656408571428614
953.853,63.600494285714305
956.222,65.93854571428574
958.589,53.67251333333334
960.954,21.375805714285733
963.318,17.193138095238123
965.68,26.65023904761906
968.041,30.748910476190517
970.4,47.01473142857145
972.757,54.592321904761924
975.113,49.38810952380955
977.467,32.49894285714286
979.819,17.16454285714287
982.17,11.195876190476199
984.519,19.642023809523838
986.866,18.361457142857162
989.212,46.498419047619095
991.556,61.815923809523866
993.899,95.17230476190484
996.24,120.99698571428577
998.579,136.57653809523813
1000.92,100.86410952380959
1003.25,85.5747666666667
1005.59,78.66172857142864
1007.92,86.98256666666674
1010.25,103.49009047619055
1012.58,118.66061904761911
1014.91,109.68507142857149
1017.24,105.3729714285715
1019.56,96.10575714285721
1021.88,108.64522857142866
1024.2,118.27695714285721
1026.52,124.9056095238096
1028.84,129.150161904762
1031.16,146.01001904761915
1033.48,154.7706666666668
1035.79,202.95542857142874
1038.1,241.08752380952396
1040.41,271.4047619047621
1042.72,285.5735238095239
1045.03,285.0213809523811
1047.33,252.98561904761917
1049.64,238.989142857143
1051.94,205.03128571428581
1054.24,190.7776666666668
1056.54,178.56095238095247
1058.84,161.99904761904773
1061.13,124.99561904761913
1063.43,148.4065714285715
1065.72,149.51685714285725
1068.01,168.6584285714287
1070.3,209.68704761904775
1072.59,209.69666666666677
1074.87,188.92395238095253
1077.16,205.84390476190487
1079.44,204.02676190476205
1081.72,197.04271428571445
1084.0,241.93761904761925
1086.28,291.5671428571431
1088.56,380.26295238095275
1090.84,504.6901428571432
1093.11,616.3235714285719
1095.38,625.4475714285718
1097.65,553.1078571428574
1099.92,448.2553809523812
1102.19,353.7931428571431
1104.46,315.4334761904764
1106.72,340.74666666666695
1108.98,363.3973809523812
1111.24,376.5743333333336
1113.5,422.9904285714288
1115.76,441.64395238095267
1118.02,454.19966666666693
1120.28,458.98947619047647
1122.53,437.6778571428573
1124.78,405.1206190476193
1127.03,361.554142857143
1129.28,303.26219047619065
1131.53,250.14809523809538
1133.77,216.21014285714296
1136.02,198.87514285714298
1138.26,178.28428571428583
1140.5,184.53085714285726
1142.74,197.04185714285725
1144.98,207.57804761904777
1147.22,211.23280952380964
1149.45,212.19504761904773
1151.69,201.4153809523811
1153.92,218.41623809523819
1156.15,208.38661904761915
1158.38,185.61071428571438
1160.61,152.70595238095245
1162.83,141.09968571428578
1165.06,139.98089047619055
1167.28,116.34832142857145
1169.5,89.62912380952385
1171.72,67.58379761904767
1173.94,61.78253809523816
1176.16,97.0816833333334
1178.37,100.57493809523812
1180.58,95.49931428571433
1182.8,74.5204523809524
1185.01,60.73259523809528
1187.22,52.468190476190514
1189.42,43.77413142857144
1191.63,11.07805666666668
1193.84,8.617373809523809
1196.04,-10.084666666666662
1198.24,2.542866190476216
1200.44,31.880524761904795
1202.64,56.88036619047623
1204.84,64.20881571428573
1207.03,45.008590476190484
1209.23,25.66060857142859
1211.42,10.593472857142865
1213.61,14.140664761904787
1215.8,23.302403333333345
1217.99,34.74570285714289
1220.18,40.89953952380956
1222.36,55.145413333333366
1224.55,47.293395238095265
1226.73,52.534685714285736
1228.91,44.917647619047656
1231.09,41.01460000000003
1233.27,49.96931428571433
1235.44,59.639938095238136
1237.62,71.55128571428577
1239.79,92.08568571428577
1241.96,102.00609047619052
1244.13,102.21843809523816
1246.3,99.9622952380953
1248.47,106.9056952380953
1250.64,124.3359714285715
1252.8,128.44514285714294
1254.96,141.47286666666676
1257.13,160.42034285714297
1259.29,184.24185714285727
1261.44,221.27276190476204
1263.6,255.08600000000013
1265.76,245.6834761904763
1267.91,232.40061904761916
1270.06,208.47704761904774
1272.22,178.62895238095248
1274.37,154.62052380952392
1276.51,145.262761904762
1278.66,149.32004761904773
1280.81,156.1753333333334
1282.95,160.78314285714296
1285.09,170.43085714285726
1287.23,174.50190476190485
1289.37,192.4742761904763
1291.51,186.58853809523816
1293.65,153.8466476190477
1295.78,118.77484285714291
1297.92,90.94636190476197
1300.05,83.93501428571437
1302.18,103.6950857142858
1304.31,124.08595238095248
1306.44,141.39557142857154
1308.57,183.95966666666678
1310.69,211.1134285714287
1312.82,230.76371428571446
1314.94,236.4840952380954
1317.06,234.18152380952392
1319.18,221.66766666666683
1321.3,232.1826190476192
1323.41,271.7282380952383
1325.53,320.35419047619064
1327.64,385.2055714285717
1329.75,438.99876190476215
1331.87,467.83052380952415
1333.98,471.98847619047643
1336.08,449.14123809523835
1338.19,391.48095238095254
1340.3,332.0572380952383
1342.4,287.3479523809525
1344.5,243.4499523809525
1346.6,228.031761904762
1348.7,190.85671428571436
1350.8,161.45009523809534
1352.9,151.7182380952382
1354.99,155.5194761904763
1357.09,182.80757142857155
1359.18,203.25038095238108
1361.27,218.1349523809525
1363.36,209.36733333333345
1365.45,211.42476190476202
1367.54,197.6413809523811
1369.62,203.16104761904774
1371.7,202.03223809523826
1373.79,235.25576190476207
1375.87,256.21309523809543
1377.95,280.85723809523824
1380.03,278.23638095238107
1382.1,251.97004761904773
1384.18,228.72542857142872
1386.25,211.35961904761916
1388.33,205.53923809523818
1390.4,194.740761904762
1392.47,146.0591904761905
1394.54,96.73238095238102
1396.6,93.23648571428578
1398.67,80.9042714285715
1400.74,94.64001904761913
1402.8,138.34785238095245
1404.86,129.88411904761912
1406.92,133.62904285714293
1408.98,134.0579571428572
1411.04,98.64593809523815
1413.09,104.63000476190484
1415.15,118.15171904761911
1417.2,130.30514285714298
1419.25,149.61273809523817
1421.3,153.6920000000001
1423.35,145.92242857142867
1425.4,141.5403571428572
1427.45,122.30600000000008
1429.49,126.59890000000009
1431.54,117.27437619047626
1433.58,117.33033809523816
1435.62,112.4318571428572
1437.66,89.05306666666671
1439.7,74.3822952380953
1441.74,76.17986666666671
1443.77,84.20538571428578
1445.81,107.17081904761915
1447.84,140.64571428571438
1449.87,165.0085904761906
1451.9,164.7810476190477
1453.93,147.91371428571438
1455.96,149.5947142857144
1457.98,148.9647142857144
1460.01,152.97371428571438
1462.03,169.90514285714295
1464.05,195.8993333333335
1466.07,227.7641904761907
1468.09,286.0683809523812
1470.11,325.0005714285716
1472.13,341.41542857142883
1474.14,317.4538095238097
1476.16,301.6367142857145
1478.17,272.5815714285716
1480.18,255.1906666666668
1482.19,222.41452380952396
1484.2,203.2509523809525
1486.21,157.31722857142867
1488.21,131.99181904761912
1490.22,109.89208095238101
1492.22,92.92084285714289
1494.22,74.83792380952386
1496.22,66.35584285714289
1498.22,50.99689047619051
1500.22,51.044866666666714
1502.22,58.11724285714289
1504.21,69.49817142857148
1506.21,74.99563809523812
1508.2,71.08438571428574
1510.19,48.048833333333356
1512.18,45.64955714285718
1514.17,43.26637619047622
1516.16,45.61247142857145
1518.14,44.163047619047646
1520.13,36.1076319047619
1522.11,7.969260476190485
1524.09,15.842430000000018
1526.07,12.82180333333334
1528.05,18.621184285714314
1530.03,33.002106190476205
1532.01,46.91665904761908
1533.98,36.65038476190478
1535.96,46.67941523809525
1537.93,29.47996000000002
1539.9,34.29023714285717
1541.87,41.300920952380984
1543.84,52.512306666666696
1545.81,52.54380000000003
1547.78,54.252966666666694
1549.74,52.92615714285719
1551.7,80.70662380952388
1553.67,102.88067619047627
1555.63,121.83014761904772
1557.59,145.22241904761916
1559.55,165.29661904761915
1561.5,164.00619047619057
1563.46,170.39931428571435
1565.41,139.19131428571436
1567.37,117.1452476190477
1569.32,111.30985714285723
1571.27,104.92447142857148
1573.22,94.18077142857149
1575.17,98.60367142857146
1577.11,88.14696190476195
1579.06,86.00240952380959
1581.0,94.60005238095242
1582.95,81.08401428571433
1584.89,74.69390000000006
1586.83,98.66923333333341
1588.77,137.44010000000011
1590.7,158.6744095238096
1592.64,174.89769523809534
1594.58,154.70664761904783
1596.51,135.9363047619052
1598.44,136.9216333333341
