Raman Shift,Processed Intensity
331.095,93.24099047619002
333.909,19.727611904761716
336.721,16.326797619047525
339.531,45.498980952381
342.339,30.60905238095239
345.145,41.18897619047622
347.949,45.724266666666686
350.751,21.08230000000001
353.55,0.6552685714285715
356.348,-8.306469523809543
359.144,-12.932439047619017
361.937,-6.684425714285698
364.729,31.500913333333372
367.518,49.16404000000004
370.306,85.941701904762
373.091,161.09085714285732
375.874,252.44121904761917
378.656,277.82342857142874
381.435,291.5935809523811
384.212,227.29869523809532
386.988,146.5822628571429
389.761,82.80326761904763
392.532,13.274320952380956
395.301,-3.9291104761904396
398.068,18.2698504761905
400.833,30.805904285714306
403.596,32.56746476190475
406.358,14.205994761904748
409.117,-21.673628571428573
411.874,-10.893971904761894
414.629,-6.419370476190477
417.382,0.3583061904761946
420.133,0.000632380952381606
422.882,3.546440476190499
425.629,23.940124761904823
428.374,93.12733380952389
431.117,154.38790285714296
433.858,182.62117619047632
436.597,202.4420190476192
439.334,197.27561904761916
442.069,173.5474857142858
444.802,143.2559857142858
447.533,117.06635238095245
450.262,112.35868095238108
452.989,173.13297142857158
455.714,243.38977619047637
458.438,260.22508095238106
461.159,212.59296190476195
463.878,143.82863333333339
466.595,81.79180952380956
469.31,67.15203333333339
472.024,82.96016190476196
474.735,81.55314761904768
477.444,101.36341904761913
480.152,126.01435714285722
482.857,140.41547619047628
485.561,163.42856666666677
488.262,157.3443095238096
490.962,129.26335238095245
493.659,143.19078571428582
496.355,138.46574285714294
499.048,128.28462380952388
501.74,126.89112380952386
504.43,83.10078571428575
507.118,66.01497142857151
509.804,94.78233809523817
512.488,161.83772380952394
515.17,201.6158142857144
517.85,222.36084761904772
520.528,167.36447619047627
523.204,112.63272857142861
525.878,61.314452380952446
528.551,83.32049047619054
531.221,90.03760476190483
533.89,115.99546761904769
536.556,98.05668190476194
539.221,57.17913523809527
541.883,45.79685619047624
544.544,60.62942571428576
547.203,71.39614857142864
549.86,105.7208390476191
552.515,106.46554285714289
555.168,80.11092380952387
557.819,101.51863809523817
560.469,111.21649047619054
563.116,104.16080952380959
565.761,104.40257619047627
568.405,117.99316666666675
571.047,123.65013333333344
573.687,159.18600476190485
576.324,186.1272000000001
578.96,185.00014285714295
581.594,173.61638095238106
584.227,165.31131428571436
586.857,123.37250476190482
589.485,97.18220000000005
592.112,81.59849523809531
594.737,94.47981904761915
597.359,129.06469523809534
599.98,164.59154285714294
602.599,138.63199047619054
605.216,129.66207619047628
607.831,99.10975238095243
610.445,76.16510952380956
613.056,61.96995714285718
615.666,71.90390000000005
618.274,71.39448095238104
620.88,113.20158571428581
623.484,156.13312857142867
626.086,176.66317142857153
628.686,193.07509523809534
631.284,211.12809523809534
633.881,214.20061904761917
636.476,203.19414285714296
639.068,213.867761904762
641.659,210.98009523809537
644.249,206.24200000000013
646.836,178.6975952380953
649.421,135.58119047619056
652.005,111.93669047619056
654.587,119.37909523809532
657.166,136.90439523809533
659.745,139.65120000000007
662.321,112.99643333333339
664.895,81.50733809523814
667.468,84.22766190476197
670.038,104.58169047619054
672.607,107.23202380952387
675.174,112.22215238095241
677.739,56.45287619047619
680.303,31.77746190476194
682.864,29.7161285714286
685.424,44.788900000000034
687.982,45.230495238095266
690.538,46.513845238095236
693.092,34.9215047619048
695.645,34.21245476190478
698.195,32.09817142857146
700.744,35.33795000000001
703.291,34.07218095238096
705.836,17.584276190476217
708.38,34.68153333333335
710.921,30.028657142857174
713.461,57.62369047619053
715.999,77.56016666666669
718.535,76.12214761904765
721.069,63.02243809523813
723.602,70.21192380952387
726.133,68.87980000000006
728.662,88.88191428571433
731.189,86.45525714285716
733.714,87.1224952380953
736.238,76.12078571428576
738.759,93.35390952380958
741.279,74.82101904761907
743.798,65.1403428571429
746.314,43.12066190476193
748.829,34.4754904761905
751.342,39.72796666666672
753.853,68.4965571428572
756.362,74.49490476190482
758.869,108.96069523809528
761.375,105.65521333333336
763.879,72.7208204761905
766.381,43.1569742857143
768.882,36.01104619047623
771.38,34.615750476190534
773.877,85.16141571428578
776.372,102.17119428571434
778.866,99.64472761904766
781.357,55.81978952380955
783.847,51.60071238095243
786.335,53.1776771428572
788.821,76.45530285714293
791.306,89.2426228571429
793.789,81.72985142857145
796.27,68.53560476190484
798.749,90.04054285714294
801.227,134.57790476190488
803.702,159.95675238095248
806.176,178.4626571428572
808.649,161.3812857142858
811.119,158.42642857142863
813.588,139.2170952380953
816.055,141.8008095238096
818.521,142.17714285714294
820.984,138.77485714285723
823.446,127.92733333333342
825.906,133.9198571428572
828.365,125.80009523809531
830.821,130.42519047619055
833.276,125.03323809523816
835.729,106.67207142857148
838.181,94.8180190476191
840.631,75.89959047619053
843.079,77.05994285714291
845.525,98.77526666666671
847.97,83.90303809523813
850.412,78.20535714285718
852.854,68.11119523809525
855.293,46.23988571428575
857.731,39.82992380952383
860.167,44.59597809523811
862.601,29.20521761904763
865.034,17.89620523809524
867.465,11.193346190476209
869.894,23.811507142857167
872.321,33.227502380952416
874.747,51.82295095238099
877.171,76.97964190476196
879.594,91.41269047619053
882.014,116.02745238095244
884.433,109.92023333333339
886.851,108.2822952380953
889.266,96.87664285714293
891.68,120.27609523809534
894.092,135.4337857142858
896.503,151.73193333333342
898.912,129.02890952380957
901.319,112.08772380952385
903.724,84.00513809523815
906.128,113.63967619047627
908.53,137.61189047619055
910.931,136.6853714285715
913.329,111.86156190476196
915.726,99.47537142857149
918.122,81.81441904761913
920.516,103.16596190476199
922.908,137.48464761904768
925.298,99.58183809523813
927.687,78.22135238095245
930.074,77.59583809523814
932.459,84.3741238095239
934.843,100.0345714285715
937.225,129.15102857142864
939.605,103.44017619047625
941.984,100.28516666666673
944.361,71.06959523809527
946.736,43.319514285714305
949.11,34.94248095238099
951.482,42.79805238095242
953.853,61.36487142857148
956.222,76.59780952380956
958.589,67.88034761904764
960.954,41.83395714285717
963.318,46.22315238095242
965.68,51.90729523809529
968.041,73.93637142857148
970.4,70.83650952380955
972.757,71.03848000000004
975.113,44.83013476190477
977.467,25.975512380952402
979.819,38.952565238095275
982.17,48.620507619047636
984.519,38.60017761904764
986.866,33.94088952380953
989.212,30.215571428571472
991.556,44.71144761904769
993.899,112.09659047619057
996.24,149.3723714285715
998.579,147.77802380952386
1000.92,116.88606190476195
1003.25,78.9830047619048
1005.59,71.97461428571435
1007.92,81.00463809523816
1010.25,94.35942380952388
1012.58,105.37288095238102
1014.91,121.33113333333341
1017.24,134.66344285714297
1019.56,129.7033476190477
1021.88,133.92746666666676
1024.2,151.47862380952392
1026.52,170.2615142857144
1028.84,195.5144714285716
1031.16,214.47554285714295
1033.48,197.1446190476192
1035.79,207.14080952380965
1038.1,241.70166666666682
1040.41,277.54085714285736
1042.72,330.70595238095257
1045.03,330.72004761904776
1047.33,298.43971428571444
1049.64,243.76923809523822
1051.94,196.94614285714297
1054.24,163.06461904761917
1056.54,159.02900000000008
1058.84,147.07642857142866
1061.13,145.4914761904763
1063.43,173.9879523809525
1065.72,184.65980952380963
1068.01,192.26780952380963
1070.3,182.334761904762
1072.59,184.85938095238103
1074.87,174.50747619047632
1077.16,170.03966666666676
1079.44,176.83547619047636
1081.72,214.13171428571445
1084.0,255.4507142857145
1086.28,310.124523809524
1088.56,399.67571428571455
1090.84,484.53119047619083
1093.11,583.7372857142861
1095.38,631.3402380952384
1097.65,605.5285714285718
1099.92,516.729666666667
1102.19,431.08471428571454
1104.46,371.97300000000024
1106.72,366.05957142857164
1108.98,364.34300000000025
1111.24,400.3926666666669
1113.5,429.5407619047622
1115.76,445.69004761904796
1118.02,468.26742857142887
1120.28,481.3188095238097
1122.53,442.2710476190478
1124.78,414.4084761904764
1127.03,358.06257142857163
1129.28,306.1364285714287
1131.53,281.19971428571444
1133.77,246.01252380952394
1136.02,210.76380952380964
1138.26,204.54719047619062
1140.5,205.4083809523811
1142.74,214.48861904761918
1144.98,244.45295238095252
1147.22,244.25185714285732
1149.45,246.93166666666679
1151.69,231.77628571428585
1153.92,212.87961904761917
1156.15,188.76380952380964
1158.38,177.42733333333345
1160.61,165.24938095238107
1162.83,164.89509523809534
1165.06,164.26781904761913
1167.28,142.6043952380953
1169.5,115.80819047619053
1171.72,96.68726190476195
1173.94,87.47832380952389
1176.16,109.79879523809532
1178.37,133.98097619047624
1180.58,117.54750952380957
1182.8,90.4971904761905
1185.01,62.44802857142861
1187.22,52.25585238095243
1189.42,63.82429047619051
1191.63,77.15245714285719
1193.84,75.6679285714286
1196.04,47.703123809523824
1198.24,26.92386666666669
1200.44,24.99602380952384
1202.64,42.29968095238101
1204.84,80.97716190476196
1207.03,104.31354761904764
1209.23,73.78454380952383
1211.42,30.58018904761905
1213.61,10.366792380952408
1215.8,16.3344728571429
1217.99,51.2451352380953
1220.18,78.14632714285717
1222.36,75.37147714285719
1224.55,87.0636952380953
1226.73,109.74697619047626
1228.91,100.94547619047624
1231.09,98.65960952380958
1233.27,77.27087142857147
1235.44,73.06573333333343
1237.62,96.75933809523818
1239.79,142.82825714285724
1241.96,126.32118095238101
1244.13,115.2864952380953
1246.3,104.20163333333343
1248.47,120.4488761904763
1250.64,144.64822380952393
1252.8,188.56272380952393
1254.96,198.955761904762
1257.13,210.92380952380964
1259.29,224.8968571428573
1261.44,248.78138095238114
1263.6,266.95952380952394
1265.76,263.9093809523811
1267.91,255.2039047619049
1270.06,220.70228571428586
1272.22,201.12028571428584
1274.37,184.07890476190488
1276.51,173.913142857143
1278.66,173.43461904761915
1280.81,193.0259523809525
1282.95,182.83219047619056
1285.09,177.09319047619056
1287.23,150.66847619047627
1289.37,157.1314285714287
1291.51,152.91300000000012
1293.65,163.6340952380953
1295.78,160.86823809523815
1297.92,151.42709523809532
1300.05,166.0274761904763
1302.18,184.71876190476198
1304.31,172.78938095238104
1306.44,185.4319047619049
1308.57,191.41038095238105
1310.69,208.06047619047632
1312.82,220.1940476190477
1314.94,208.05133333333345
1317.06,210.2539047619049
1319.18,232.37538095238108
1321.3,239.7512857142859
1323.41,272.24109523809545
1325.53,309.37071428571454
1327.64,368.42847619047643
1329.75,437.74980952380974
1331.87,447.76542857142874
1333.98,440.0968095238097
1336.08,400.5555714285716
1338.19,369.19133333333355
1340.3,334.7686666666669
1342.4,318.6702857142859
1344.5,271.23176190476204
1346.6,252.93128571428582
1348.7,221.39009523809534
1350.8,196.32442857142865
1352.9,164.1649047619049
1354.99,172.96085714285726
1357.09,190.19090476190487
1359.18,187.4754285714287
1361.27,173.7689523809525
1363.36,168.2637142857144
1365.45,168.2471904761906
1367.54,175.43500000000014
1369.62,209.01976190476205
1371.7,223.3836190476192
1373.79,261.8137619047621
1375.87,281.0736190476192
1377.95,297.4507142857144
1380.03,270.85076190476207
1382.1,253.7513809523811
1384.18,237.39185714285728
1386.25,237.05885714285725
1388.33,199.03895238095248
1390.4,169.71476190476199
1392.47,124.70589047619053
1394.54,97.87014761904769
1396.6,73.97032380952386
1398.67,73.57838571428577
1400.74,84.64728571428577
1402.8,112.55883333333341
1404.86,126.64638571428577
1406.92,142.71990476190484
1408.98,115.97002857142863
1411.04,105.39683809523815
1413.09,90.57180000000007
1415.15,97.25690476190485
1417.2,114.11839047619056
1419.25,129.6797333333334
1421.3,125.08349523809532
1423.35,136.56723809523817
1425.4,123.41595714285721
1427.45,123.96228571428577
1429.49,115.82443333333336
1431.54,98.81090000000005
1433.58,67.77789523809527
1435.62,66.39070952380956
1437.66,60.26707142857148
1439.7,70.31013809523814
1441.74,80.61365714285719
1443.77,83.89020476190478
1445.81,88.89972857142864
1447.84,102.87836190476196
1449.87,119.49070000000009
1451.9,116.78228095238103
1453.93,100.9889571428572
1455.96,98.58439047619056
1457.98,128.8046142857144
1460.01,145.45642380952393
1462.03,184.06113809523822
1464.05,200.23538095238106
1466.07,213.54776190476207
1468.09,244.5190952380954
1470.11,281.7663333333335
1472.13,298.9055714285716
1474.14,307.7912857142859
1476.16,284.75395238095257
1478.17,265.0766666666668
1480.18,233.94671428571442
1482.19,200.88566666666674
1484.2,173.98594285714293
1486.21,147.76845714285722
1488.21,113.04001428571435
1490.22,91.65540000000006
1492.22,81.7546047619048
1494.22,75.3830428571429
1496.22,65.77614761904763
1498.22,49.78867142857145
1500.22,44.98972380952384
1502.22,49.99609047619052
1504.21,50.32945714285717
1506.21,38.74963333333333
1508.2,24.540360000000003
1510.19,-2.1573376190476083
1512.18,1.702400952380982
1514.17,31.11797571428574
1516.16,43.42122476190478
1518.14,58.03929571428576
1520.13,66.78046476190478
1522.11,49.92922380952384
1524.09,34.91308571428574
1526.07,57.77852380952386
1528.05,53.762809523809565
1530.03,77.96031428571433
1532.01,73.08452380952383
1533.98,57.61087142857146
1535.96,39.15774761904766
1537.93,53.20056190476194
1539.9,56.11980476190481
1541.87,78.58156666666672
1543.84,78.01390952380957
1545.81,75.55926190476194
1547.78,72.21720952380959
1549.74,83.93988571428578
1551.7,101.10776666666672
1553.67,118.86351428571436
1555.63,127.96871428571437
1557.59,140.75680952380964
1559.55,148.13219047619057
1561.5,169.14257142857156
1563.46,175.50204761904774
1565.41,178.11542857142868
1567.37,160.12542857142867
1569.32,157.91306666666674
1571.27,132.52590000000006
1573.22,120.2975333333334
1575.17,100.56154761904767
1577.11,97.79450476190482
1579.06,88.37740476190484
1581.0,117.78648571428579
1582.95,125.02206666666675
1584.89,126.56078095238102
1586.83,115.5932857142858
1588.77,137.88214285714295
1590.7,161.9989523809525
1592.64,188.99161904761917
1594.58,203.50345238095247
1596.51,207.98738095238113
1598.44,201.27723809523837
