Raman Shift,Processed Intensity
331.095,68.29192952380934
333.909,34.00106714285705
336.721,17.433468571428513
339.531,11.878563809523827
342.339,7.363601904761902
345.145,9.940037142857154
347.949,4.707893333333332
350.751,-6.089111714285741
353.55,-30.49199385714287
356.348,-34.25512295238096
359.144,-20.227059952380923
361.937,17.459079904761932
364.729,55.09956138095242
367.518,70.32559400000005
370.306,99.48352857142865
373.091,176.9686047619049
375.874,274.32015238095255
378.656,316.26902857142875
381.435,287.9756476190477
384.212,198.60223809523814
386.988,83.97865714285716
389.761,13.888604761904777
392.532,-17.692371428571438
395.301,-40.930404761904775
398.068,-35.37118571428571
400.833,-16.082757142857144
403.596,-1.6079190476190492
406.358,-8.726238095238104
409.117,7.879380952380967
411.874,14.860669523809541
414.629,17.39442904761906
417.382,42.08746761904765
420.133,49.0236804761905
422.882,33.812158095238146
425.629,69.6343671428572
428.374,115.05405523809532
431.117,157.44536190476202
433.858,217.99335714285726
436.597,236.26450476190487
439.334,217.73109523809535
442.069,200.4375904761906
444.802,151.4770190476191
447.533,143.84789523809536
450.262,139.93069523809535
452.989,161.63008571428583
455.714,214.85173333333347
458.438,247.40649523809535
461.159,213.24861904761914
463.878,178.38073809523817
466.595,116.13909523809531
469.31,101.7653095238096
472.024,123.93050476190484
474.735,116.68652857142864
477.444,105.51429523809529
480.152,118.60963809523818
482.857,114.07329523809533
485.561,148.2926000000001
488.262,179.51185714285722
490.962,136.26125714285718
493.659,115.40460000000007
496.355,95.28214285714289
499.048,55.091547619047674
501.74,70.31680000000007
504.43,86.25066190476196
507.118,90.18661904761913
509.804,129.18004285714295
512.488,156.3338380952382
515.17,176.27490476190485
517.85,195.5828095238096
520.528,169.36019047619055
523.204,149.28209523809528
525.878,109.26100000000008
528.551,99.87600000000008
531.221,103.32538095238101
533.89,117.09310476190483
536.556,111.13896190476196
539.221,117.47073333333338
541.883,87.80991904761909
544.544,91.73491428571435
547.203,79.82428571428578
549.86,109.08508571428578
552.515,96.66677142857148
555.168,110.81374285714293
557.819,123.00849047619056
560.469,158.8285714285715
563.116,145.5180095238096
565.761,149.5589714285715
568.405,148.76584761904775
571.047,156.90549523809537
573.687,176.74477142857154
576.324,200.76458095238104
578.96,179.25489523809534
581.594,138.21972857142865
584.227,128.42421904761912
586.857,127.68155714285723
589.485,131.42350476190484
592.112,153.74801428571436
594.737,158.94326666666674
597.359,120.29703809523815
599.98,101.85888571428578
602.599,93.29712857142862
605.216,102.08930476190484
607.831,100.04561904761908
610.445,87.40477619047624
613.056,89.59580952380959
615.666,106.52344285714291
618.274,109.5207714285715
620.88,132.2065190476191
623.484,114.29406190476196
626.086,112.49634285714296
628.686,141.33605238095248
631.284,164.90645714285725
633.881,191.25357142857155
636.476,198.99414285714298
639.068,194.26869523809538
641.659,176.07429047619055
644.249,151.59888571428579
646.836,130.21999047619056
649.421,115.02966666666673
652.005,83.11951428571432
654.587,60.00967619047621
657.166,35.124880952380984
659.745,37.50889523809528
662.321,61.44313333333338
664.895,73.78044761904765
667.468,77.5164628571429
670.038,52.98004857142858
672.607,40.88092095238098
675.174,46.8811228571429
677.739,56.07125238095241
680.303,39.875160952380966
682.864,43.57384952380954
685.424,47.87693523809528
687.982,36.20830095238097
690.538,37.70616000000001
693.092,34.984995238095244
695.645,11.516522380952395
698.195,4.058249285714302
700.744,25.701170095238098
703.291,13.964889619047625
705.836,5.321516857142868
708.38,3.528998000000006
710.921,21.29771971428575
713.461,47.24298890476196
715.999,70.9325910476191
718.535,84.83911238095243
721.069,95.48288095238098
723.602,73.67006190476194
726.133,71.01636190476194
728.662,63.75671428571431
731.189,55.45939047619052
733.714,43.359395238095274
736.238,66.69200000000004
738.759,62.35891428571432
741.279,64.88113809523813
743.798,53.92261904761908
746.314,56.671109523809555
748.829,58.362323809523865
751.342,82.75564285714292
753.853,92.27699523809531
756.362,102.7337190476191
758.869,102.98057142857148
761.375,94.77727714285719
763.879,72.45523190476193
766.381,52.96458761904765
768.882,40.63678238095241
771.38,49.8983971428572
773.877,75.31924142857149
776.372,104.65937238095245
778.866,111.01240952380958
781.357,120.32914285714293
783.847,115.3699571428572
786.335,115.5142476190477
788.821,109.1417095238096
791.306,112.63205714285722
793.789,117.31724285714293
796.27,128.48207619047628
798.749,125.26809523809531
801.227,150.48390476190485
803.702,171.5572380952382
806.176,178.15409523809535
808.649,182.46380952380963
811.119,169.057380952381
813.588,147.02909523809532
816.055,139.61657142857152
818.521,149.10557142857152
820.984,150.1620000000001
823.446,166.21419047619057
825.906,165.64271428571436
828.365,162.49485714285723
830.821,149.15151428571437
833.276,129.37475238095246
835.729,122.78320000000008
838.181,107.61549047619054
840.631,112.91951428571437
843.079,134.7427476190477
845.525,150.89539047619056
847.97,135.23470476190485
850.412,128.28487619047624
852.854,97.42748095238102
855.293,86.09179047619052
857.731,94.75448095238102
860.167,123.08313047619055
862.601,107.55453285714292
865.034,85.3601228571429
867.465,83.83425285714291
869.894,69.26351809523815
872.321,87.64896142857152
874.747,121.6586114285715
877.171,139.29338095238103
879.594,126.45946666666673
882.014,137.72964761904768
884.433,118.58170000000007
886.851,138.15950476190486
889.266,136.65544285714296
891.68,160.54694285714294
894.092,175.69315238095248
896.503,176.61936666666674
898.912,150.2799238095239
901.319,142.05734761904768
903.724,124.4774000000001
906.128,143.58950952380965
908.53,190.6816761904763
910.931,198.75576190476198
913.329,196.62338095238104
915.726,177.71509523809533
918.122,153.5570000000001
920.516,141.05590476190486
922.908,135.49990476190482
925.298,121.08200000000008
927.687,119.23323809523819
930.074,137.8128952380953
932.459,131.48996666666673
934.843,121.8382571428572
937.225,113.52691904761909
939.605,91.36831428571433
941.984,69.07933333333338
944.361,66.94836190476194
946.736,68.02550000000005
949.11,73.93257619047624
951.482,86.81520000000006
953.853,94.77125238095243
956.222,110.51807142857149
958.589,99.29635238095243
960.954,87.39466666666671
963.318,71.05402380952384
965.68,57.99165238095243
968.041,72.68641428571436
970.4,99.99885714285719
972.757,87.07459047619051
975.113,74.20237142857145
977.467,33.76620952380952
979.819,11.816747619047643
982.17,14.499719047619067
984.519,35.3898047619048
986.866,40.394880952380994
989.212,62.75611428571433
991.556,83.52417619047627
993.899,118.89286190476199
996.24,145.2463238095239
998.579,148.73027238095244
1000.92,97.9191961904762
1003.25,49.33978285714289
1005.59,45.566294285714335
1007.92,50.316030476190534
1010.25,69.30600095238101
1012.58,95.395900952381
1014.91,94.68333809523813
1017.24,77.07541428571433
1019.56,75.57436190476194
1021.88,76.75365238095242
1024.2,55.99609047619053
1026.52,81.39889047619056
1028.84,127.63009047619056
1031.16,143.40533333333343
1033.48,178.34470952380963
1035.79,212.30679047619057
1038.1,199.3874285714287
1040.41,233.73052380952396
1042.72,276.5748095238097
1045.03,261.06338095238107
1047.33,242.72023809523822
1049.64,211.45085714285725
1051.94,161.6359523809525
1054.24,164.70429523809537
1056.54,155.0840714285715
1058.84,126.67946190476198
1061.13,111.34728095238103
1063.43,101.08714761904768
1065.72,99.66010952380961
1068.01,117.87492857142864
1070.3,117.63546666666674
1072.59,122.55990476190485
1074.87,128.7422857142858
1077.16,138.5622380952382
1079.44,162.30433333333346
1081.72,197.25266666666684
1084.0,251.9296666666669
1086.28,321.80990476190505
1088.56,404.79652380952405
1090.84,494.55419047619085
1093.11,559.5577142857146
1095.38,546.7097142857147
1097.65,507.05576190476216
1099.92,440.831904761905
1102.19,373.8932380952383
1104.46,334.7611904761907
1106.72,353.1480476190478
1108.98,348.5276190476193
1111.24,368.2307619047621
1113.5,393.9694761904764
1115.76,395.9315714285716
1118.02,421.3530000000003
1120.28,439.4692380952383
1122.53,420.8491904761907
1124.78,384.5376666666669
1127.03,322.9606190476192
1129.28,269.82952380952395
1131.53,242.04680952380966
1133.77,181.37138095238106
1136.02,160.03876190476203
1138.26,170.2364761904763
1140.5,172.10480952380965
1142.74,185.78371428571438
1144.98,178.55642857142865
1147.22,167.22928571428582
1149.45,171.37100000000012
1151.69,185.50242857142868
1153.92,199.66866666666678
1156.15,183.43842857142866
1158.38,168.7615238095239
1160.61,164.53960000000006
1162.83,135.3413571428572
1165.06,111.11638095238102
1167.28,92.10016190476196
1169.5,61.29013333333337
1171.72,56.112309523809564
1173.94,64.94503809523815
1176.16,96.3572095238096
1178.37,112.20331904761909
1180.58,100.4809190476191
1182.8,87.37801428571431
1185.01,61.84462857142859
1187.22,33.21185714285717
1189.42,24.763228571428566
1191.63,15.782090476190495
1193.84,18.933018095238126
1196.04,31.928210476190493
1198.24,26.241883333333345
1200.44,25.157823809523823
1202.64,19.245703333333363
1204.84,45.741936190476224
1207.03,49.26400333333335
1209.23,39.66764000000001
1211.42,19.95156666666669
1213.61,34.20985714285719
1215.8,45.25113809523814
1217.99,78.12220952380957
1220.18,70.01289523809527
1222.36,63.11323333333337
1224.55,46.80385238095242
1226.73,59.60818571428576
1228.91,63.05022857142862
1231.09,91.3204333333334
1233.27,96.75245238095243
1235.44,93.01332380952384
1237.62,83.34182857142864
1239.79,79.07155238095244
1241.96,85.01287619047628
1244.13,108.16664761904768
1246.3,116.72450476190483
1248.47,143.54458095238104
1250.64,170.29486666666674
1252.8,158.78619047619057
1254.96,163.97204761904771
1257.13,170.5210000000001
1259.29,190.67285714285728
1261.44,237.0003809523811
1263.6,261.0294761904763
1265.76,244.0004285714287
1267.91,209.86704761904772
1270.06,187.01276190476204
1272.22,188.29676190476204
1274.37,187.76871428571442
1276.51,177.05038095238106
1278.66,165.57247619047627
1280.81,153.67057142857155
1282.95,147.01414285714296
1285.09,154.41509523809535
1287.23,162.4478095238096
1289.37,169.0194761904763
1291.51,164.56138095238106
1293.65,170.40952380952388
1295.78,162.42435238095246
1297.92,139.56075714285723
1300.05,123.67918095238105
1302.18,120.78186190476198
1304.31,122.06265714285725
1306.44,159.28618571428584
1308.57,199.21787619047626
1310.69,204.52695238095248
1312.82,206.740761904762
1314.94,200.5284761904763
1317.06,187.46514285714295
1319.18,192.07733333333346
1321.3,214.51119047619065
1323.41,249.76947619047638
1325.53,303.76047619047637
1327.64,376.29652380952405
1329.75,433.14300000000026
1331.87,454.77866666666694
1333.98,460.30233333333365
1336.08,453.0022857142859
1338.19,385.64380952380964
1340.3,333.70600000000013
1342.4,287.7155238095239
1344.5,258.0085238095239
1346.6,220.92161904761917
1348.7,204.93347619047628
1350.8,174.71390476190487
1352.9,164.9802380952382
1354.99,173.3539047619049
1357.09,192.93290476190484
1359.18,196.67209523809535
1361.27,176.6692857142858
1363.36,171.5936666666668
1365.45,166.4481904761906
1367.54,182.9970000000001
1369.62,195.861142857143
1371.7,222.0428571428573
1373.79,239.16347619047636
1375.87,250.22523809523824
1377.95,273.94452380952396
1380.03,276.8470952380954
1382.1,263.36309523809535
1384.18,235.39890476190487
1386.25,234.14676190476206
1388.33,203.08480952380964
1390.4,195.92856190476198
1392.47,157.44137619047626
1394.54,124.43404761904769
1396.6,89.00266666666673
1398.67,81.95787619047624
1400.74,77.34822857142863
1402.8,97.79358095238102
1404.86,97.34230952380958
1406.92,116.28051428571435
1408.98,113.13257142857148
1411.04,106.23204761904769
1413.09,95.15040000000006
1415.15,101.79236190476198
1417.2,97.20536190476199
1419.25,112.62740000000007
1421.3,123.39130476190483
1423.35,100.97270952380956
1425.4,86.56117142857148
1427.45,77.01291904761908
1429.49,69.99353333333339
1431.54,78.97826666666671
1433.58,75.82260952380956
1435.62,60.09630952380958
1437.66,63.84526666666671
1439.7,85.06773809523818
1441.74,117.09502857142866
1443.77,118.54397142857147
1445.81,100.36450476190481
1447.84,81.74449047619052
1449.87,68.34808571428577
1451.9,67.79156190476195
1453.93,89.45315238095245
1455.96,99.6153714285715
1457.98,113.70403809523816
1460.01,123.23959523809533
1462.03,148.55209523809532
1464.05,178.8766666666668
1466.07,233.87628571428587
1468.09,284.26190476190493
1470.11,304.41114285714303
1472.13,320.98680952380965
1474.14,307.46161904761925
1476.16,313.21338095238116
1478.17,297.42852380952394
1480.18,259.96109523809537
1482.19,221.28328571428585
1484.2,205.34410476190487
1486.21,168.56839523809532
1488.21,126.71468571428576
1490.22,86.73163809523814
1492.22,63.80655238095244
1494.22,77.9832095238096
1496.22,104.87766666666673
1498.22,116.01031904761909
1500.22,98.28269523809529
1502.22,64.16786666666668
1504.21,48.75809523809527
1506.21,21.240714285714287
1508.2,23.80333333333337
1510.19,23.82429523809526
1512.18,47.11048095238099
1514.17,54.32611904761909
1516.16,73.849780952381
1518.14,70.77449047619054
1520.13,81.00270000000003
1522.11,57.67541428571431
1524.09,62.98116190476193
1526.07,51.53720952380956
1528.05,60.389633333333386
1530.03,89.20338000000005
1532.01,70.83411095238098
1533.98,68.99475523809531
1535.96,89.30295095238102
1537.93,94.70986000000009
1539.9,120.54797761904769
1541.87,130.67309428571434
1543.84,109.46505714285719
1545.81,98.6850333333334
1547.78,98.61782857142865
1549.74,116.92944285714294
1551.7,138.85735238095248
1553.67,159.21031904761915
1555.63,177.89234285714295
1557.59,187.3791904761906
1559.55,205.718142857143
1561.5,216.38504761904773
1563.46,226.284142857143
1565.41,226.08209523809535
1567.37,206.11219047619062
1569.32,208.7549523809525
1571.27,204.62957142857155
1573.22,202.11695238095248
1575.17,200.45504761904772
1577.11,166.0248095238096
1579.06,157.6839523809525
1581.0,183.5274761904763
1582.95,187.07966666666678
1584.89,210.3887142857144
1586.83,193.54980952380964
1588.77,175.0394761904763
1590.7,194.76333333333346
1592.64,225.7214285714287
1594.58,241.74785714285707
1596.51,237.7002142857142
1598.44,203.57899999999998
