Raman Shift,Processed Intensity
331.095,97.66328571428532
333.909,36.9805904761903
336.721,30.985383333333274
339.531,53.46854761904766
342.339,69.33978571428574
345.145,55.65192380952382
347.949,35.41112380952377
350.751,-23.28039333333335
353.55,-39.22423142857143
356.348,-43.36406761904763
359.144,-20.213644761904746
361.937,2.380880000000011
364.729,15.812520952380986
367.518,51.47537333333341
370.306,128.86021904761918
373.091,219.3631333333335
375.874,317.9057761904764
378.656,347.41055238095254
381.435,313.13440000000014
384.212,215.66902380952388
386.988,123.55969047619054
389.761,79.11427142857147
392.532,46.97580000000002
395.301,6.407023809523812
398.068,1.5292476190476263
400.833,9.274819047619081
403.596,46.338971428571476
406.358,68.65642857142859
409.117,34.40122857142855
411.874,2.2724523809523856
414.629,-6.839076190476167
417.382,17.387328571428622
420.133,58.844938095238135
422.882,83.809280952381
425.629,92.22346666666677
428.374,137.12717142857156
431.117,207.70384761904776
433.858,235.61409523809536
436.597,219.3765714285715
439.334,175.6540476190477
442.069,152.53823809523823
444.802,149.31247619047633
447.533,186.87990476190487
450.262,208.95385714285726
452.989,221.81976190476203
455.714,225.62104761904777
458.438,238.8828095238096
461.159,207.1302523809525
463.878,145.93703809523814
466.595,103.35367142857149
469.31,93.43090476190483
472.024,92.3152333333334
474.735,113.01120952380958
477.444,115.33257142857147
480.152,103.76060000000007
482.857,108.39589523809532
485.561,144.81550476190486
488.262,135.35868095238104
490.962,144.6508476190477
493.659,134.65046190476198
496.355,100.745180952381
499.048,92.03684285714294
501.74,113.24664761904769
504.43,108.57237142857151
507.118,110.54520000000005
509.804,134.17205714285723
512.488,146.5080761904763
515.17,172.27489523809535
517.85,194.47957142857152
520.528,207.08218095238107
523.204,187.3282380952382
525.878,181.51061904761914
528.551,160.1127428571429
531.221,112.85600476190481
533.89,83.1760095238096
536.556,85.3653095238096
539.221,94.002480952381
541.883,96.61799523809529
544.544,91.74213809523815
547.203,87.19061904761911
549.86,100.54137619047627
552.515,113.99061904761913
555.168,132.3536476190477
557.819,125.73156190476197
560.469,125.51038095238104
563.116,141.40928571428577
565.761,141.86219047619056
568.405,134.01623809523818
571.047,132.87552380952388
573.687,148.3016666666668
576.324,175.2982380952382
578.96,196.05909523809532
581.594,174.30209523809532
584.227,156.22009523809533
586.857,129.7204857142858
589.485,125.99620000000007
592.112,102.62073333333339
594.737,106.40503809523817
597.359,122.30282857142868
599.98,161.26734285714298
602.599,183.06139047619055
605.216,177.25685714285723
607.831,113.9966666666667
610.445,75.09004761904768
613.056,72.39342857142864
615.666,85.95380952380961
618.274,108.43661904761915
620.88,147.17395238095247
623.484,163.35457142857155
626.086,162.309761904762
628.686,190.32285714285726
631.284,207.29600000000008
633.881,216.7025714285716
636.476,259.63514285714297
639.068,253.37585714285726
641.659,218.9691904761906
644.249,201.12519047619057
646.836,170.6019904761906
649.421,136.5383714285715
652.005,138.5967714285715
654.587,100.7248496761905
657.166,67.1564516761905
659.745,35.93406525714287
662.321,29.815161847619066
664.895,17.413665257142878
667.468,16.72466834285715
670.038,8.981197295238095
672.607,14.94011380952383
675.174,12.929666190476214
677.739,34.80193952380955
680.303,41.78999571428573
682.864,34.3649942857143
685.424,41.18862238095242
687.982,53.25594761904763
690.538,34.657323333333345
693.092,36.673684761904774
695.645,16.395525238095235
698.195,3.389697142857158
700.744,6.31836
703.291,19.98668952380954
705.836,11.295235714285726
708.38,26.76372857142859
710.921,26.86441190476193
713.461,35.069714285714326
715.999,56.94742857142863
718.535,98.73228571428578
721.069,113.3731333333334
723.602,111.10479523809528
726.133,73.73371904761906
728.662,71.59015714285721
731.189,76.67139523809529
733.714,80.45099047619053
736.238,85.78330952380955
738.759,73.42771904761908
741.279,54.667580952381016
743.798,86.54801428571434
746.314,101.97176190476196
748.829,96.03194761904767
751.342,84.20275714285718
753.853,87.19675714285721
756.362,86.869180952381
758.869,95.93248095238101
761.375,116.38535047619052
763.879,92.36900285714289
766.381,64.88210095238101
768.882,72.39971142857146
771.38,66.4443628571429
773.877,64.491240952381
776.372,92.25365047619053
778.866,77.20697619047623
781.357,67.20762857142864
783.847,88.54061428571435
786.335,100.63381904761911
788.821,101.48700476190484
791.306,126.09950476190484
793.789,120.13800000000009
796.27,134.69719047619057
798.749,161.39628571428582
801.227,183.85409523809534
803.702,182.9279523809525
806.176,198.28461904761915
808.649,189.3054761904763
811.119,203.2286666666668
813.588,195.5786857142858
816.055,166.11782857142865
818.521,126.9893714285715
820.984,122.95621904761914
823.446,138.11418095238105
825.906,149.98782857142865
828.365,170.95935238095248
830.821,160.07704761904768
833.276,149.91366666666676
835.729,139.56566666666674
838.181,132.55769047619052
840.631,100.93872380952388
843.079,89.1866285714286
845.525,80.2550666666667
847.97,95.52664190476196
850.412,80.43148000000004
852.854,69.78078380952384
855.293,55.76678190476193
857.731,44.867521904761944
860.167,55.27548476190482
862.601,83.56383238095242
865.034,65.44899523809528
867.465,66.07591523809526
869.894,44.113403333333345
872.321,37.56372571428575
874.747,46.80987761904767
877.171,76.5211733333334
879.594,95.46166047619054
882.014,112.53848190476194
884.433,89.08737142857147
886.851,82.92039047619053
889.266,70.56360000000005
891.68,75.44850476190481
894.092,92.9107714285715
896.503,118.19105714285723
898.912,130.3872857142858
901.319,137.26380952380958
903.724,124.58526666666673
906.128,111.54458095238103
908.53,109.66826666666675
910.931,120.95908571428579
913.329,140.61021904761913
915.726,126.10025238095244
918.122,117.71771428571434
920.516,87.32213333333335
922.908,52.58288571428574
925.298,46.31227619047625
927.687,71.89356190476197
930.074,89.32942857142864
932.459,112.43191904761909
934.843,92.6321285714286
937.225,48.21816190476194
939.605,49.430700000000044
941.984,40.8432666666667
944.361,57.07722857142863
946.736,79.75409800000004
949.11,62.30467680952383
951.482,55.39795838095243
953.853,64.08372366666669
956.222,52.4115107619048
958.589,58.287943476190506
960.954,45.38186466666669
963.318,40.59980000000006
965.68,86.80104285714293
968.041,122.51092933333341
970.4,122.35016314285717
972.757,97.17750723809526
975.113,51.94684352380955
977.467,24.326184380952405
979.819,17.74561266666668
982.17,23.25388076190477
984.519,21.375978095238114
986.866,11.684367619047642
989.212,43.13235809523813
991.556,66.00649047619052
993.899,83.02182857142863
996.24,107.56002857142865
998.579,127.66899047619054
1000.92,112.06342857142863
1003.25,122.93411428571436
1005.59,102.94789523809528
1007.92,91.67624761904767
1010.25,88.07169523809529
1012.58,83.94338571428577
1014.91,77.19597619047624
1017.24,78.21007142857148
1019.56,90.50921428571436
1021.88,107.52125714285721
1024.2,128.76938571428582
1026.52,137.1102333333334
1028.84,147.25737142857153
1031.16,156.40023333333346
1033.48,179.0143047619049
1035.79,191.81257142857157
1038.1,227.12747619047636
1040.41,250.0056190476192
1042.72,283.4934761904764
1045.03,277.87528571428584
1047.33,233.6260476190477
1049.64,179.7918095238096
1051.94,162.80000000000013
1054.24,145.8394761904763
1056.54,166.00385714285724
1058.84,172.1962380952382
1061.13,165.6055238095239
1063.43,151.70614285714296
1065.72,168.40104761904772
1068.01,184.78376190476203
1070.3,201.90019047619063
1072.59,212.93890476190484
1074.87,209.8505238095239
1077.16,212.49004761904774
1079.44,230.71242857142875
1081.72,271.8491904761907
1084.0,312.707904761905
1086.28,370.76276190476216
1088.56,449.34504761904793
1090.84,535.5003809523813
1093.11,615.7025714285718
1095.38,630.9020952380955
1097.65,596.0968571428575
1099.92,498.14180952380974
1102.19,416.891904761905
1104.46,373.96409523809547
1106.72,388.6417619047621
1108.98,387.7324761904764
1111.24,402.28185714285735
1113.5,414.62095238095264
1115.76,435.22390476190503
1118.02,459.89809523809555
1120.28,476.45080952380977
1122.53,469.9279523809526
1124.78,421.13657142857164
1127.03,391.17004761904775
1129.28,336.1216190476192
1131.53,269.27476190476204
1133.77,208.1989523809525
1136.02,185.46395238095252
1138.26,146.78161904761916
1140.5,153.57914285714295
1142.74,160.37842857142869
1144.98,192.41557142857158
1147.22,231.49866666666685
1149.45,279.5780952380954
1151.69,279.128142857143
1153.92,253.52852380952393
1156.15,207.72980952380962
1158.38,181.82595238095246
1160.61,150.38661904761912
1162.83,153.31526666666676
1165.06,140.18181428571435
1167.28,125.79470476190482
1169.5,112.39066666666672
1171.72,105.77840000000005
1173.94,93.9088571428572
1176.16,110.68581904761913
1178.37,107.77495238095244
1180.58,115.88953333333339
1182.8,103.79084952380958
1185.01,75.38312333333336
1187.22,45.18944666666668
1189.42,54.11395095238099
1191.63,36.10857571428575
1193.84,47.07758142857147
1196.04,70.54463476190479
1198.24,66.60476285714289
1200.44,65.44832428571435
1202.64,93.21830761904766
1204.84,81.7718947619048
1207.03,59.77600071428574
1209.23,48.84998047619048
1211.42,15.946661666666673
1213.61,11.59033571428575
1215.8,37.25785500000004
1217.99,63.949948095238135
1220.18,48.09600285714288
1222.36,58.12536000000003
1224.55,37.372519047619065
1226.73,46.83860952380957
1228.91,57.66776190476194
1231.09,66.4327285714286
1233.27,59.65876190476195
1235.44,60.252019047619065
1237.62,60.16670000000005
1239.79,80.02343333333337
1241.96,79.53838095238102
1244.13,113.85649047619057
1246.3,129.45581904761912
1248.47,123.95729523809533
1250.64,141.74437142857153
1252.8,152.86671428571435
1254.96,160.61216190476202
1257.13,176.12630476190486
1259.29,184.9351904761906
1261.44,229.56495238095255
1263.6,265.92333333333346
1265.76,249.9650476190477
1267.91,230.97847619047627
1270.06,197.1092380952382
1272.22,174.121761904762
1274.37,178.68590476190488
1276.51,166.89947619047626
1278.66,126.33690476190483
1280.81,121.3823333333334
1282.95,130.18114285714293
1285.09,134.97421904761913
1287.23,132.09840952380958
1289.37,125.08031428571437
1291.51,110.11357142857149
1293.65,104.82029047619052
1295.78,99.869980952381
1297.92,83.9323428571429
1300.05,71.24871904761909
1302.18,63.012780952381
1304.31,95.75116666666675
1306.44,118.27668095238104
1308.57,161.87810952380963
1310.69,154.89172857142864
1312.82,143.51114285714294
1314.94,120.40593809523818
1317.06,164.81740952380966
1319.18,192.22458571428587
1321.3,248.86846666666682
1323.41,268.2284285714287
1325.53,288.54557142857163
1327.64,288.53661904761924
1329.75,324.5382857142859
1331.87,326.3147619047621
1333.98,349.34490476190496
1336.08,338.8699523809525
1338.19,320.0354761904764
1340.3,279.60561904761926
1342.4,254.0593809523811
1344.5,214.20876190476204
1346.6,191.6274761904763
1348.7,154.22285714285724
1350.8,135.71123809523817
1352.9,113.42814285714294
1354.99,126.09000000000009
1357.09,137.8420952380953
1359.18,146.2576095238096
1361.27,132.38625238095244
1363.36,131.13421904761913
1365.45,113.50355714285722
1367.54,123.01950476190483
1369.62,118.82653809523816
1371.7,143.116561904762
1373.79,155.65280952380962
1375.87,186.57928571428585
1377.95,210.94504761904773
1380.03,209.70319047619057
1382.1,195.1402857142858
1384.18,194.92400952380962
1386.25,173.7691952380953
1388.33,139.58108571428576
1390.4,113.5029571428572
1392.47,92.82082857142862
1394.54,88.1061190476191
1396.6,93.93034761904767
1398.67,87.76959523809526
1400.74,50.48070476190478
1402.8,44.825080952381
1404.86,57.27843809523814
1406.92,64.50663809523813
1408.98,67.08020476190481
1411.04,80.42671904761909
1413.09,75.06878095238102
1415.15,94.76693333333338
1417.2,97.99590000000003
1419.25,90.51593333333338
1421.3,82.80144761904766
1423.35,70.27917142857146
1425.4,65.04224285714291
1427.45,75.0409047619048
1429.49,64.74907142857145
1431.54,61.1166666666667
1433.58,52.760204761904774
1435.62,23.43889523809526
1437.66,31.53097142857147
1439.7,52.223946666666706
1441.74,54.895770952380985
1443.77,45.01952714285714
1445.81,20.639632857142864
1447.84,25.562226190476235
1449.87,44.35552142857147
1451.9,57.53978523809528
1453.93,61.2067266666667
1455.96,52.44802380952386
1457.98,71.02187619047628
1460.01,109.8769476190477
1462.03,144.24776666666676
1464.05,174.03535238095247
1466.07,194.188142857143
1468.09,217.2738095238097
1470.11,263.24095238095254
1472.13,272.5143809523811
1474.14,297.56690476190494
1476.16,292.15628571428584
1478.17,270.5168095238096
1480.18,227.4542380952382
1482.19,192.10795238095247
1484.2,167.473961904762
1486.21,157.97772857142863
1488.21,129.52012857142864
1490.22,103.90737619047623
1492.22,62.94559047619052
1494.22,51.29827142857148
1496.22,67.53329047619053
1498.22,74.12389523809527
1500.22,82.30515523809527
1502.22,61.35984571428574
1504.21,37.8089866666667
1506.21,35.887987619047635
1508.2,38.88002952380955
1510.19,27.97314095238097
1512.18,25.069840952380957
1514.17,17.501342857142877
1516.16,19.40859047619051
1518.14,52.88480476190482
1520.13,79.45232190476193
1522.11,71.06199952380953
1524.09,44.33150619047619
1526.07,17.92629428571428
1528.05,-10.72615952380951
1530.03,1.0396638095238355
1532.01,29.7469928571429
1533.98,57.34745761904766
1535.96,71.60241809523814
1537.93,71.27335714285717
1539.9,65.26473333333338
1541.87,72.14782380952387
1543.84,86.68446666666671
1545.81,85.11277619047624
1547.78,92.57570952380959
1549.74,98.93071428571436
1551.7,103.7495857142858
1553.67,122.8424476190477
1555.63,154.87635238095248
1557.59,164.13790476190488
1559.55,199.62747619047636
1561.5,200.20304761904774
1563.46,183.38966666666676
1565.41,176.47390476190486
1567.37,165.3138095238096
1569.32,146.1012380952382
1571.27,162.36080952380962
1573.22,156.2845238095239
1575.17,157.35000000000008
1577.11,150.558380952381
1579.06,132.7683333333334
1581.0,123.9812857142858
1582.95,149.1510000000001
1584.89,158.75547619047626
1586.83,159.98650476190483
1588.77,128.4172666666667
1590.7,114.23991428571436
1592.64,114.69435238095247
1594.58,143.23462857142871
1596.51,165.24360000000007
1598.44,161.38976666666653
