Raman Shift,Processed Intensity
331.095,166.613379457679
333.909,130.40770312585028
336.721,125.24602908689803
339.531,138.6283740019885
342.339,132.55478785460627
345.145,175.81108489743065
347.949,213.68314602776536
350.751,247.2664592582123
353.55,323.4185173302094
356.348,351.0921677085248
359.144,355.2880101947917
361.937,345.3877469220015
364.729,373.0113418728092
367.518,376.39798992165333
370.306,416.69184778163435
373.091,478.8468125704453
375.874,576.7693956144021
378.656,640.5568343477184
381.435,628.0209184974942
384.212,507.21181626869884
386.988,330.75142433867677
389.761,187.5000511849912
392.532,99.46119565136814
395.301,58.59108741838645
398.068,47.60822747419479
400.833,41.61245239472373
403.596,13.703998623920597
406.358,-13.445052293652225
409.117,-31.4478999087778
411.874,-72.53634015431453
414.629,-102.60836773675874
417.382,-104.56149611833825
420.133,-116.95941871633659
422.882,-85.12725297092356
425.629,-6.103938977101279
428.374,78.11963434043082
431.117,155.5529697961556
433.858,247.39639711085738
436.597,252.3267461739738
439.334,242.02111554404837
442.069,217.82349809203424
444.802,206.6495018827004
447.533,199.74821391317937
450.262,225.98787337532667
452.989,273.4748782514307
455.714,313.220410957525
458.438,334.378492558134
461.159,306.1030846000681
463.878,247.0242385652773
466.595,184.05757865703526
469.31,146.21378458613208
472.024,113.78902673801167
474.735,101.69825848276878
477.444,99.57041324704187
480.152,127.36742275569804
482.857,173.38419820460285
485.561,192.67719325276676
488.262,216.82631341726392
490.962,230.03015880147996
493.659,247.62983825192987
496.355,263.108973991275
499.048,286.7127538703767
501.74,314.87650742987717
504.43,351.27332958082343
507.118,407.76646619005896
509.804,499.1712234751326
512.488,563.1597345420687
515.17,644.5942973517044
517.85,736.81309363842
520.528,787.5825744955296
523.204,837.1927031035325
525.878,877.4569593631222
528.551,888.8075826234517
531.221,934.486052505612
533.89,953.2573792499479
536.556,965.505346444309
539.221,949.5658489904026
541.883,931.6316596415713
544.544,941.6571955405616
547.203,971.2156657096821
549.86,931.2609804457138
552.515,955.2706130957913
555.168,938.1027475475462
557.819,987.2343781002169
560.469,1084.0470283833642
563.116,1169.9696131327346
565.761,1203.7165380613515
568.405,1223.430561635384
571.047,1188.0161330404749
573.687,1174.7108253861747
576.324,1163.9901022437093
578.96,1141.0911318027925
581.594,1131.3937438855846
584.227,1099.0394821987393
586.857,1062.5506565854548
589.485,1019.0684428965737
592.112,963.9719352426227
594.737,944.4495791982577
597.359,954.9753669114571
599.98,947.3088417365307
602.599,969.2570076290344
605.216,990.8171909216194
607.831,965.7960925760863
610.445,1011.7621737687623
613.056,1059.0456605235113
615.666,1150.357595963787
618.274,1305.50413065993
620.88,1487.3865272621765
623.484,1617.90592703843
626.086,1746.2490687929876
628.686,1839.459722070973
631.284,1944.581548934203
633.881,2008.0866800227654
636.476,2015.8757191880272
639.068,1939.6587005065999
641.659,1790.2408071990553
644.249,1596.9509476915068
646.836,1375.3084269152869
649.421,1139.3086652256688
652.005,893.0898697015473
654.587,666.8378006832072
657.166,482.50006211962364
659.745,365.40515382052126
662.321,278.4529522798707
664.895,199.54328673746886
667.468,179.3854676214769
670.038,166.49829118143998
672.607,139.82909174034694
675.174,133.56327013716873
677.739,100.45763169320708
680.303,56.17372417842989
682.864,31.37308053972174
685.424,11.19341401007705
687.982,-9.56089529145811
690.538,-14.990215247663855
693.092,-5.052027830549832
695.645,1.9152752187123951
698.195,-7.569500129536664
700.744,-21.511290865382307
703.291,-27.53400312510439
705.836,-17.404310600621102
708.38,20.968354299320254
710.921,8.817520657637488
713.461,33.80539743438294
715.999,68.83240350238157
718.535,83.22765096348849
721.069,83.12990465532357
723.602,82.7733035627748
726.133,53.43974889615856
728.662,54.60176835986749
731.189,69.9701423257743
733.714,72.39867286377148
736.238,26.788952772318225
738.759,-11.290579676724974
741.279,-15.985585993264522
743.798,-27.72724891462167
746.314,-24.375123562992485
748.829,-6.931418792277782
751.342,-21.636233743512093
753.853,-7.348511162399063
756.362,31.406341922324373
758.869,38.055497998166175
761.375,44.40727667767851
763.879,22.841617069162567
766.381,1.0243596711766259
768.882,8.47867112419135
771.38,28.918373724141475
773.877,50.105084459790305
776.372,90.03868738342317
778.866,98.62399645773439
781.357,99.14694221223635
783.847,116.03647268538543
786.335,128.76931150956443
788.821,146.8223350436897
791.306,177.29161617248292
793.789,211.55908715336182
796.27,261.72110722524076
798.749,344.3979825982874
801.227,448.73396263415043
803.702,540.921045550006
806.176,592.6751650749761
808.649,627.2838056779806
811.119,648.8917130336827
813.588,610.0246997265317
816.055,565.8753557167088
818.521,501.01733023464703
820.984,424.9767565326815
823.446,378.8989147319435
825.906,344.31013276449175
828.365,311.16540160115574
830.821,271.3721809555718
833.276,234.83801451201634
835.729,203.9943356294325
838.181,175.7964635216449
840.631,150.4855041994806
843.079,132.0169180795483
845.525,106.72718283111999
847.97,97.80998003253308
850.412,109.74476277997837
852.854,117.91579948675235
855.293,149.8502653015671
857.731,156.980143050655
860.167,130.07079084653878
862.601,86.07808112538214
865.034,61.196015874802015
867.465,49.71386567121499
869.894,75.63521347907454
872.321,92.82080797393019
874.747,110.89332162737492
877.171,121.09448974438146
879.594,113.7136780720648
882.014,108.61168850368222
884.433,100.6017076397743
886.851,66.73501725406095
889.266,77.34860952125018
891.68,85.87470700675021
894.092,123.22171122780674
896.503,147.53610359559616
898.912,151.8691082620785
901.319,142.17668830018602
903.724,134.74811331258616
906.128,119.44405084995742
908.53,136.6489435435633
910.931,124.08052909496246
913.329,107.31364598000755
915.726,88.8754677242705
918.122,66.29311813085042
920.516,63.47461984151869
922.908,85.08984289786304
925.298,119.57050092147756
927.687,160.729194913195
930.074,166.94988562375693
932.459,163.47360401971446
934.843,148.30320936837597
937.225,121.53671875132704
939.605,113.60539848271537
941.984,101.32137933705872
944.361,109.8300336818138
946.736,126.56235260994617
949.11,139.3301802153626
951.482,116.70716215405605
953.853,92.26683706239487
956.222,85.2969184515971
958.589,89.2754813641161
960.954,81.49000617287788
963.318,84.41832714241968
965.68,52.53815241860411
968.041,47.23182211356993
970.4,71.02439972401362
972.757,68.91700164471695
975.113,43.4820314439703
977.467,23.0536522342436
979.819,-11.748407623808816
982.17,-12.63790596020749
984.519,11.766483139714182
986.866,25.417357102077403
989.212,30.648104656721216
991.556,27.030045871132643
993.899,29.51528902016662
996.24,28.484349360528313
998.579,38.88900870353632
1000.92,16.585651178349508
1003.25,17.6209799475796
1005.59,-7.434647029477219
1007.92,-2.391974806572307
1010.25,-9.157131303807319
1012.58,4.315996842285131
1014.91,4.454340566674773
1017.24,23.494223729849637
1019.56,19.243272240451233
1021.88,25.937561721928887
1024.2,18.955908036336268
1026.52,14.010348284318525
1028.84,31.81281228129501
1031.16,44.5513178431645
1033.48,62.84235654819804
1035.79,107.25470807036595
1038.1,115.40468308409595
1040.41,106.67041378807448
1042.72,99.14423966713798
1045.03,99.01366468274296
1047.33,103.9423144634311
1049.64,156.5937506381465
1051.94,159.25052326479408
1054.24,159.3856042111745
1056.54,143.51953482162912
1058.84,131.36328786940567
1061.13,108.34208188997286
1063.43,119.83348122862458
1065.72,128.69121037379705
1068.01,138.38801590943717
1070.3,167.68233799118184
1072.59,190.4278389654005
1074.87,193.85912246442354
1077.16,185.87745250176886
1079.44,192.05075828165286
1081.72,179.80411519897916
1084.0,226.94355917265807
1086.28,304.89418669321503
1088.56,397.70015963229844
1090.84,499.35804338552134
1093.11,615.1025259676794
1095.38,645.5968990127365
1097.65,615.8854435357139
1099.92,516.4886728374331
1102.19,397.7366706473513
1104.46,334.34052450448894
1106.72,363.0113781859791
1108.98,384.55567461180704
1111.24,414.4465892257408
1113.5,428.68117766197906
1115.76,448.4946662689372
1118.02,491.16998072828005
1120.28,547.4663222929939
1122.53,553.857267834989
1124.78,550.0069651307947
1127.03,507.6748995758221
1129.28,458.71589899387095
1131.53,390.60394797044114
1133.77,334.6702879003369
1136.02,273.15104084478685
1138.26,244.9491191028501
1140.5,267.82470621139646
1142.74,335.823833183181
1144.98,381.46885950681894
1147.22,445.71085890867107
1149.45,437.73914797186535
1151.69,409.6955766600845
1153.92,384.0078664603941
1156.15,370.4372342403649
1158.38,344.6498256289981
1160.61,337.78814839766073
1162.83,304.23298203149193
1165.06,234.27004920556965
1167.28,177.42335392775453
1169.5,114.74090063389963
1171.72,55.46136566403402
1173.94,49.63314969090993
1176.16,65.40009681522929
1178.37,47.33483270848342
1180.58,46.676864660562615
1182.8,3.7611578178434684
1185.01,-16.505669531107515
1187.22,-22.788198288870944
1189.42,-35.750774788483795
1191.63,-32.6765549176007
1193.84,-14.372264881708816
1196.04,-24.596775224248177
1198.24,-9.632535397924585
1200.44,-25.09510505436424
1202.64,-16.31411646151605
1204.84,36.952428754560515
1207.03,70.61338406156733
1209.23,51.815871257559365
1211.42,46.46907465992081
1213.61,5.768035294337324
1215.8,32.95554032187101
1217.99,76.7982981803084
1220.18,73.15835241277023
1222.36,56.5644988140225
1224.55,81.68846448154886
1226.73,63.29727734282028
1228.91,86.34849282541518
1231.09,80.41875386048105
1233.27,60.13235088619081
1235.44,38.0659723273975
1237.62,39.46297888481104
1239.79,63.66196353845817
1241.96,155.14436303255798
1244.13,256.6773114604073
1246.3,362.5041128968862
1248.47,461.1537616500091
1250.64,573.6790339410475
1252.8,739.3231510132252
1254.96,972.9959660499392
1257.13,1200.5596749024985
1259.29,1371.0669077702544
1261.44,1516.1416780235788
1263.6,1593.026997693517
1265.76,1614.9182072471497
1267.91,1554.248686315331
1270.06,1410.4993739442407
1272.22,1219.151145989786
1274.37,1050.0657639405895
1276.51,905.8668237409636
1278.66,806.6064188996145
1280.81,707.2413274078556
1282.95,609.3472938959237
1285.09,548.11902607501
1287.23,521.0844768935779
1289.37,546.2953171698721
1291.51,560.3269320339539
1293.65,575.516512607833
1295.78,579.3440048284447
1297.92,604.5749630325472
1300.05,652.2605463987497
1302.18,705.8327534847876
1304.31,721.7234662886019
1306.44,728.1263514522841
1308.57,687.6159043231603
1310.69,701.5760168244014
1312.82,744.4856881827745
1314.94,795.8714023230511
1317.06,850.8309338338518
1319.18,877.938106314434
1321.3,858.4332650072038
1323.41,844.7947018111795
1325.53,816.2624612478337
1327.64,791.4573845221703
1329.75,724.9049154885743
1331.87,659.2255732833223
1333.98,601.2301868618636
1336.08,512.253224774192
1338.19,426.81945827355776
1340.3,370.453481568039
1342.4,285.2511368340156
1344.5,235.736653515356
1346.6,188.76740667022432
1348.7,152.8196276988417
1350.8,129.03601983315593
1352.9,110.27337362650474
1354.99,95.4835157766172
1357.09,81.28473413908455
1359.18,43.34272655036193
1361.27,53.22774012695572
1363.36,72.89075818366018
1365.45,55.52064396338528
1367.54,71.40128976366645
1369.62,90.95924225366048
1371.7,114.47800006956481
1373.79,143.09802569575436
1375.87,162.15009067925143
1377.95,151.01243036800656
1380.03,140.01551769679213
1382.1,144.25159887785935
1384.18,132.1461338535089
1386.25,112.69590341531193
1388.33,82.08806870430908
1390.4,44.79542118738232
1392.47,-0.9950340330228755
1394.54,-18.048733004425685
1396.6,-40.27401270051405
1398.67,-35.34114233014043
1400.74,-31.015642274902348
1402.8,-28.44398832190177
1404.86,-25.344081596591877
1406.92,-20.290959909749745
1408.98,-4.573940712782132
1411.04,23.89861420042098
1413.09,43.74215088719302
1415.15,91.429251161009
1417.2,122.95629627983612
1419.25,178.84346838454098
1421.3,264.4204662230163
1423.35,341.3979351600208
1425.4,366.3436590917763
1427.45,361.1587523605649
1429.49,273.8871850026633
1431.54,197.23959371056162
1433.58,156.97423565232498
1435.62,126.51603752904907
1437.66,119.09945415612901
1439.7,121.48275561594892
1441.74,113.61469536296136
1443.77,117.39641642399374
1445.81,121.72907188427985
1447.84,120.32335013539478
1449.87,135.88995250414382
1451.9,168.85388040525595
1453.93,203.7353891607513
1455.96,257.6261799145436
1457.98,296.61797249943015
1460.01,346.46917354216885
1462.03,422.4620207590335
1464.05,539.3549653466021
1466.07,720.4302924677922
1468.09,944.0655512617006
1470.11,1167.1145086629683
1472.13,1445.7642936973334
1474.14,1702.3925417771852
1476.16,1931.0435866161754
1478.17,2128.4760807152443
1480.18,2234.2582348962724
1482.19,2183.1011530738183
1484.2,2029.5731194078148
1486.21,1727.4805521229318
1488.21,1384.7251478041192
1490.22,1083.303882835018
1492.22,841.0233005506511
1494.22,628.5947507710703
1496.22,474.0629626683344
1498.22,328.23461763348564
1500.22,239.7735888102036
1502.22,189.48665681892453
1504.21,119.60922548096664
1506.21,65.66246611408155
1508.2,25.358080875626456
1510.19,-7.163600560927762
1512.18,-10.85742909139799
1514.17,-5.011527412204941
1516.16,7.895570385963765
1518.14,20.5282542858763
1520.13,40.02717329293864
1522.11,47.81876166906591
1524.09,36.32952915207147
1526.07,-2.252029777327607
1528.05,-27.023050438030168
1530.03,-33.84248391964161
1532.01,-5.85490233288192
1533.98,47.223788346697575
1535.96,92.91586996803403
1537.93,93.98180948141703
1539.9,78.56311335821647
1541.87,80.22994391536713
1543.84,79.26683087795777
1545.81,102.19647817990403
1547.78,131.44642790749117
1549.74,152.63477186195973
1551.7,158.95110121733296
1553.67,204.1565037972848
1555.63,231.15498992343942
1557.59,248.46968016842584
1559.55,273.6713740613186
1561.5,300.75949974545733
1563.46,309.7335398267451
1565.41,341.06921912670464
1567.37,305.0042162450666
1569.32,254.2048275032987
1571.27,225.8612023167159
1573.22,217.59210237610978
1575.17,222.30204178175995
1577.11,237.1336652726891
1579.06,198.84869788448532
1581.0,171.30413270236136
1582.95,136.404609090411
1584.89,123.67383853990782
1586.83,133.20698289856068
1588.77,146.718270695005
1590.7,144.3505182252013
1592.64,132.2941744483578
1594.58,83.00160397809282
1596.51,40.25851293074038
1598.44,27.231565249839832
