Raman Shift,Processed Intensity
331.095,42.8174712513146
333.909,1.476188878486937
336.721,1.5078503786353394
339.531,34.41246003212382
342.339,94.9043163943179
345.145,156.95963562358702
347.949,219.29274623787205
350.751,222.47514101411616
353.55,218.50690984007815
356.348,257.483410661383
359.144,323.4524166190595
361.937,365.0331679489673
364.729,439.98780483362634
367.518,449.3642288254641
370.306,477.49610712721324
373.091,532.336210205644
375.874,607.265939881499
378.656,644.3810478956088
381.435,614.6821163797772
384.212,497.6459907086114
386.988,355.1305456846885
389.761,211.5651660094386
392.532,107.04598865878597
395.301,53.62162144927197
398.068,42.53124255655939
400.833,40.44270003394513
403.596,34.64299228324626
406.358,10.562081859024602
409.117,-18.27471929861713
411.874,-48.770551612420604
414.629,-35.59033227141981
417.382,-40.16074849014194
420.133,-38.28930481527868
422.882,11.835672537387836
425.629,107.69264496810592
428.374,184.61732265362616
431.117,291.8978890895023
433.858,369.29880798727254
436.597,406.91796350498225
439.334,450.4247528586611
442.069,486.39341702903084
444.802,425.6363714682252
447.533,384.20420347316303
450.262,375.4332886065454
452.989,410.5172166416628
455.714,458.98297941196824
458.438,493.88144437492247
461.159,444.9778281758431
463.878,397.6564559260396
466.595,348.68266333808515
469.31,336.0123179087168
472.024,322.83943533982256
474.735,322.64379595943865
477.444,354.1909420951242
480.152,394.86550878067237
482.857,408.86169731995415
485.561,413.7070821841021
488.262,407.02451314677955
490.962,412.7225888480157
493.659,469.42422559613624
496.355,496.27617855065773
499.048,540.5204676670824
501.74,586.5896131654872
504.43,652.2018709991239
507.118,765.1231349896948
509.804,862.7383627721383
512.488,953.1944303108517
515.17,1060.781081653995
517.85,1131.3118786878008
520.528,1209.028960414697
523.204,1297.0792308028408
525.878,1348.9905466356759
528.551,1427.0050482186125
531.221,1466.126775800013
533.89,1500.550238373124
536.556,1502.850887239908
539.221,1470.9851133843995
541.883,1444.290244846065
544.544,1438.8178774264998
547.203,1372.9053006342115
549.86,1380.7469236294082
552.515,1400.9180821211648
555.168,1445.9940833598444
557.819,1501.1692511295037
560.469,1561.2569231212788
563.116,1585.0227816400848
565.761,1599.8991366922787
568.405,1627.3658757399867
571.047,1677.617127741145
573.687,1723.7993557609707
576.324,1734.2018305358088
578.96,1746.5423421322416
581.594,1696.3481497014245
584.227,1644.1464550429473
586.857,1572.131066644878
589.485,1531.3052541999969
592.112,1446.1484126458322
594.737,1434.0922500142237
597.359,1422.1874514713577
599.98,1434.8655814530425
602.599,1428.5105096095122
605.216,1482.4107891311764
607.831,1509.9501303124703
610.445,1608.9407312585654
613.056,1696.813751449225
615.666,1790.7145472074176
618.274,1893.5026690726918
620.88,2060.9423353650295
623.484,2237.3214771772728
626.086,2405.8803071770667
628.686,2559.811316980234
631.284,2663.0687983336784
633.881,2705.9402690601855
636.476,2701.0940894794057
639.068,2640.5318407336135
641.659,2466.1121316848757
644.249,2216.7410724789056
646.836,1927.991319537482
649.421,1586.6258824556166
652.005,1290.5505023273158
654.587,1035.908887214176
657.166,822.844614280657
659.745,651.6439843102917
662.321,523.8788762219019
664.895,408.8353158715263
667.468,353.65633056864135
670.038,295.67527978284943
672.607,281.5110906124778
675.174,267.4015884912719
677.739,243.96539932365204
680.303,233.01147066760223
682.864,225.5390691080279
685.424,179.9282538205939
687.982,144.32082632603988
690.538,93.23937548258755
693.092,46.96822724025333
695.645,20.553442014212123
698.195,0.183764439116203
700.744,10.57157814598213
703.291,23.61957713642414
705.836,22.65886574975457
708.38,44.73467886575554
710.921,52.844485602209716
713.461,79.31895257186761
715.999,125.9648163761949
718.535,157.8744227657844
721.069,168.99717056267627
723.602,168.85381272553013
726.133,163.34599551004612
728.662,139.4705595341411
731.189,99.51003131931384
733.714,96.3659719748739
736.238,79.70184969168668
738.759,74.32400747401925
741.279,76.18167849042857
743.798,57.224144281796725
746.314,31.59122630269485
748.829,24.89901555798633
751.342,-38.807731093895654
753.853,-55.96033749482376
756.362,-49.799526169413184
758.869,-19.518264261780132
761.375,-6.2141394804334595
763.879,12.872544259025744
766.381,14.834954940474745
768.882,11.004491982407217
771.38,38.56983148736299
773.877,74.71978101516515
776.372,110.35756292758424
778.866,137.81509773301195
781.357,160.71014457398633
783.847,144.04153695281593
786.335,105.42727560005324
788.821,86.86643086677577
791.306,131.59628321211085
793.789,228.47327321456214
796.27,343.63966586905053
798.749,438.57116726491176
801.227,521.315017454363
803.702,618.9661785590679
806.176,688.857808590984
808.649,754.2755447970198
811.119,777.3146441465483
813.588,747.0228381046386
816.055,715.5431874052879
818.521,674.923603491327
820.984,591.5454175733612
823.446,502.5043306411035
825.906,435.27707776041007
828.365,378.19761617985023
830.821,333.7904562944218
833.276,300.38970689497455
835.729,293.37716803668764
838.181,279.1347096218292
840.631,238.2823642682347
843.079,207.10689636825737
845.525,184.75227590961777
847.97,177.7911046772083
850.412,178.60556626441485
852.854,171.05409037016352
855.293,133.56658852452574
857.731,116.00159457624113
860.167,145.4081670850037
862.601,163.69255361851356
865.034,149.8562836209594
867.465,137.28188032911203
869.894,98.5900012598513
872.321,58.925150126263816
874.747,74.43186494421616
877.171,104.82614423416771
879.594,136.1097303658321
882.014,171.80820242665823
884.433,163.59002147125375
886.851,169.40938529462755
889.266,152.69670225304026
891.68,145.31096984676788
894.092,156.8731056838169
896.503,165.43261177697195
898.912,169.94376265037045
901.319,184.93226963655025
903.724,175.5905166020675
906.128,158.87279567311543
908.53,163.1143524849499
910.931,153.45995524084083
913.329,176.91151139007343
915.726,204.37568430595093
918.122,201.6638909161693
920.516,207.9208707617663
922.908,197.48182648464262
925.298,175.0152786007966
927.687,182.90401551165223
930.074,202.10223399157667
932.459,161.6117272944466
934.843,170.14854945068737
937.225,155.61920337383572
939.605,163.26349563377562
941.984,190.98786742044558
944.361,219.55586836469502
946.736,217.73101131151225
949.11,223.6577223313543
951.482,184.5280050171882
953.853,156.29572382915876
956.222,144.29564934401196
958.589,123.57678921881393
960.954,117.75952867847013
963.318,128.98800909848978
965.68,140.40631611155254
968.041,160.49181057121473
970.4,168.57893570610213
972.757,130.52588141694855
975.113,93.04791524030679
977.467,73.05071331225167
979.819,46.6779770463736
982.17,49.40666885938708
984.519,25.14224789673699
986.866,34.07581052011301
989.212,43.82694508067516
991.556,73.68182734619609
993.899,76.45036354723538
996.24,76.89476199475712
998.579,63.5866761263062
1000.92,79.47863326648508
1003.25,71.3326062445642
1005.59,78.434299297812
1007.92,68.78362445100788
1010.25,47.142320753099284
1012.58,33.89109732338352
1014.91,21.553443064352905
1017.24,5.224198279301163
1019.56,8.521935813739447
1021.88,10.63658029205044
1024.2,27.996075512410926
1026.52,39.933052711877735
1028.84,72.87530943272486
1031.16,106.9172407697431
1033.48,133.77222299848358
1035.79,135.1059495844661
1038.1,122.39357671618518
1040.41,114.3959164571695
1042.72,131.63562989803563
1045.03,152.20675364187446
1047.33,171.2032739086851
1049.64,170.4810339731448
1051.94,146.2291654119001
1054.24,136.25580506514325
1056.54,155.75000247438425
1058.84,161.9960082726027
1061.13,157.89708638391312
1063.43,161.16599288990892
1065.72,152.65831203885318
1068.01,147.56293511201238
1070.3,166.11634881380155
1072.59,190.50739985239602
1074.87,177.16301190130525
1077.16,191.51009303712453
1079.44,206.92791936776894
1081.72,214.79575675594128
1084.0,237.15953016164735
1086.28,327.1603977466127
1088.56,401.8918964072775
1090.84,522.3047063554072
1093.11,619.6352252225126
1095.38,632.5008088309364
1097.65,591.8997738697044
1099.92,520.211400570377
1102.19,429.57688776385294
1104.46,400.5184031752667
1106.72,391.7962289569782
1108.98,375.9801929358555
1111.24,406.0687189081698
1113.5,442.48882931544426
1115.76,483.95329077744464
1118.02,568.5558548632634
1120.28,621.9141179100236
1122.53,621.5028570320583
1124.78,595.7968899396085
1127.03,550.5091728527657
1129.28,465.11461270112454
1131.53,405.0405459901017
1133.77,349.0476938577269
1136.02,297.3730218933456
1138.26,283.1583142420284
1140.5,318.45017628041774
1142.74,363.10479919733166
1144.98,438.1689150505638
1147.22,508.5940851570201
1149.45,546.9509884828547
1151.69,563.9532338431245
1153.92,533.3145054347885
1156.15,484.177136941124
1158.38,424.7311618266276
1160.61,356.07145887001025
1162.83,294.4358500781482
1165.06,270.1574843143226
1167.28,233.7600780693092
1169.5,188.62458480390615
1171.72,152.8463404819222
1173.94,119.90173291269775
1176.16,68.36249014123769
1178.37,65.4194926478699
1180.58,46.59706173838458
1182.8,0.2767717436950079
1185.01,0.4593574575906132
1187.22,-3.9019498540740187
1189.42,-25.044276892699827
1191.63,-22.776057958242518
1193.84,-20.953223073234085
1196.04,-6.098245944963992
1198.24,10.552234195173924
1200.44,4.999788499415445
1202.64,-0.9919976528799452
1204.84,-4.80229117839167
1207.03,16.332698889811127
1209.23,35.41495528781661
1211.42,43.49417161194606
1213.61,47.905844491574726
1215.8,54.31888957147066
1217.99,93.87849558937137
1220.18,148.15850226308794
1222.36,163.92330198712716
1224.55,159.03259867218048
1226.73,159.44140467983743
1228.91,142.24765680492442
1231.09,142.50173701974677
1233.27,130.53980274214337
1235.44,125.36473615115187
1237.62,132.36042683601636
1239.79,222.67272111185616
1241.96,315.82846657343225
1244.13,407.4021756965319
1246.3,516.7303084869764
1248.47,630.006507510571
1250.64,794.8054043516329
1252.8,1017.2254736905572
1254.96,1235.6509350004374
1257.13,1465.0374637674856
1259.29,1747.8169503305078
1261.44,1972.135592053709
1263.6,2107.091985499496
1265.76,2142.403790029854
1267.91,2050.6934390267743
1270.06,1897.0119463507658
1272.22,1736.410331847004
1274.37,1531.2253325657537
1276.51,1315.0793996970817
1278.66,1132.5949812198567
1280.81,984.0611855031239
1282.95,883.3385401455807
1285.09,795.5256555769461
1287.23,721.7687458021956
1289.37,698.5949586695988
1291.51,701.8171347101838
1293.65,756.8671374057781
1295.78,817.5577548856149
1297.92,879.1303159086606
1300.05,931.4451629887963
1302.18,953.2197445676306
1304.31,975.5048024253952
1306.44,1021.6367495680392
1308.57,1032.9995719238404
1310.69,1067.2153014685914
1312.82,1087.0011560174516
1314.94,1072.883821873937
1317.06,1094.0089745741552
1319.18,1142.5222282024633
1321.3,1149.4262751833212
1323.41,1160.5332641683822
1325.53,1120.2743207807198
1327.64,1040.5566874066762
1329.75,1009.6208629877115
1331.87,970.4215523360558
1333.98,885.5800440217931
1336.08,790.050873974229
1338.19,685.3122986070671
1340.3,580.2710536578784
1342.4,531.5956844561429
1344.5,464.0022571436748
1346.6,367.4924508474219
1348.7,292.73450699513387
1350.8,227.3489405357791
1352.9,181.33710830282234
1354.99,147.50977737750372
1357.09,123.34426488068584
1359.18,115.6987206218455
1361.27,125.00260022425527
1363.36,111.06618586920922
1365.45,126.22344037358653
1367.54,105.09390888645157
1369.62,110.77319201424052
1371.7,134.45199037451175
1373.79,157.79705391160405
1375.87,170.9035597837244
1377.95,197.43796644050917
1380.03,162.92372484344833
1382.1,143.8365134958326
1384.18,135.88994966317546
1386.25,131.13082440315384
1388.33,107.0343375955515
1390.4,112.07552344839951
1392.47,76.9197236231571
1394.54,46.23210797894535
1396.6,20.106242935826685
1398.67,-2.0311496857250404
1400.74,-31.705905257974564
1402.8,0.7464446815320116
1404.86,22.4187713202914
1406.92,31.87996739518462
1408.98,44.65113752939851
1411.04,47.20560047732897
1413.09,86.34984704923863
1415.15,163.50925994067188
1417.2,263.7281192761527
1419.25,324.8124652957342
1421.3,398.7110562796463
1423.35,419.6582312348453
1425.4,450.2215344863275
1427.45,424.15886407796484
1429.49,376.2756201733455
1431.54,296.7580439327969
1433.58,246.8398897237455
1435.62,195.70719256917937
1437.66,211.7839879770563
1439.7,185.20850796019317
1441.74,162.49985324662748
1443.77,139.65323691854974
1445.81,124.04475186076661
1447.84,132.00280487582518
1449.87,162.617646037236
1451.9,177.74137423316733
1453.93,216.08318080537902
1455.96,261.25697414053457
1457.98,333.8290042615133
1460.01,437.0321540853945
1462.03,535.2421354433445
1464.05,675.7870184338394
1466.07,865.2805702996932
1468.09,1131.2413085908026
1470.11,1482.140125755466
1472.13,1862.5431518269402
1474.14,2226.8736647290416
1476.16,2554.7930482007987
1478.17,2759.8198449592046
1480.18,2869.9488098619495
1482.19,2798.269963070171
1484.2,2591.5876432111972
1486.21,2281.849084350809
1488.21,1891.572992965507
1490.22,1480.754315390966
1492.22,1143.1023386038173
1494.22,830.7549814796303
1496.22,598.3740384318357
1498.22,451.1928040030409
1500.22,305.96845936110117
1502.22,210.02969689043357
1504.21,121.46720192619296
1506.21,65.75270591701042
1508.2,22.11994434964572
1510.19,-3.2448615168423203
1512.18,-5.298237202636983
1514.17,30.908169584157577
1516.16,40.13235606847252
1518.14,55.75149289656315
1520.13,50.76192881477664
1522.11,-3.411280842158021
1524.09,-13.771512329510188
1526.07,-18.845806909023622
1528.05,-19.68486651491685
1530.03,-17.95828894232227
1532.01,2.9978140343678206
1533.98,-10.72394638440187
1535.96,0.3025228586018329
1537.93,11.598698416499928
1539.9,4.0671506960241
1541.87,-3.8656030972408644
1543.84,6.131849324482573
1545.81,5.96247790021016
1547.78,27.053186682405567
1549.74,62.49766648966056
1551.7,89.6754380355735
1553.67,138.06137124809993
1555.63,189.98758554128494
1557.59,240.02439770604087
1559.55,268.88507932473317
1561.5,259.9020427571927
1563.46,265.8839795076815
1565.41,283.1634747823348
1567.37,295.7874791894585
1569.32,279.5173042493525
1571.27,238.35242742794344
1573.22,180.95905907517772
1575.17,137.09870936341395
1577.11,99.34246951152818
1579.06,92.45195967569543
1581.0,82.33170541159075
1582.95,79.41008556516726
1584.89,51.87742302057541
1586.83,48.876456400464576
1588.77,51.50233557580577
1590.7,65.94547431857586
1592.64,43.872498192527246
1594.58,7.402430539202214
1596.51,-3.3933120122514993
1598.44,40.98526644093454
