Raman Shift,Processed Intensity
331.095,26.29386119047608
333.909,-6.8857776190475875
336.721,-5.964377261904673
339.531,15.677961428571454
342.339,42.18460261904765
345.145,65.67558238095239
347.949,45.29601714285712
350.751,-0.9508657142857229
353.55,-16.63214476190476
356.348,-27.647102857142862
359.144,-18.750977142857145
361.937,-26.03105666666668
364.729,-11.954265714285665
367.518,41.72784904761913
370.306,129.40816380952396
373.091,231.05237857142876
375.874,334.8179400000002
378.656,355.1492190476192
381.435,310.06337619047633
384.212,213.3883666666667
386.988,91.62050000000002
389.761,-12.361485714285715
392.532,-29.058499999999995
395.301,-21.35104285714285
398.068,-11.499157142857115
400.833,30.14341904761907
403.596,56.129138095238105
406.358,27.39280000000001
409.117,24.013380952380963
411.874,12.309319047619057
414.629,7.981219047619081
417.382,35.588204761904805
420.133,74.4048190476191
422.882,82.75413333333339
425.629,106.7703857142858
428.374,151.68380000000013
431.117,215.24942857142875
433.858,254.79480952380968
436.597,255.219761904762
439.334,211.04409523809537
442.069,147.83619047619055
444.802,115.92704761904773
447.533,133.0294761904763
450.262,159.856761904762
452.989,191.5991904761906
455.714,218.8767142857144
458.438,216.88057142857153
461.159,199.32695238095246
463.878,159.7420476190477
466.595,146.795361904762
469.31,114.91864761904766
472.024,98.59191428571435
474.735,99.48606666666673
477.444,104.55796190476197
480.152,104.66983809523819
482.857,127.92231428571436
485.561,124.2258095238096
488.262,156.15740000000008
490.962,158.77101904761915
493.659,154.59675238095247
496.355,153.92698095238103
499.048,151.10164761904772
501.74,139.93742857142865
504.43,139.1078952380953
507.118,121.90580000000008
509.804,110.76703809523818
512.488,124.12768571428583
515.17,161.18531428571438
517.85,192.8522761904763
520.528,207.94537142857155
523.204,200.47181428571434
525.878,155.29609047619053
528.551,120.04462380952386
531.221,72.62917142857147
533.89,63.24740476190481
536.556,69.0015428571429
539.221,66.80333333333338
541.883,79.1355952380953
544.544,99.29096190476196
547.203,101.22805714285724
549.86,113.1436476190477
552.515,125.85345714285722
555.168,126.88742857142866
557.819,140.48914285714295
560.469,164.2356666666668
563.116,196.4657142857144
565.761,213.7079523809525
568.405,208.82457142857152
571.047,169.9632333333334
573.687,111.74720952380957
576.324,97.8469571428572
578.96,90.55248571428577
581.594,93.81941428571434
584.227,96.0322190476191
586.857,84.81290952380957
589.485,71.25959047619055
592.112,93.42210952380958
594.737,85.0171428571429
597.359,73.95134761904765
599.98,59.13110952380955
602.599,50.98653333333338
605.216,56.709071428571484
607.831,78.10900952380958
610.445,96.56794761904769
613.056,115.46691428571437
615.666,116.61547619047626
618.274,113.7754190476191
620.88,88.85074285714289
623.484,68.26933809523814
626.086,71.02996190476198
628.686,88.9409476190477
631.284,106.95299047619056
633.881,166.49278571428584
636.476,191.32001904761918
639.068,210.90878095238105
641.659,185.39899523809532
644.249,154.21675238095244
646.836,114.83495714285722
649.421,111.63132380952389
652.005,93.07850952380957
654.587,94.31597619047625
657.166,66.76830000000004
659.745,62.76492857142861
662.321,56.53974000000002
664.895,31.564668571428584
667.468,23.740056190476217
670.038,28.72804571428574
672.607,51.476308571428625
675.174,80.69449238095243
677.739,93.42541619047623
680.303,91.14042380952385
682.864,76.21556190476194
685.424,76.45557142857149
687.982,87.99811428571434
690.538,76.88595238095242
693.092,66.16180476190479
695.645,48.72556666666667
698.195,1.429580952380963
700.744,10.98356666666669
703.291,25.144603809523822
705.836,26.527272857142876
708.38,25.079574285714283
710.921,19.17817952380952
713.461,-5.276254285714272
715.999,10.093253809523834
718.535,27.2828704761905
721.069,42.62227619047622
723.602,55.58410476190481
726.133,71.11733809523814
728.662,74.98063466666669
731.189,55.40895990476192
733.714,46.827886476190514
736.238,42.32980009523813
738.759,52.81675790476195
741.279,68.04787419047624
743.798,97.54451085714291
746.314,92.39967142857148
748.829,100.51582857142863
751.342,85.89085714285716
753.853,70.1418047619048
756.362,52.837961904761926
758.869,56.50139523809528
761.375,55.27335238095242
763.879,67.15220952380956
766.381,58.51747142857147
768.882,67.98672380952385
771.38,82.7493952380953
773.877,85.94694761904769
776.372,86.2450428571429
778.866,109.26168095238103
781.357,95.66268571428576
783.847,77.25675238095243
786.335,70.56724285714289
788.821,68.73626190476197
791.306,74.47768095238102
793.789,107.64802380952386
796.27,117.48505238095242
798.749,108.89347619047626
801.227,89.34940000000006
803.702,88.66206666666673
806.176,103.83176190476199
808.649,116.66790476190485
811.119,146.21809523809534
813.588,157.53038095238102
816.055,155.74793333333338
818.521,130.44221904761912
820.984,134.7570095238096
823.446,133.69254285714294
825.906,130.82093809523818
828.365,121.47631428571434
830.821,118.3260666666667
833.276,99.51370000000006
835.729,92.23060952380958
838.181,84.09658571428577
840.631,78.73162380952387
843.079,83.70837619047624
845.525,75.88500476190481
847.97,77.54832857142861
850.412,78.12812380952386
852.854,68.3875428571429
855.293,70.56574761904766
857.731,65.6642523809524
860.167,37.4938666666667
862.601,38.05604761904767
865.034,57.82842857142862
867.465,67.71720952380959
869.894,103.58124285714293
872.321,114.23140952380957
874.747,96.43120476190482
877.171,79.18233333333336
879.594,47.43879523809525
882.014,7.154680952380988
884.433,34.950928571428626
886.851,81.73400000000008
889.266,128.93411714285722
891.68,123.64833142857147
894.092,108.02126285714289
896.503,82.19768761904768
898.912,87.17946285714294
901.319,84.39717428571434
903.724,104.7573314285715
906.128,96.59501428571436
908.53,106.62682857142865
910.931,116.18775714285722
913.329,130.99423809523816
915.726,116.1434095238096
918.122,115.25622380952387
920.516,105.5726190476191
922.908,85.47596666666671
925.298,84.68200952380958
927.687,75.24091904761909
930.074,88.34504761904768
932.459,91.47270476190481
934.843,87.2926333333334
937.225,87.75931428571435
939.605,122.39831904761911
941.984,105.97394761904766
944.361,102.15483809523815
946.736,72.89551428571431
949.11,58.24592857142862
951.482,63.3984952380953
953.853,80.97429047619053
956.222,77.21366666666673
958.589,92.07096190476196
960.954,70.11990952380955
963.318,63.839080952380996
965.68,59.37331904761908
968.041,72.39130000000006
970.4,75.84777142857148
972.757,74.07805809523812
975.113,41.84640285714286
977.467,8.297808571428568
979.819,-10.184592380952356
982.17,7.020195238095255
984.519,27.62886190476193
986.866,41.11968857142861
989.212,50.8757447619048
991.556,68.80391428571434
993.899,90.95386190476196
996.24,105.04189047619055
998.579,111.40333809523815
1000.92,101.84963047619051
1003.25,65.90642380952383
1005.59,32.337416190476205
1007.92,23.33477523809526
1010.25,24.80486285714288
1012.58,23.606364761904782
1014.91,39.9311666666667
1017.24,52.9234266666667
1019.56,45.2986190476191
1021.88,73.29609047619054
1024.2,103.20241904761912
1026.52,99.8279952380953
1028.84,106.07831428571437
1031.16,130.6683714285715
1033.48,117.26529523809532
1035.79,135.1077904761906
1038.1,181.91045714285727
1040.41,220.00695238095253
1042.72,242.15947619047634
1045.03,252.17747619047626
1047.33,198.96547619047627
1049.64,143.9998095238096
1051.94,135.23254285714296
1054.24,122.71101904761912
1056.54,121.7208476190477
1058.84,124.73745714285721
1061.13,122.95089523809531
1063.43,132.8366857142858
1065.72,159.15597142857152
1068.01,159.86042857142866
1070.3,153.71119047619058
1072.59,160.2790000000001
1074.87,166.18190476190486
1077.16,172.18038095238103
1079.44,190.9401904761906
1081.72,223.41238095238114
1084.0,266.357904761905
1086.28,320.58495238095264
1088.56,405.3777142857146
1090.84,509.7825714285718
1093.11,606.3693333333337
1095.38,656.2792380952385
1097.65,598.8920952380955
1099.92,495.82504761904784
1102.19,367.83833333333354
1104.46,311.8829523809526
1106.72,304.0042857142859
1108.98,361.29609523809546
1111.24,372.04223809523836
1113.5,417.47880952380973
1115.76,430.6040952380955
1118.02,461.5113809523813
1120.28,482.9125714285717
1122.53,492.33004761904783
1124.78,456.33295238095263
1127.03,394.5381428571431
1129.28,329.9915714285716
1131.53,261.2146190476192
1133.77,218.72895238095253
1136.02,195.67557142857157
1138.26,197.7664285714287
1140.5,184.332761904762
1142.74,187.7532380952382
1144.98,188.40642857142868
1147.22,195.00485714285725
1149.45,208.974761904762
1151.69,218.88528571428586
1153.92,194.30580952380961
1156.15,163.90042857142868
1158.38,157.5719523809525
1160.61,155.46106666666674
1162.83,152.08937523809533
1165.06,122.45462285714291
1167.28,91.7450647619048
1169.5,61.43463904761909
1171.72,59.664202857142904
1173.94,67.43133238095243
1176.16,82.82935619047622
1178.37,71.3799190476191
1180.58,67.89035714285718
1182.8,71.45393809523813
1185.01,60.40190952380955
1187.22,50.77987142857146
1189.42,42.20494285714288
1191.63,39.341830476190495
1193.84,22.14102571428573
1196.04,13.029327619047637
1198.24,30.433293333333367
1200.44,46.39899904761908
1202.64,49.35338761904766
1204.84,60.29484000000002
1207.03,64.07905714285717
1209.23,30.180847619047636
1211.42,25.693966666666675
1213.61,28.7603523809524
1215.8,27.47422857142861
1217.99,53.882385714285775
1220.18,80.84129523809526
1222.36,69.54090952380955
1224.55,39.36175714285715
1226.73,24.63692380952382
1228.91,22.318680952380987
1231.09,31.07375238095242
1233.27,45.997457142857186
1235.44,77.32838571428576
1237.62,92.01908571428578
1239.79,121.87978571428579
1241.96,135.67282857142862
1244.13,123.7323333333334
1246.3,121.29720952380961
1248.47,114.84505714285723
1250.64,132.66245714285722
1252.8,147.36974285714294
1254.96,144.34890476190486
1257.13,142.31595238095247
1259.29,175.4627142857144
1261.44,175.9815238095239
1263.6,187.34995238095246
1265.76,171.76009523809532
1267.91,140.11876190476198
1270.06,130.19009523809535
1272.22,155.16623809523819
1274.37,155.096761904762
1276.51,164.22190476190485
1278.66,162.4010476190477
1280.81,152.77966666666677
1282.95,132.50278571428578
1285.09,119.19157142857148
1287.23,106.2770238095239
1289.37,113.66638095238105
1291.51,160.6479285714287
1293.65,192.03400000000008
1295.78,190.58882857142865
1297.92,154.93399523809532
1300.05,134.64380000000008
1302.18,120.05406190476201
1304.31,119.54840476190483
1306.44,128.12949047619057
1308.57,156.84793809523816
1310.69,157.32511428571442
1312.82,184.80236666666679
1314.94,215.85377142857158
1317.06,223.196142857143
1319.18,236.26080952380966
1321.3,238.33652380952395
1323.41,237.3303333333335
1325.53,241.1978095238097
1327.64,268.8460952380954
1329.75,335.4209523809526
1331.87,386.9251428571431
1333.98,403.31342857142886
1336.08,403.63633333333354
1338.19,371.13428571428597
1340.3,333.57176190476207
1342.4,311.4278095238097
1344.5,255.2284761904763
1346.6,190.6425238095239
1348.7,150.3394761904763
1350.8,146.03557142857156
1352.9,163.78100000000012
1354.99,178.34014285714295
1357.09,181.81009523809533
1359.18,180.38323809523826
1361.27,175.06185714285726
1363.36,177.22871428571437
1365.45,191.74290476190492
1367.54,219.51085714285728
1369.62,241.15319047619064
1371.7,271.5764285714288
1373.79,297.7347619047621
1375.87,306.4868095238097
1377.95,305.64328571428587
1380.03,308.8719047619049
1382.1,293.9357142857145
1384.18,260.6452857142858
1386.25,212.71595238095247
1388.33,186.95786666666675
1390.4,145.51470000000006
1392.47,101.48237619047624
1394.54,84.43296666666672
1396.6,84.03318571428578
1398.67,84.61660476190485
1400.74,122.51636666666676
1402.8,139.11352380952388
1404.86,133.16996190476198
1406.92,107.68541428571436
1408.98,113.039980952381
1411.04,96.23335714285722
1413.09,116.55053333333343
1415.15,117.18125714285722
1417.2,139.45819047619054
1419.25,130.85642380952387
1421.3,130.32686666666675
1423.35,111.58320476190485
1425.4,124.24302857142865
1427.45,135.11440952380963
1429.49,134.57702857142863
1431.54,120.58166666666673
1433.58,99.74569047619052
1435.62,89.21071428571436
1437.66,91.68916666666675
1439.7,118.7980952380953
1441.74,110.82159523809531
1443.77,104.99573809523814
1445.81,87.46154761904768
1447.84,93.59798571428578
1449.87,89.6888190476191
1451.9,96.54137619047626
1453.93,99.15356190476197
1455.96,120.57082857142866
1457.98,144.21960476190486
1460.01,170.81229523809534
1462.03,169.91785714285723
1464.05,158.86757142857152
1466.07,165.0399047619049
1468.09,187.0516666666668
1470.11,212.66261904761922
1472.13,254.775142857143
1474.14,259.9107142857144
1476.16,242.78152380952392
1478.17,206.05214285714294
1480.18,168.86309523809533
1482.19,145.64102857142868
1484.2,150.38319523809534
1486.21,119.99237619047625
1488.21,103.46633333333338
1490.22,67.66035714285718
1492.22,78.71488571428578
1494.22,86.77113333333338
1496.22,86.63643809523812
1498.22,65.07080000000002
1500.22,42.40563809523811
1502.22,19.54386771428574
1504.21,23.34072842857144
1506.21,11.794598000000002
1508.2,1.1895246190476214
1510.19,-0.6189418095238048
1512.18,4.320032047619065
1514.17,15.766931904761922
1516.16,35.00609828571431
1518.14,34.417187809523824
1520.13,29.61803714285715
1522.11,16.369435238095235
1524.09,0.9560509523809553
1526.07,-0.5754219047618818
1528.05,34.726532857142885
1530.03,40.81349476190479
1532.01,59.58952238095241
1533.98,63.62541761904764
1535.96,49.158746666666694
1537.93,42.37950714285717
1539.9,34.09680476190477
1541.87,27.31031047619051
1543.84,31.972101904761935
1545.81,57.60576761904767
1547.78,66.78260761904765
1549.74,89.78822190476195
1551.7,88.52731428571437
1553.67,116.80959047619055
1555.63,121.53957619047627
1557.59,139.19360000000006
1559.55,129.05785714285722
1561.5,117.22764285714291
1563.46,102.32204761904771
1565.41,116.86554761904772
1567.37,123.00090476190483
1569.32,135.58592857142867
1571.27,143.19260952380958
1573.22,114.72594285714293
1575.17,100.99574285714294
1577.11,94.05043809523814
1579.06,93.27139047619053
1581.0,87.89747142857148
1582.95,98.16733333333339
1584.89,104.93873809523816
1586.83,103.92653809523816
1588.77,112.08381428571434
1590.7,109.41130000000004
1592.64,93.10018095238101
1594.58,93.31794761904764
1596.51,103.4223761904763
1598.44,125.24748333333363
