Raman Shift,Processed Intensity
331.095,52.883180476190404
333.909,23.522516666666625
336.721,10.077950238095198
339.531,6.8368728571428665
342.339,9.610192857142858
345.145,1.2330423809523787
347.949,-8.625069047619055
350.751,-10.055658095238094
353.55,3.7078528571428713
356.348,11.575898095238097
359.144,2.2218428571428435
361.937,-18.679861904761914
364.729,-8.929785714285671
367.518,14.434680952381036
370.306,120.37718571428587
373.091,232.5768857142859
375.874,334.09534285714307
378.656,342.4711904761906
381.435,321.1971809523811
384.212,221.71970476190484
386.988,138.24816190476196
389.761,82.94569523809528
392.532,42.11974285714285
395.301,-16.63549047619047
398.068,-17.200216476190477
400.833,-10.5485729047619
403.596,-13.558012476190473
406.358,11.800174333333324
409.117,-11.110560095238114
411.874,-21.11581099999999
414.629,-6.373135523809511
417.382,9.627990476190494
420.133,22.161252380952426
422.882,66.26359047619054
425.629,114.49709523809534
428.374,170.28187142857155
431.117,234.56306666666686
433.858,278.0966190476192
436.597,264.4011904761906
439.334,239.66314285714301
442.069,226.87947619047628
444.802,191.66680952380963
447.533,182.64261904761918
450.262,196.2352380952382
452.989,206.58757142857158
455.714,236.5576190476192
458.438,264.95627619047633
461.159,230.02387619047627
463.878,157.19160476190487
466.595,117.74878095238103
469.31,103.08010000000009
472.024,96.09474285714293
474.735,129.51152857142867
477.444,136.71685714285724
480.152,137.66881904761917
482.857,158.37326666666675
485.561,180.21740952380964
488.262,191.68423809523821
490.962,197.25652380952388
493.659,167.51285714285723
496.355,141.69914285714293
499.048,122.01276190476199
501.74,134.1758000000001
504.43,138.29146666666674
507.118,140.65326666666675
509.804,157.4116761904763
512.488,185.38479047619063
515.17,212.10380000000012
517.85,240.43441904761914
520.528,204.33692857142867
523.204,161.43848571428578
525.878,111.88953333333338
528.551,107.12678095238104
531.221,104.1101476190477
533.89,117.56194761904767
536.556,100.441880952381
539.221,88.51920476190482
541.883,84.27759047619057
544.544,132.34305238095246
547.203,154.57957619047627
549.86,136.5652952380953
552.515,130.68771428571438
555.168,141.09593333333345
557.819,151.93908571428582
560.469,168.27021904761912
563.116,185.14267619047627
565.761,165.13290476190488
568.405,191.43642857142868
571.047,183.8200476190477
573.687,169.28819047619055
576.324,143.32109523809532
578.96,132.68466666666674
581.594,114.62019047619056
584.227,120.41676190476196
586.857,103.98195238095245
589.485,116.1279190476191
592.112,92.09506190476193
594.737,81.69467142857148
597.359,86.26168095238103
599.98,87.27386666666672
602.599,113.58930952380962
605.216,136.018080952381
607.831,142.08429523809534
610.445,147.88308095238102
613.056,140.6047714285715
615.666,126.72520000000006
618.274,111.386280952381
620.88,83.58667619047625
623.484,96.75319523809532
626.086,120.36040952380961
628.686,133.31116666666676
631.284,158.55547619047627
633.881,186.5189047619049
636.476,179.67509523809537
639.068,196.54457142857157
641.659,197.0765238095239
644.249,187.41000000000008
646.836,160.25552380952388
649.421,166.608761904762
652.005,144.46562857142865
654.587,134.58367619047627
657.166,87.5296666666667
659.745,53.48904285714288
662.321,40.36204761904767
664.895,46.8576190476191
667.468,76.20886666666672
670.038,88.21996190476193
672.607,86.83793333333338
675.174,73.91448095238101
677.739,95.30171428571434
680.303,88.08902380952387
682.864,93.93781904761909
685.424,68.46140000000004
687.982,75.03542857142862
690.538,76.03520952380958
693.092,72.50313333333337
695.645,54.24313333333336
698.195,44.821395238095256
700.744,23.375533333333365
703.291,41.472085714285754
705.836,65.86778095238098
708.38,50.557780952380966
710.921,41.48978571428572
713.461,0.4212285714285544
715.999,-0.795190476190438
718.535,16.027019047619085
721.069,49.50307619047624
723.602,76.72440000000006
726.133,121.44975238095245
728.662,107.15190476190485
731.189,106.58959047619051
733.714,95.23642380952386
736.238,93.51844761904769
738.759,98.19470000000007
741.279,131.16794285714292
743.798,137.4838190476191
746.314,125.85458095238103
748.829,110.70719047619052
751.342,88.51629523809528
753.853,58.85151904761908
756.362,53.283023809523854
758.869,63.33373809523815
761.375,88.90719714285719
763.879,83.76441380952384
766.381,67.8570085714286
768.882,66.99380523809529
771.38,71.4123752380953
773.877,70.35035666666671
776.372,90.52182571428575
778.866,88.40264285714291
781.357,89.94497619047625
783.847,94.19639523809528
786.335,90.53790952380957
788.821,100.01723809523817
791.306,118.49188095238105
793.789,128.91475238095245
796.27,143.9527714285715
798.749,153.74938095238105
801.227,136.92409523809533
803.702,145.38209523809533
806.176,149.2195238095239
808.649,146.91385714285727
811.119,174.7989047619049
813.588,203.20904761904774
816.055,188.19309523809534
818.521,162.94242857142865
820.984,137.79165714285722
823.446,104.50420476190484
825.906,103.03355238095244
828.365,103.61927142857151
830.821,121.97688571428581
833.276,133.44139523809534
835.729,154.44262857142868
838.181,148.69664285714293
840.631,135.72901904761912
843.079,114.16056190476195
845.525,96.183180952381
847.97,77.70380476190482
850.412,75.00977142857148
852.854,71.43634761904765
855.293,67.08066190476194
857.731,52.03993333333335
860.167,38.07800476190478
862.601,12.577852380952391
865.034,23.92256666666671
867.465,46.304623809523854
869.894,70.24988571428577
872.321,87.71289047619052
874.747,93.6957523809524
877.171,53.15302380952384
879.594,56.27748095238099
882.014,39.59500952380955
884.433,52.91752857142863
886.851,75.77083809523816
889.266,101.25243333333341
891.68,112.26956190476199
894.092,131.30061904761914
896.503,139.1097142857144
898.912,148.9371333333334
901.319,131.97551428571435
903.724,116.8464095238096
906.128,120.59981904761914
908.53,123.7618095238096
910.931,130.42986666666673
913.329,128.93955238095245
915.726,129.95993333333342
918.122,123.87419523809533
920.516,125.16062380952388
922.908,118.2977190476191
925.298,97.38300952380958
927.687,81.56174285714292
930.074,89.07424761904767
932.459,87.25597142857147
934.843,92.3470333333334
937.225,105.49264761904769
939.605,112.17118571428577
941.984,100.90858571428576
944.361,86.80227142857149
946.736,69.04474761904767
949.11,73.06636666666672
951.482,96.10771904761911
953.853,104.69436190476195
956.222,114.01891904761911
958.589,119.5592952380953
960.954,128.41280000000006
963.318,121.20019523809529
965.68,102.01882380952384
968.041,79.87026952380957
970.4,51.47080523809526
972.757,32.39335809523813
975.113,45.16362142857145
977.467,30.830756190476208
979.819,24.920196666666698
982.17,39.05250476190478
984.519,39.41966761904765
986.866,31.88022190476193
989.212,35.245064761904786
991.556,51.84878095238101
993.899,83.78798571428578
996.24,124.87320476190484
998.579,150.1529714285715
1000.92,139.62814761904764
1003.25,100.3948190476191
1005.59,58.501223809523836
1007.92,47.852952380952416
1010.25,43.545461904761936
1012.58,35.055128571428604
1014.91,50.38228571428576
1017.24,82.7647571428572
1019.56,96.53562857142865
1021.88,124.69471904761912
1024.2,135.4796000000001
1026.52,154.84209523809534
1028.84,165.06733333333347
1031.16,193.96361904761915
1033.48,204.14909523809536
1035.79,205.05128571428585
1038.1,224.5258095238097
1040.41,257.0951904761907
1042.72,282.3292380952383
1045.03,302.7025714285716
1047.33,285.07085714285734
1049.64,237.1944285714287
1051.94,209.40433333333345
1054.24,194.03209523809537
1056.54,202.93257142857158
1058.84,230.2940952380954
1061.13,238.44757142857156
1063.43,238.6290952380954
1065.72,237.55028571428585
1068.01,224.78047619047635
1070.3,219.17428571428584
1072.59,222.7768571428573
1074.87,228.96623809523825
1077.16,240.64476190476202
1079.44,247.80976190476207
1081.72,262.07761904761924
1084.0,294.8262380952383
1086.28,350.5768571428574
1088.56,453.4213809523813
1090.84,578.7382857142861
1093.11,673.8106190476194
1095.38,700.8260000000004
1097.65,647.5907142857146
1099.92,543.483285714286
1102.19,427.9287619047621
1104.46,377.6389523809526
1106.72,374.65847619047634
1108.98,380.79419047619075
1111.24,402.42419047619074
1113.5,418.3075714285717
1115.76,434.5365238095241
1118.02,484.10861904761936
1120.28,539.5922380952384
1122.53,526.175285714286
1124.78,489.5220476190479
1127.03,440.1534285714288
1129.28,383.6384285714288
1131.53,314.02214285714297
1133.77,257.44485714285724
1136.02,216.57100000000014
1138.26,217.446142857143
1140.5,238.0678571428573
1142.74,256.57671428571444
1144.98,247.20885714285728
1147.22,238.39080952380965
1149.45,233.93028571428584
1151.69,242.4923809523811
1153.92,244.0274285714287
1156.15,244.15304761904775
1158.38,246.82036190476202
1160.61,209.69438571428583
1162.83,161.86910476190485
1165.06,139.8194714285715
1167.28,123.78271428571438
1169.5,108.61532857142863
1171.72,118.45917142857148
1173.94,96.17088571428577
1176.16,102.4643333333334
1178.37,123.29135238095243
1180.58,101.6520523809524
1182.8,63.78437619047621
1185.01,44.25977619047622
1187.22,24.983466666666708
1189.42,45.43219047619052
1191.63,73.32078571428575
1193.84,75.41193809523813
1196.04,62.37323809523813
1198.24,48.443823809523835
1200.44,60.196357142857195
1202.64,72.67962857142862
1204.84,72.13310476190479
1207.03,60.0344
1209.23,27.575534285714287
1211.42,-6.479995714285704
1213.61,-10.273273333333329
1215.8,7.911636666666686
1217.99,22.219453333333345
1220.18,26.223519523809543
1222.36,36.83055714285716
1224.55,29.756860952380954
1226.73,19.671191428571454
1228.91,28.19471142857145
1231.09,34.996281904761936
1233.27,41.17341714285717
1235.44,46.82368380952384
1237.62,50.80633809523814
1239.79,68.98127142857149
1241.96,89.73160000000006
1244.13,106.48836666666674
1246.3,113.44476190476198
1248.47,108.31744285714292
1250.64,98.775480952381
1252.8,88.29797619047625
1254.96,95.26829047619054
1257.13,99.92730000000006
1259.29,136.03955714285723
1261.44,165.41721904761914
1263.6,165.1107857142858
1265.76,131.64680952380957
1267.91,114.07570952380958
1270.06,86.35267619047623
1272.22,77.19452380952387
1274.37,100.50903809523815
1276.51,105.10851904761911
1278.66,113.42429523809533
1280.81,144.0781380952382
1282.95,131.93022380952385
1285.09,105.60239047619055
1287.23,83.5738047619048
1289.37,67.03766666666674
1291.51,92.0918714285715
1293.65,111.59640476190484
1295.78,103.74468571428577
1297.92,95.77756190476194
1300.05,68.12640476190481
1302.18,55.65110000000004
1304.31,56.97334285714288
1306.44,52.572138095238124
1308.57,41.545371428571464
1310.69,54.61018095238101
1312.82,79.57866190476196
1314.94,96.54840476190483
1317.06,117.9985238095239
1319.18,137.07414285714293
1321.3,142.92095238095249
1323.41,144.9700000000001
1325.53,186.79504761904778
1327.64,235.49361904761923
1329.75,284.4017619047621
1331.87,322.9976666666669
1333.98,328.9502857142859
1336.08,281.30952380952397
1338.19,251.41100000000012
1340.3,237.8280476190477
1342.4,219.84880952380962
1344.5,183.80840476190485
1346.6,159.28009523809533
1348.7,133.36121428571437
1350.8,138.81540000000012
1352.9,147.64428095238105
1354.99,141.89737142857152
1357.09,110.57612380952389
1359.18,109.06327619047627
1361.27,119.45535238095248
1363.36,135.23011428571434
1365.45,139.29366666666675
1367.54,151.6471904761906
1369.62,150.24404761904773
1371.7,181.27585714285726
1373.79,213.83861904761915
1375.87,215.4574761904763
1377.95,219.13314285714299
1380.03,219.34252380952395
1382.1,203.94323809523823
1384.18,186.50723809523822
1386.25,198.08273333333344
1388.33,180.0035000000001
1390.4,150.69821904761912
1392.47,110.21449047619052
1394.54,74.40943809523813
1396.6,41.282938095238144
1398.67,51.787428571428606
1400.74,39.493857142857166
1402.8,49.497061904761935
1404.86,52.17744190476193
1406.92,42.82002285714289
1408.98,43.75734095238097
1411.04,41.13134857142859
1413.09,31.226698095238135
1415.15,44.232680000000045
1417.2,71.52914190476196
1419.25,78.20966666666672
1421.3,85.60606190476196
1423.35,75.38332380952383
1425.4,65.25391904761908
1427.45,65.16830952380957
1429.49,64.21989523809526
1431.54,51.215814285714316
1433.58,51.67763809523812
1435.62,47.74579047619052
1437.66,72.70338571428577
1439.7,84.88119047619051
1441.74,86.99073809523813
1443.77,65.74345714285717
1445.81,51.46968095238099
1447.84,46.975833333333384
1449.87,76.59217619047624
1451.9,79.64878571428578
1453.93,95.99947142857147
1455.96,90.87895238095244
1457.98,80.33158571428577
1460.01,100.35358095238102
1462.03,125.65597619047625
1464.05,135.75882857142867
1466.07,159.99194285714296
1468.09,170.87557142857153
1470.11,179.787142857143
1472.13,219.15095238095253
1474.14,227.3446666666668
1476.16,213.65000000000015
1478.17,216.25380952380965
1480.18,195.4382857142858
1482.19,175.8664761904763
1484.2,172.77244761904768
1486.21,142.2957095238096
1488.21,114.57536190476196
1490.22,94.46475714285718
1492.22,100.19856190476197
1494.22,92.96366666666671
1496.22,75.80408333333335
1498.22,51.9069904761905
1500.22,48.98344523809527
1502.22,33.220476190476234
1504.21,40.1388166666667
1506.21,63.878095238095284
1508.2,58.86389047619051
1510.19,67.23610476190481
1512.18,80.70620476190479
1514.17,85.36671428571432
1516.16,57.16745714285719
1518.14,80.01073809523812
1520.13,53.22767142857144
1522.11,30.482766666666688
1524.09,21.678861904761927
1526.07,37.242719047619076
1528.05,31.934647619047656
1530.03,62.65800571428574
1532.01,45.078272380952384
1533.98,28.527740000000023
1535.96,35.3864746666667
1537.93,30.55857180952383
1539.9,35.329212190476234
1541.87,57.460000571428616
1543.84,61.37933980952386
1545.81,95.37277942857152
1547.78,119.72636609523815
1549.74,119.29741428571435
1551.7,128.61023809523817
1553.67,140.76057142857152
1555.63,168.2255523809525
1557.59,183.14853333333343
1559.55,148.2448952380953
1561.5,118.56312380952389
1563.46,97.67598095238104
1565.41,105.3939904761906
1567.37,158.0047238095239
1569.32,171.1760761904763
1571.27,177.29033333333342
1573.22,168.44447619047625
1575.17,151.16423809523818
1577.11,147.21285714285722
1579.06,149.25933333333344
1581.0,130.82919047619058
1582.95,141.82890476190485
1584.89,158.30821904761913
1586.83,148.07879047619056
1588.77,161.5712476190477
1590.7,147.40678095238104
1592.64,140.15877142857153
1594.58,155.61512857142864
1596.51,173.94474285714298
1598.44,186.64981428571457
