Raman Shift,Processed Intensity
331.095,49.23542664285696
333.909,-2.2123565714285647
336.721,-17.729275285714202
339.531,-11.694265999999995
342.339,-16.93894604761904
345.145,16.205499714285725
347.949,18.88515747619048
350.751,15.865981523809529
353.55,-1.1803914285714305
356.348,10.37097761904763
359.144,11.288790476190503
361.937,28.247585238095265
364.729,50.1134090476191
367.518,73.1344295238096
370.306,129.41656190476206
373.091,255.87678571428594
375.874,354.4808571428573
378.656,375.8622857142859
381.435,326.37015238095245
384.212,222.35488095238105
386.988,108.73904761904767
389.761,38.828038095238114
392.532,3.690371428571437
395.301,-14.12796666666667
398.068,-39.79378095238096
400.833,-5.519971428571424
403.596,-15.327614285714303
406.358,-12.855252380952356
409.117,13.355216190476199
411.874,20.71572571428572
414.629,15.306289523809562
417.382,49.77976952380955
420.133,53.0758752380953
422.882,75.3262114285715
425.629,112.28289238095249
428.374,171.17509523809537
431.117,231.51875238095255
433.858,263.45019047619064
436.597,249.0587142857144
439.334,193.9110476190477
442.069,135.28947619047628
444.802,132.47666666666677
447.533,133.47038095238108
450.262,162.2220952380954
452.989,224.06466666666682
455.714,274.56952380952396
458.438,269.833142857143
461.159,248.47590476190484
463.878,156.92850000000004
466.595,90.6702857142858
469.31,91.70416666666674
472.024,118.7005238095239
474.735,138.90173809523822
477.444,167.31257142857152
480.152,165.9857142857144
482.857,176.35533333333345
485.561,184.52180952380962
488.262,194.20609523809534
490.962,193.318761904762
493.659,171.29547619047628
496.355,151.04761904761915
499.048,131.10595238095246
501.74,130.71533333333343
504.43,129.502761904762
507.118,157.95114285714297
509.804,167.0207142857144
512.488,201.76676190476206
515.17,226.7207142857144
517.85,229.03295238095248
520.528,197.854142857143
523.204,170.71509523809533
525.878,121.14766666666675
528.551,116.92145714285721
531.221,116.09134952380957
533.89,77.0934447619048
536.556,62.17277047619052
539.221,59.05080285714291
541.883,75.87801809523819
544.544,114.8039400000001
547.203,165.4543923809525
549.86,154.55011904761915
552.515,163.62123809523823
555.168,160.91202380952387
557.819,136.04795238095247
560.469,151.98683333333344
563.116,168.44880952380962
565.761,139.5820238095239
568.405,145.29666666666674
571.047,133.3115190476191
573.687,95.67911428571438
576.324,113.6416714285715
578.96,109.91766190476194
581.594,87.98728095238101
584.227,105.0446333333334
586.857,120.28353809523816
589.485,107.61186190476195
592.112,92.55626666666669
594.737,73.11929523809528
597.359,39.77942380952385
599.98,40.014476190476245
602.599,82.11237619047625
605.216,107.55055714285722
607.831,109.80642380952386
610.445,120.69033809523813
613.056,86.25065238095242
615.666,77.39211904761912
618.274,97.02013333333338
620.88,88.03910952380956
623.484,82.35334761904767
626.086,81.81954761904765
628.686,90.91265238095248
631.284,121.82181428571437
633.881,163.49821904761916
636.476,176.79733333333343
639.068,190.24128571428582
641.659,169.78038095238102
644.249,159.26909523809533
646.836,133.80009523809534
649.421,126.51364761904767
652.005,102.0735190476191
654.587,72.00059523809527
657.166,62.52965238095243
659.745,55.466671428571466
662.321,72.33178571428579
664.895,84.16907619047623
667.468,88.5938047619048
670.038,74.12587619047622
672.607,48.85677142857144
675.174,27.54411904761907
677.739,27.945795238095258
680.303,29.01003809523814
682.864,60.58972380952386
685.424,91.10935714285719
687.982,88.75522857142862
690.538,92.23738571428575
693.092,84.07540952380955
695.645,55.07456190476193
698.195,47.32571904761909
700.744,54.062909523809566
703.291,64.09139523809529
705.836,69.31175238095243
708.38,72.38648095238098
710.921,66.69238095238099
713.461,42.22536666666669
715.999,39.69568571428575
718.535,43.9564666666667
721.069,52.003804761904824
723.602,75.4051571428572
726.133,97.5854428571429
728.662,97.01707619047625
731.189,98.07746190476193
733.714,68.8582904761905
736.238,32.6417904761905
738.759,28.662595238095275
741.279,41.96516666666673
743.798,88.30808095238102
746.314,121.59307619047621
748.829,106.19807142857145
751.342,73.35825238095242
753.853,66.97556666666672
756.362,64.47597619047625
758.869,87.04710000000006
761.375,96.78183809523814
763.879,92.15401904761912
766.381,96.58984285714293
768.882,109.70589523809532
771.38,139.92876666666677
773.877,136.6371952380953
776.372,120.49603809523816
778.866,86.17024285714291
781.357,75.99122857142865
783.847,91.09993809523819
786.335,128.20936666666674
788.821,121.46088571428578
791.306,125.71017619047626
793.789,115.71802857142866
796.27,139.9590142857144
798.749,163.95589523809534
801.227,171.56504761904768
803.702,150.69019047619057
806.176,160.99714285714296
808.649,184.9617142857144
811.119,217.24961904761918
813.588,204.47928571428582
816.055,194.26942857142868
818.521,154.4292380952382
820.984,158.2914761904763
823.446,155.38028571428578
825.906,158.5048095238096
828.365,147.6172857142858
830.821,144.1468095238096
833.276,154.9982761904763
835.729,151.21944285714295
838.181,134.9061238095239
840.631,132.01103333333342
843.079,141.15379047619058
845.525,121.24003809523816
847.97,134.65112380952388
850.412,112.00721428571433
852.854,68.45208571428573
855.293,49.22503333333337
857.731,55.37474761904765
860.167,50.42628095238101
862.601,75.95221904761911
865.034,83.00177619047622
867.465,82.62395238095245
869.894,93.96331904761911
872.321,104.45019523809529
874.747,109.94342857142864
877.171,114.87340952380958
879.594,119.86122857142868
882.014,135.2894190476191
884.433,151.63642857142867
886.851,147.475761904762
889.266,143.8572380952382
891.68,138.59266666666676
894.092,152.73233333333343
896.503,168.32585714285725
898.912,170.851761904762
901.319,150.3122380952382
903.724,166.75752380952395
906.128,189.90457142857156
908.53,196.5179523809525
910.931,205.93361904761915
913.329,186.72561904761912
915.726,184.61065714285726
918.122,173.11522857142867
920.516,160.86140952380958
922.908,143.56567619047627
925.298,131.2311238095239
927.687,129.33681904761914
930.074,147.88539523809527
932.459,104.92723333333336
934.843,80.37010952380957
937.225,79.7403190476191
939.605,92.85024285714293
941.984,98.55988095238101
944.361,116.68168571428576
946.736,106.17068095238102
949.11,101.55345714285721
951.482,114.59464285714293
953.853,116.39207142857148
956.222,98.52004761904769
958.589,88.88615238095244
960.954,96.25477619047628
963.318,97.86672857142862
965.68,114.4388428571429
968.041,107.40231428571433
970.4,85.47398571428576
972.757,71.03729047619053
975.113,72.95178571428575
977.467,51.50562000000003
979.819,30.034461904761905
982.17,10.445391428571426
984.519,-13.354559999999987
986.866,1.8272504761905015
989.212,35.421556190476224
991.556,37.23986190476192
993.899,65.28424190476197
996.24,87.74710000000005
998.579,120.15385714285723
1000.92,133.6014571428572
1003.25,117.9963285714286
1005.59,65.95896190476192
1007.92,35.014738095238116
1010.25,21.831690476190523
1012.58,58.60122380952387
1014.91,90.1817333333334
1017.24,99.05042857142863
1019.56,108.82735714285718
1021.88,96.13239047619052
1024.2,105.87069523809532
1026.52,126.75718095238103
1028.84,151.84003809523819
1031.16,170.45309523809536
1033.48,178.50180952380964
1035.79,186.41480952380965
1038.1,237.3823809523811
1040.41,266.26195238095255
1042.72,296.1008571428573
1045.03,287.1850000000001
1047.33,229.70457142857154
1049.64,179.23095238095246
1051.94,171.1447142857144
1054.24,161.96908571428582
1056.54,154.70351428571436
1058.84,145.53802857142864
1061.13,126.99562857142865
1063.43,120.3616000000001
1065.72,132.82565714285724
1068.01,152.5770857142858
1070.3,162.04376190476202
1072.59,168.93890476190487
1074.87,193.97576190476204
1077.16,202.05780952380965
1079.44,206.75552380952396
1081.72,232.06752380952398
1084.0,275.9450000000002
1086.28,319.1962380952383
1088.56,422.62942857142895
1090.84,511.9097619047622
1093.11,602.4164285714289
1095.38,646.0526190476194
1097.65,617.1022857142859
1099.92,527.3734761904764
1102.19,423.7218571428573
1104.46,339.3838571428574
1106.72,329.97647619047643
1108.98,343.49795238095265
1111.24,381.18419047619074
1113.5,412.55723809523835
1115.76,447.6627619047622
1118.02,473.40390476190504
1120.28,499.58795238095263
1122.53,492.4510952380955
1124.78,458.70519047619075
1127.03,399.5386190476193
1129.28,321.71119047619055
1131.53,252.45909523809536
1133.77,221.6370000000001
1136.02,197.71919047619062
1138.26,201.03638095238105
1140.5,210.4912380952382
1142.74,189.93857142857155
1144.98,192.04276190476205
1147.22,219.0394285714287
1149.45,214.92671428571438
1151.69,215.70185714285722
1153.92,191.12466666666677
1156.15,166.90702857142864
1158.38,135.04646190476197
1160.61,118.54047142857146
1162.83,73.5298523809524
1165.06,58.059485714285756
1167.28,38.60330000000005
1169.5,69.3017714285715
1171.72,89.39059047619052
1173.94,118.67694190476196
1176.16,92.77748000000003
1178.37,81.4041742857143
1180.58,42.697539047619074
1182.8,36.89330761904766
1185.01,47.1322466666667
1187.22,54.078844285714304
1189.42,49.064328571428604
1191.63,48.94386904761906
1193.84,37.905971428571455
1196.04,40.09168114285717
1198.24,37.92781995238096
1200.44,27.93655228571431
1202.64,23.163955761904766
1204.84,11.418159904761922
1207.03,19.745512333333355
1209.23,34.906803523809536
1211.42,18.04391238095239
1213.61,20.58459428571429
1215.8,7.4806057142857165
1217.99,4.160041904761923
1220.18,14.71784952380953
1222.36,15.106294761904758
1224.55,6.134939047619062
1226.73,20.232544285714308
1228.91,35.16143238095241
1231.09,42.77923857142859
1233.27,58.65809142857147
1235.44,55.7988047619048
1237.62,68.20233809523815
1239.79,68.29831904761907
1241.96,74.18324761904765
1244.13,59.715585714285766
1246.3,81.61115714285722
1248.47,112.49054285714294
1250.64,155.40320000000008
1252.8,174.922161904762
1254.96,164.28753809523815
1257.13,129.35861904761913
1259.29,134.80402380952393
1261.44,158.9115238095239
1263.6,174.30283333333347
1265.76,195.8372857142858
1267.91,170.89833333333343
1270.06,136.91709523809533
1272.22,127.37223809523817
1274.37,134.17109523809532
1276.51,134.6022857142858
1278.66,154.04942857142868
1280.81,145.13428571428577
1282.95,135.62161904761913
1285.09,118.89547619047624
1287.23,136.57800000000012
1289.37,146.57663809523817
1291.51,155.75162476190485
1293.65,120.53449619047623
1295.78,78.97586857142859
1297.92,37.22168000000004
1300.05,52.03694476190482
1302.18,55.424543809523854
1304.31,78.76865333333339
1306.44,64.73894285714289
1308.57,78.52909523809531
1310.69,98.95144285714292
1312.82,140.00905714285722
1314.94,148.6096857142858
1317.06,142.6613428571429
1319.18,113.0715238095239
1321.3,134.79590476190486
1323.41,167.07500000000013
1325.53,221.1977619047621
1327.64,285.5002380952383
1329.75,327.7952857142859
1331.87,361.89466666666686
1333.98,355.849142857143
1336.08,328.32780952380966
1338.19,297.0002857142859
1340.3,273.72600000000017
1342.4,245.74600000000012
1344.5,234.6339047619049
1346.6,195.86876190476204
1348.7,192.69069523809534
1350.8,165.4356714285715
1352.9,139.62939047619054
1354.99,120.70313809523816
1357.09,118.23053333333343
1359.18,120.40414761904772
1361.27,158.51107619047627
1363.36,170.07747619047626
1365.45,166.7238571428572
1367.54,192.16666666666683
1369.62,205.97928571428585
1371.7,229.68676190476205
1373.79,261.81414285714305
1375.87,279.5060000000002
1377.95,275.1442380952383
1380.03,281.3492857142859
1382.1,252.93176190476203
1384.18,223.41628571428583
1386.25,190.47066666666677
1388.33,168.00018095238104
1390.4,147.3388428571429
1392.47,125.34437142857149
1394.54,109.58839523809529
1396.6,71.02369047619051
1398.67,54.46006190476195
1400.74,55.468571428571465
1402.8,70.90640952380959
1404.86,90.10668571428579
1406.92,120.54525714285721
1408.98,120.0785333333334
1411.04,108.80107619047622
1413.09,101.37872857142862
1415.15,93.57251428571433
1417.2,95.14360476190483
1419.25,97.94788095238101
1421.3,105.41266666666674
1423.35,102.77459047619054
1425.4,107.93690476190483
1427.45,96.37434761904768
1429.49,87.27594285714291
1431.54,95.54450476190485
1433.58,95.70229523809527
1435.62,72.36629523809528
1437.66,61.20131428571432
1439.7,56.8719047619048
1441.74,46.6616333333334
1443.77,84.52080952380959
1445.81,79.01851428571432
1447.84,97.9144714285715
1449.87,106.30159047619054
1451.9,113.08195238095246
1453.93,98.06282380952385
1455.96,83.43233809523814
1457.98,50.711790476190544
1460.01,86.1842333333334
1462.03,94.2280095238096
1464.05,139.7925000000001
1466.07,169.3517714285715
1468.09,206.33152380952396
1470.11,233.96742857142868
1472.13,236.11342857142867
1474.14,219.19576190476204
1476.16,205.44928571428585
1478.17,179.72904761904775
1480.18,180.7463809523811
1482.19,182.68907619047627
1484.2,151.69709047619057
1486.21,126.10130000000005
1488.21,87.85101428571434
1490.22,88.03930000000008
1492.22,92.52041428571435
1494.22,97.48217619047624
1496.22,86.87440952380955
1498.22,63.07553809523811
1500.22,27.3211285714286
1502.22,33.32314285714289
1504.21,43.41232857142861
1506.21,50.776833333333364
1508.2,56.938119047619075
1510.19,47.27490476190478
1512.18,35.92781904761908
1514.17,61.79956666666672
1516.16,78.26895714285719
1518.14,102.76254857142862
1520.13,92.99271523809524
1522.11,55.05284000000001
1524.09,26.417351428571443
1526.07,11.17988285714285
1528.05,-11.518346666666652
1530.03,8.41639142857144
1532.01,13.268452380952398
1533.98,31.084109523809555
1535.96,47.29076190476192
1537.93,54.982495238095275
1539.9,60.72976666666671
1541.87,71.53159047619052
1543.84,76.43476190476196
1545.81,77.67653333333338
1547.78,86.97071904761911
1549.74,100.36422857142864
1551.7,139.38026666666678
1553.67,169.0184000000001
1555.63,176.13520000000008
1557.59,142.5876333333334
1559.55,139.47079047619053
1561.5,124.26091904761913
1563.46,129.71962857142864
1565.41,129.70397619047625
1567.37,121.7378190476191
1569.32,99.39272380952389
1571.27,112.04955238095246
1573.22,124.89945714285722
1575.17,128.84709523809533
1577.11,127.36914285714295
1579.06,136.4185238095239
1581.0,130.18590476190482
1582.95,130.0050476190477
1584.89,148.25742857142865
1586.83,153.8960952380953
1588.77,144.5885714285715
1590.7,145.38285714285723
1592.64,144.99395238095246
1594.58,156.5654761904762
1596.51,167.33640476190473
1598.44,170.64090476190478
