Raman Shift,Processed Intensity
331.095,6.899223809523797
333.909,-34.1381666666668
336.721,-57.52031666666678
339.531,-67.64824285714289
342.339,-63.78123809523814
345.145,-77.03415714285718
347.949,-58.04133333333332
350.751,-18.005385714285712
353.55,12.445752380952392
356.348,20.020500000000013
359.144,31.192233333333363
361.937,49.580200000000076
364.729,95.18715714285726
367.518,138.87622380952394
370.306,212.0842476190478
373.091,328.0128095238098
375.874,431.2945714285717
378.656,485.707523809524
381.435,449.22219047619063
384.212,346.4782571428573
386.988,231.54591904761915
389.761,160.30736190476196
392.532,105.361080952381
395.301,71.49801428571433
398.068,51.1776333333334
400.833,64.7184333333334
403.596,89.34520952380959
406.358,109.99904761904767
409.117,93.43212619047623
411.874,61.68387142857145
414.629,56.74759285714291
417.382,72.9039095238096
420.133,104.05362142857152
422.882,152.86087142857153
425.629,188.5149523809525
428.374,228.9680000000002
431.117,308.7923809523811
433.858,354.27590476190494
436.597,343.61252380952396
439.334,308.6629523809525
442.069,267.8609047619049
444.802,202.59304761904775
447.533,222.72276190476208
450.262,271.68585714285734
452.989,338.01438095238115
455.714,368.4308571428573
458.438,390.4682380952383
461.159,318.7080000000002
463.878,253.11233333333348
466.595,209.83461904761916
469.31,207.07609523809538
472.024,196.65747619047636
474.735,232.3521904761906
477.444,224.79161904761918
480.152,192.17828571428583
482.857,214.8578095238097
485.561,243.60433333333344
488.262,250.76395238095256
490.962,240.92090476190486
493.659,215.94514285714297
496.355,158.32552380952393
499.048,178.07476190476206
501.74,180.39638095238104
504.43,179.8269047619049
507.118,179.33138095238107
509.804,202.77952380952394
512.488,237.1362380952383
515.17,313.5563809523811
517.85,341.95738095238113
520.528,320.54123809523827
523.204,267.1293333333334
525.878,208.9236666666668
528.551,200.7450952380954
531.221,201.79452380952392
533.89,200.89290476190487
536.556,182.1455238095239
539.221,152.13400000000007
541.883,129.6775714285715
544.544,129.02395238095247
547.203,140.2293904761906
549.86,122.20793809523815
552.515,117.87240000000007
555.168,117.99296666666673
557.819,125.43430476190485
560.469,141.4419857142858
563.116,178.97520000000011
565.761,155.56447619047628
568.405,153.59649523809534
571.047,129.1724714285715
573.687,107.34532380952388
576.324,98.0245952380953
578.96,93.54827142857151
581.594,105.63489047619056
584.227,132.76383333333342
586.857,144.27222857142866
589.485,171.06751904761916
592.112,173.10478095238102
594.737,161.4810000000001
597.359,170.67442857142865
599.98,141.9240571428572
602.599,113.89780952380958
605.216,101.97672380952385
607.831,86.58984761904767
610.445,91.64134285714292
613.056,98.27378095238097
615.666,75.77173333333336
618.274,52.56242380952385
620.88,58.59656190476197
623.484,87.68164285714293
626.086,120.86292380952389
628.686,139.0901380952382
631.284,162.4078952380953
633.881,165.1460000000001
636.476,170.77719047619058
639.068,162.20252380952388
641.659,153.79880000000009
644.249,116.4188476190477
646.836,109.86768571428576
649.421,86.18779523809528
652.005,57.08854285714289
654.587,60.70763333333339
657.166,84.5634428571429
659.745,82.26946190476198
662.321,98.29633333333338
664.895,81.63811904761907
667.468,54.90800000000005
670.038,88.19516666666675
672.607,112.16030476190483
675.174,102.94008571428576
677.739,117.81429047619052
680.303,116.91946190476195
682.864,77.2018666666667
685.424,70.5125142857143
687.982,49.321623809523814
690.538,12.766085714285747
693.092,41.125910476190526
695.645,64.10949476190477
698.195,40.47317428571431
700.744,41.73527000000003
703.291,49.8428104761905
705.836,40.26681476190479
708.38,32.668835238095234
710.921,14.805929523809532
713.461,17.197285714285766
715.999,51.21928095238102
718.535,78.34376190476196
721.069,101.9000952380953
723.602,108.59843809523817
726.133,107.19700952380958
728.662,107.21613333333339
731.189,93.41421428571431
733.714,70.74041428571434
736.238,72.19176190476196
738.759,72.14615714285719
741.279,92.41022857142863
743.798,99.36250476190482
746.314,96.33382857142863
748.829,95.98844285714291
751.342,110.94314761904769
753.853,97.1485095238096
756.362,114.36415714285721
758.869,104.68393333333339
761.375,101.34427619047625
763.879,81.05776190476195
766.381,92.01339047619051
768.882,79.82916190476195
771.38,64.17035714285717
773.877,53.560095238095286
776.372,74.2831190476191
778.866,75.05283809523814
781.357,96.43998095238099
783.847,93.20595714285716
786.335,61.15982380952384
788.821,53.30141428571433
791.306,73.4400333333334
793.789,104.95632857142866
796.27,119.80266190476198
798.749,132.64598095238102
801.227,133.15281428571438
803.702,141.7046095238096
806.176,134.73037619047625
808.649,145.70654285714295
811.119,145.06238095238103
813.588,155.03661904761915
816.055,164.9630952380953
818.521,157.98566666666673
820.984,122.20023809523816
823.446,111.17919047619056
825.906,125.63814285714295
828.365,151.72080952380963
830.821,174.3808095238096
833.276,173.33333333333343
835.729,168.29405714285724
838.181,136.78810476190483
840.631,119.10293333333343
843.079,106.09695238095243
845.525,103.20022857142864
847.97,111.27114285714295
850.412,126.5499333333334
852.854,121.32366666666674
855.293,117.5941190476191
857.731,87.26771428571432
860.167,70.67960000000004
862.601,62.59345714285719
865.034,59.10662380952387
867.465,79.69695238095244
869.894,99.50926190476197
872.321,97.0217190476191
874.747,105.71251428571433
877.171,90.10747142857149
879.594,101.54176666666677
882.014,157.16039523809536
884.433,218.34632380952397
886.851,232.43500000000012
889.266,262.42876190476204
891.68,230.9962380952382
894.092,217.75838095238112
896.503,224.3364285714287
898.912,238.54185714285722
901.319,205.61480952380964
903.724,199.0339523809525
906.128,163.13466666666676
908.53,159.68080952380964
910.931,165.8649523809525
913.329,180.165561904762
915.726,154.82251428571436
918.122,141.6951238095239
920.516,128.0234380952382
922.908,128.3808857142858
925.298,141.62665714285725
927.687,147.66751428571436
930.074,149.1720761904763
932.459,154.5706380952382
934.843,124.76976190476195
937.225,101.2002190476191
939.605,93.24450952380957
941.984,67.71376666666671
944.361,90.46721238095245
946.736,84.07765523809526
949.11,53.784848571428626
951.482,70.20963333333339
953.853,56.162768095238114
956.222,47.50312761904768
958.589,72.5653928571429
960.954,69.1603152380953
963.318,74.81305761904768
965.68,88.3344647619048
968.041,82.24945714285721
970.4,113.41663333333341
972.757,129.64635238095246
975.113,146.17813809523818
977.467,168.34614285714295
979.819,179.72300000000013
982.17,209.97604761904776
984.519,256.106142857143
986.866,299.6380000000002
989.212,374.001285714286
991.556,434.86319047619077
993.899,494.98671428571464
996.24,541.4199523809527
998.579,582.8301428571433
1000.92,587.0277619047622
1003.25,577.8703809523812
1005.59,516.643904761905
1007.92,435.5871904761907
1010.25,352.605523809524
1012.58,301.12780952380973
1014.91,248.48790476190496
1017.24,222.7339523809525
1019.56,207.00852380952392
1021.88,207.26476190476205
1024.2,216.69338095238106
1026.52,202.67528571428582
1028.84,206.4013809523811
1031.16,210.87185714285727
1033.48,216.18180952380968
1035.79,209.90304761904775
1038.1,205.74961904761918
1040.41,189.53123809523822
1042.72,209.91457142857158
1045.03,230.04238095238108
1047.33,241.81933333333347
1049.64,230.4357142857144
1051.94,219.03428571428586
1054.24,214.28180952380967
1056.54,217.74923809523824
1058.84,203.2461904761906
1061.13,202.81966666666682
1063.43,218.7076666666668
1065.72,221.10033333333348
1068.01,228.4735714285716
1070.3,244.73185714285728
1072.59,233.9699047619049
1074.87,253.71114285714305
1077.16,270.66947619047636
1079.44,264.9397142857145
1081.72,294.61657142857166
1084.0,349.1760000000003
1086.28,406.8077142857146
1088.56,525.4160000000004
1090.84,617.2383809523814
1093.11,689.9885238095242
1095.38,715.4277142857146
1097.65,670.7459523809528
1099.92,559.8949047619051
1102.19,469.6356666666669
1104.46,395.3011428571431
1106.72,356.27161904761925
1108.98,350.4510952380955
1111.24,419.600666666667
1113.5,503.14838095238133
1115.76,581.1885238095242
1118.02,644.6251428571433
1120.28,647.7909047619053
1122.53,629.1131428571432
1124.78,606.5912380952384
1127.03,554.7482857142859
1129.28,453.1071904761907
1131.53,355.4767142857145
1133.77,318.57033333333356
1136.02,324.52995238095264
1138.26,300.0690000000002
1140.5,304.71042857142874
1142.74,295.0724285714287
1144.98,287.2491904761907
1147.22,330.7160952380954
1149.45,347.424523809524
1151.69,294.4683333333335
1153.92,266.5613333333335
1156.15,236.893142857143
1158.38,206.4624285714287
1160.61,187.79248571428582
1162.83,155.40601428571435
1165.06,109.63510000000007
1167.28,81.38376666666672
1169.5,76.9369190476191
1171.72,87.43596857142863
1173.94,77.26115428571433
1176.16,65.07805142857146
1178.37,48.17137904761908
1180.58,39.96868952380956
1182.8,42.3739685714286
1185.01,44.52888761904763
1187.22,41.099157142857166
1189.42,38.27427619047623
1191.63,60.29133333333338
1193.84,60.863695238095275
1196.04,86.41878571428579
1198.24,115.43218095238102
1200.44,135.66466666666673
1202.64,118.59152380952388
1204.84,110.87849523809528
1207.03,83.47712380952387
1209.23,81.33884571428575
1211.42,67.98702190476195
1213.61,62.56329142857146
1215.8,44.49571619047622
1217.99,60.54546761904767
1220.18,59.2832504761905
1222.36,64.85143142857146
1224.55,62.01120476190481
1226.73,66.76178095238099
1228.91,78.15067619047625
1231.09,100.60582380952386
1233.27,78.88872380952385
1235.44,77.18960476190482
1237.62,84.98439523809529
1239.79,91.79650476190484
1241.96,111.14972857142865
1244.13,132.2344476190477
1246.3,137.5268761904763
1248.47,151.50295238095248
1250.64,137.11535714285722
1252.8,147.60185714285726
1254.96,141.6293095238096
1257.13,140.91228571428582
1259.29,154.64164285714295
1261.44,182.7220000000001
1263.6,182.10638095238107
1265.76,192.12819047619058
1267.91,200.2639523809525
1270.06,199.27609523809537
1272.22,188.21261904761917
1274.37,189.64523809523823
1276.51,189.0031904761906
1278.66,189.28714285714298
1280.81,203.11633333333344
1282.95,196.77733333333342
1285.09,172.65180952380962
1287.23,184.8354285714287
1289.37,193.94800000000015
1291.51,224.84771428571443
1293.65,225.72528571428583
1295.78,229.91504761904775
1297.92,218.37038095238108
1300.05,216.3297142857144
1302.18,188.0800000000001
1304.31,179.6697142857144
1306.44,180.14714285714302
1308.57,207.4656666666668
1310.69,232.5309523809525
1312.82,258.82009523809535
1314.94,252.81071428571443
1317.06,242.4558571428573
1319.18,278.61352380952405
1321.3,288.7607619047621
1323.41,318.80371428571453
1325.53,358.5529523809526
1327.64,383.77152380952407
1329.75,407.2696666666669
1331.87,457.6675714285717
1333.98,451.3471428571431
1336.08,425.9290476190479
1338.19,382.8903809523812
1340.3,334.2798095238097
1342.4,295.38414285714305
1344.5,281.9186190476192
1346.6,270.6461904761906
1348.7,268.9970952380954
1350.8,261.82928571428585
1352.9,250.95342857142873
1354.99,257.2280476190478
1357.09,267.8442857142859
1359.18,278.99366666666685
1361.27,294.106523809524
1363.36,300.5644761904764
1365.45,321.7021428571431
1367.54,363.2827142857145
1369.62,401.5926666666669
1371.7,433.9664285714288
1373.79,429.26238095238125
1375.87,444.67185714285745
1377.95,463.0058095238098
1380.03,463.21757142857166
1382.1,434.6414761904764
1384.18,392.1831428571431
1386.25,325.0341904761907
1388.33,284.4338095238097
1390.4,250.4780952380954
1392.47,228.5016190476192
1394.54,200.74323809523818
1396.6,192.63223809523822
1398.67,197.9792380952382
1400.74,190.35680952380963
1402.8,197.3369047619049
1404.86,201.53985714285727
1406.92,207.96600000000012
1408.98,235.2354285714287
1411.04,228.96766666666676
1413.09,209.1636666666668
1415.15,223.15761904761916
1417.2,212.14052380952393
1419.25,225.77995238095252
1421.3,237.21957142857153
1423.35,210.64990476190488
1425.4,199.16671428571442
1427.45,220.3899047619049
1429.49,204.89128571428583
1431.54,197.0050000000001
1433.58,176.54090476190484
1435.62,141.2132857142858
1437.66,153.641761904762
1439.7,163.11238095238105
1441.74,203.3396666666668
1443.77,220.99076190476205
1445.81,208.16090476190487
1447.84,188.08838095238107
1449.87,189.20204761904773
1451.9,189.69223809523825
1453.93,221.55871428571444
1455.96,240.70676190476203
1457.98,255.70738095238107
1460.01,279.75114285714307
1462.03,273.8853333333335
1464.05,287.01466666666687
1466.07,288.9958571428573
1468.09,285.25719047619066
1470.11,296.0365714285716
1472.13,297.09523809523824
1474.14,285.1947619047621
1476.16,289.23942857142873
1478.17,289.1810476190477
1480.18,272.5900952380954
1482.19,239.56138095238106
1484.2,192.99861904761914
1486.21,145.66323809523817
1488.21,122.84000000000009
1490.22,124.09925904761911
1492.22,116.82099714285718
1494.22,89.76606095238098
1496.22,51.933310000000006
1498.22,14.464437142857161
1500.22,27.88197571428577
1502.22,55.04155190476193
1504.21,51.08481666666669
1506.21,52.486502380952395
1508.2,45.67365238095241
1510.19,44.26376904761909
1512.18,60.73141904761908
1514.17,57.551280952380964
1516.16,26.245552380952383
1518.14,12.146000000000011
1520.13,7.96534285714287
1522.11,10.035323809523831
1524.09,35.068976190476235
1526.07,63.68364761904766
1528.05,66.35411428571433
1530.03,75.93615238095242
1532.01,87.90457142857147
1533.98,66.40088571428575
1535.96,76.94802857142861
1537.93,69.11575714285718
1539.9,71.28402857142864
1541.87,90.73732857142865
1543.84,112.18871428571435
1545.81,123.16085238095246
1547.78,132.938661904762
1549.74,116.13975238095246
1551.7,122.95414761904772
1553.67,134.61870476190487
1555.63,133.41828095238105
1557.59,147.5899238095239
1559.55,144.03761904761913
1561.5,134.04609523809532
1563.46,145.6625238095239
1565.41,155.17147619047628
1567.37,146.9055714285715
1569.32,131.05471428571434
1571.27,125.9993333333334
1573.22,117.97666666666674
1575.17,134.46229523809532
1577.11,143.2174238095239
1579.06,126.43190000000006
1581.0,102.34350000000006
1582.95,92.7613952380953
1584.89,77.92296666666674
1586.83,98.87530952380962
1588.77,129.42742857142866
1590.7,140.6740857142858
1592.64,142.13895238095247
1594.58,133.65499999999994
1596.51,136.88857142857154
1598.44,166.6726666666671
