Raman Shift,Processed Intensity
331.095,-11.310425714285811
333.909,-13.39034547619049
336.721,-5.6154219047619005
339.531,3.626256666666661
342.339,-7.696896190476194
345.145,-14.544118571428587
347.949,-13.205667619047631
350.751,-37.20801476190477
353.55,-5.456716190476163
356.348,24.38260095238096
359.144,15.360511428571435
361.937,16.19609904761907
364.729,38.22939238095242
367.518,40.849905714285796
370.306,124.92510571428585
373.091,254.84791428571447
375.874,347.0611619047621
378.656,395.15157142857163
381.435,366.04154285714293
384.212,241.75028095238105
386.988,136.8223571428572
389.761,62.47059047619051
392.532,41.33842380952385
395.301,16.070242857142873
398.068,26.598328571428603
400.833,26.90401428571431
403.596,60.25586666666669
406.358,42.781180952380964
409.117,49.75163333333334
411.874,29.726061904761927
414.629,26.88370000000002
417.382,20.595680952380988
420.133,54.61556666666671
422.882,68.17417619047626
425.629,118.59900952380966
428.374,193.59913809523826
431.117,238.3615809523811
433.858,271.312142857143
436.597,267.1162380952382
439.334,241.53514285714297
442.069,206.80728571428583
444.802,182.6477142857144
447.533,168.10609523809535
450.262,191.75633333333346
452.989,201.98319047619063
455.714,239.98147619047634
458.438,259.9942380952382
461.159,242.74109523809537
463.878,224.37076190476205
466.595,185.6993333333334
469.31,138.16219047619057
472.024,125.86214285714294
474.735,147.90247619047628
477.444,151.005761904762
480.152,157.942761904762
482.857,153.19852380952392
485.561,150.11542857142868
488.262,173.60771428571442
490.962,189.49485714285726
493.659,181.12014285714295
496.355,161.20790476190487
499.048,158.8160000000001
501.74,151.2880000000001
504.43,154.6819047619049
507.118,166.24657142857154
509.804,180.08757142857155
512.488,208.64385714285729
515.17,236.68823809523818
517.85,240.4214285714287
520.528,187.99664285714294
523.204,153.6622380952382
525.878,115.66650000000008
528.551,118.92445714285722
531.221,97.77960000000006
533.89,125.4319714285715
536.556,106.12938571428577
539.221,100.3097571428572
541.883,87.93484285714291
544.544,94.0137190476191
547.203,90.4124476190477
549.86,133.47249047619056
552.515,136.48841904761912
555.168,149.42041904761913
557.819,153.32396190476197
560.469,139.9682238095239
563.116,143.40829523809532
565.761,120.74595714285718
568.405,94.98800000000007
571.047,99.18799523809531
573.687,129.59015238095245
576.324,123.77146190476196
578.96,130.07044761904766
581.594,94.63473333333337
584.227,98.04025714285723
586.857,101.3861238095239
589.485,124.96171428571435
592.112,132.10381428571435
594.737,111.95812380952384
597.359,89.9561238095239
599.98,129.67124761904773
602.599,149.96240952380964
605.216,176.4499904761906
607.831,194.1348095238096
610.445,151.35097142857148
613.056,118.09888571428579
615.666,90.71146190476196
618.274,72.80734285714291
620.88,73.62376666666674
623.484,116.92120952380964
626.086,171.50755714285728
628.686,219.52352380952394
631.284,270.01442857142877
633.881,308.263142857143
636.476,301.6950476190478
639.068,296.1640952380954
641.659,264.9519523809525
644.249,210.6733333333335
646.836,193.9907142857144
649.421,173.37582857142866
652.005,136.91859523809532
654.587,114.80445238095244
657.166,83.93246952380956
659.745,46.96341476190479
662.321,26.510553333333355
664.895,38.09174714285718
667.468,42.08144380952384
670.038,49.85419095238099
672.607,59.97474571428575
675.174,73.57946666666672
677.739,98.85178095238105
680.303,153.7373380952382
682.864,172.75319047619055
685.424,137.6543190476191
687.982,97.38619523809527
690.538,68.51354761904764
693.092,30.553123809523843
695.645,38.546004761904804
698.195,60.77140000000002
700.744,41.079985714285726
703.291,19.17985238095238
705.836,10.064957142857132
708.38,-20.413347619047613
710.921,3.7393952380952786
713.461,29.660714285714313
715.999,58.917047619047665
718.535,74.74164761904767
721.069,103.79643809523816
723.602,108.69629047619054
726.133,124.43710476190482
728.662,92.44350000000006
731.189,77.09283333333337
733.714,65.1434047619048
736.238,55.020347619047655
738.759,55.196804761904815
741.279,86.47957619047625
743.798,107.67518095238101
746.314,105.25736666666671
748.829,101.93801904761908
751.342,70.52448571428575
753.853,49.91944761904767
756.362,59.264142857142915
758.869,95.88984190476195
761.375,76.98570857142862
763.879,83.26456952380958
766.381,82.29671523809527
768.882,91.70021714285721
771.38,90.23597047619053
773.877,106.14131809523813
776.372,85.32036666666671
778.866,87.29637619047624
781.357,71.73573333333339
783.847,102.73350952380959
786.335,100.62293809523815
788.821,112.35648095238103
791.306,117.9342571428572
793.789,134.73759047619055
796.27,114.14783809523816
798.749,107.73689047619052
801.227,78.07710952380958
803.702,89.02583333333342
806.176,126.15578571428584
808.649,185.65806190476204
811.119,208.39104761904773
813.588,181.87965714285718
816.055,146.4111714285715
818.521,127.55796190476198
820.984,128.7977238095239
823.446,125.75078095238102
825.906,124.27609523809531
828.365,101.3752333333334
830.821,93.62167619047625
833.276,98.15981428571436
835.729,117.99121904761913
838.181,132.11820476190485
840.631,131.06637142857147
843.079,129.50426666666675
845.525,130.8152571428572
847.97,122.14414761904769
850.412,101.44554761904767
852.854,93.10285523809527
855.293,51.49906238095241
857.731,52.01731523809528
860.167,44.23150190476191
862.601,42.47731523809527
865.034,32.80476000000002
867.465,37.74007904761906
869.894,36.99996428571432
872.321,52.82499523809526
874.747,55.836690476190526
877.171,70.18034761904764
879.594,65.57272857142861
882.014,70.06406190476196
884.433,85.46621428571433
886.851,80.49600476190483
889.266,112.15592857142866
891.68,142.63884285714295
894.092,138.94722857142864
896.503,134.65522380952387
898.912,131.6222428571429
901.319,101.56476190476198
903.724,121.43783333333342
906.128,136.0055714285715
908.53,152.8891904761906
910.931,163.71019047619058
913.329,156.80428571428578
915.726,152.07810476190485
918.122,146.53426666666672
920.516,126.2223476190477
922.908,122.04899047619054
925.298,97.06389047619052
927.687,79.36427619047626
930.074,90.85672952380958
932.459,72.97174857142862
934.843,59.04439714285717
937.225,53.83827047619051
939.605,39.92641142857147
941.984,64.26265238095243
944.361,68.46760714285716
946.736,49.685483809523824
949.11,36.58427476190478
951.482,29.49854095238097
953.853,33.286553809523845
956.222,48.139894285714306
958.589,35.05955238095241
960.954,57.379871428571484
963.318,77.10166666666672
965.68,87.844780952381
968.041,97.75283714285717
970.4,70.35033000000001
972.757,28.828379047619073
975.113,29.8066604761905
977.467,29.190374285714313
979.819,29.122882380952404
982.17,43.27128476190479
984.519,45.92161428571432
986.866,68.16960000000006
989.212,88.39636190476197
991.556,130.1258476190477
993.899,121.59636666666673
996.24,136.8082095238096
998.579,149.7612714285715
1000.92,146.50344285714291
1003.25,118.74891428571435
1005.59,103.54527619047622
1007.92,76.13048095238102
1010.25,80.36181428571436
1012.58,107.62000476190482
1014.91,118.57150952380958
1017.24,114.97796666666672
1019.56,88.93440952380959
1021.88,97.86899523809532
1024.2,114.59098571428581
1026.52,152.67177619047632
1028.84,173.4439047619049
1031.16,174.8596857142858
1033.48,161.91857142857154
1035.79,181.33447619047632
1038.1,217.86838095238113
1040.41,284.6154761904764
1042.72,325.14633333333353
1045.03,314.17490476190494
1047.33,288.17666666666685
1049.64,250.8654761904763
1051.94,220.76409523809542
1054.24,211.0152380952382
1056.54,210.47504761904773
1058.84,174.28571428571436
1061.13,181.25604761904776
1063.43,176.2901904761906
1065.72,194.7208571428573
1068.01,212.92809523809535
1070.3,222.0537142857144
1072.59,210.00204761904774
1074.87,217.15309523809535
1077.16,194.69661904761918
1079.44,189.39385714285726
1081.72,200.24366666666685
1084.0,232.05471428571448
1086.28,313.49271428571456
1088.56,408.1284761904765
1090.84,546.5327142857147
1093.11,638.3233809523813
1095.38,643.5473809523813
1097.65,578.7277619047621
1099.92,467.9582380952383
1102.19,369.5243809523812
1104.46,357.94890476190506
1106.72,364.0401428571431
1108.98,388.08319047619074
1111.24,425.1250000000003
1113.5,443.1645238095241
1115.76,484.82004761904784
1118.02,518.5189523809527
1120.28,511.3081904761908
1122.53,507.9488095238098
1124.78,487.91628571428595
1127.03,449.3051904761907
1129.28,402.4952380952383
1131.53,374.00961904761925
1133.77,322.56190476190494
1136.02,299.38919047619066
1138.26,267.30047619047633
1140.5,245.62842857142874
1142.74,226.46719047619064
1144.98,228.48300000000012
1147.22,228.91304761904777
1149.45,234.89947619047632
1151.69,218.39428571428584
1153.92,196.01569523809533
1156.15,165.76294761904768
1158.38,120.73090476190482
1160.61,101.2997190476191
1162.83,81.46913809523814
1165.06,76.28626190476196
1167.28,69.51230000000002
1169.5,57.00401428571432
1171.72,28.665702380952403
1173.94,31.639633333333357
1176.16,30.6399166666667
1178.37,47.66610000000004
1180.58,62.384564285714326
1182.8,84.93783809523813
1185.01,81.08759523809528
1187.22,72.9764904761905
1189.42,58.175771428571444
1191.63,32.5424142857143
1193.84,17.409700000000026
1196.04,32.82518571428575
1198.24,56.550838095238134
1200.44,57.82481428571432
1202.64,79.12342857142862
1204.84,61.018309523809535
1207.03,30.462071428571445
1209.23,26.597876190476207
1211.42,25.949923809523824
1213.61,22.613914285714323
1215.8,44.97130476190478
1217.99,43.35600952380955
1220.18,41.054371428571464
1222.36,57.4003666666667
1224.55,61.6803904761905
1226.73,51.89513809523812
1228.91,53.188195238095275
1231.09,43.17934761904764
1233.27,37.96455238095242
1235.44,48.16360000000003
1237.62,58.25336666666671
1239.79,68.18702857142864
1241.96,92.15568095238102
1244.13,98.54096666666673
1246.3,87.10547142857149
1248.47,99.0878714285715
1250.64,96.53656190476197
1252.8,113.16658571428582
1254.96,137.4072761904763
1257.13,174.16370476190488
1259.29,203.7222523809525
1261.44,230.13132380952393
1263.6,230.15328571428583
1265.76,237.5984761904763
1267.91,223.89638095238107
1270.06,228.4754285714287
1272.22,211.86042857142866
1274.37,188.3377142857144
1276.51,169.05042857142868
1278.66,188.570761904762
1280.81,179.7565238095239
1282.95,187.17923809523822
1285.09,182.50685714285729
1287.23,190.26338095238108
1289.37,194.83019047619058
1291.51,213.73161904761915
1293.65,189.7303333333334
1295.78,155.68347619047626
1297.92,124.40157142857151
1300.05,116.59914285714294
1302.18,126.65761904761915
1304.31,151.81566666666677
1306.44,161.26447619047627
1308.57,169.670761904762
1310.69,170.94009523809535
1312.82,191.69166666666678
1314.94,206.4973809523811
1317.06,226.548142857143
1319.18,249.79676190476206
1321.3,270.9103809523811
1323.41,289.0801428571431
1325.53,307.63942857142877
1327.64,341.87438095238116
1329.75,378.4520000000003
1331.87,426.08695238095265
1333.98,446.87504761904785
1336.08,437.3881904761907
1338.19,425.483523809524
1340.3,400.73300000000023
1342.4,363.517904761905
1344.5,336.8861428571431
1346.6,286.504761904762
1348.7,225.27871428571444
1350.8,233.11290476190487
1352.9,220.43666666666684
1354.99,247.77395238095255
1357.09,279.64876190476207
1359.18,288.2520476190478
1361.27,286.06004761904774
1363.36,285.501523809524
1365.45,259.767523809524
1367.54,242.57223809523828
1369.62,259.96361904761926
1371.7,287.5135714285716
1373.79,318.3173333333335
1375.87,349.0894761904764
1377.95,385.3064761904764
1380.03,389.5398571428574
1382.1,392.7422380952383
1384.18,359.05666666666684
1386.25,301.53071428571445
1388.33,270.4980952380954
1390.4,259.62576190476204
1392.47,261.86619047619064
1394.54,246.02904761904776
1396.6,217.44766666666675
1398.67,182.64614285714296
1400.74,173.5291904761906
1402.8,171.66852380952392
1404.86,185.1119523809525
1406.92,205.43090476190486
1408.98,197.76838095238105
1411.04,182.12457142857156
1413.09,189.30861904761915
1415.15,189.65428571428583
1417.2,181.4474761904763
1419.25,185.59290476190486
1421.3,171.5192857142858
1423.35,165.2264285714287
1425.4,188.85709523809535
1427.45,189.45923809523816
1429.49,193.55657142857154
1431.54,172.43471428571436
1433.58,159.4749523809525
1435.62,161.1056666666668
1437.66,169.37461904761915
1439.7,167.04385714285726
1441.74,169.92252380952388
1443.77,150.53447619047628
1445.81,160.5939523809525
1447.84,154.00566666666677
1449.87,153.76966666666675
1451.9,160.12419047619056
1453.93,138.92576190476197
1455.96,133.317761904762
1457.98,147.3472380952382
1460.01,167.06204761904775
1462.03,211.60471428571444
1464.05,239.30880952380969
1466.07,245.93576190476205
1468.09,269.7238571428573
1470.11,285.05361904761924
1472.13,293.2108571428573
1474.14,296.81428571428586
1476.16,282.7690476190478
1478.17,270.31261904761925
1480.18,262.06400000000014
1482.19,230.784761904762
1484.2,168.80814285714294
1486.21,143.03880952380962
1488.21,128.38171428571437
1490.22,134.6456000000001
1492.22,133.4019790476191
1494.22,100.74567190476193
1496.22,47.628843809523836
1498.22,44.5276585714286
1500.22,25.82292428571431
1502.22,33.22839952380956
1504.21,50.69638428571431
1506.21,54.75039428571432
1508.2,56.675928095238135
1510.19,70.56797809523812
1512.18,58.045342857142884
1514.17,53.86966095238098
1516.16,39.993106190476205
1518.14,35.748750476190494
1520.13,29.89827000000001
1522.11,20.39383142857145
1524.09,31.330406190476218
1526.07,46.56493523809525
1528.05,32.66862904761907
1530.03,36.927005714285734
1532.01,42.0541185714286
1533.98,59.43075333333339
1535.96,81.29476714285718
1537.93,81.07460285714286
1539.9,58.34146666666669
1541.87,32.618985714285735
1543.84,27.525995238095277
1545.81,41.252814285714315
1547.78,55.22784761904765
1549.74,66.21284761904766
1551.7,61.541009523809564
1553.67,70.92632380952386
1555.63,91.03542380952386
1557.59,88.39197619047624
1559.55,79.18623809523812
1561.5,89.46589047619052
1563.46,60.23056190476195
1565.41,77.48008761904768
1567.37,69.69058523809527
1569.32,63.337960952380996
1571.27,54.898371904761945
1573.22,68.99093238095243
1575.17,63.94865666666671
1577.11,80.62870190476194
1579.06,63.316580952381
1581.0,79.63102857142862
1582.95,76.14351428571433
1584.89,104.18736190476199
1586.83,131.6671095238096
1588.77,117.43975238095243
1590.7,103.3146190476191
1592.64,115.14887619047624
1594.58,115.87090476190471
1596.51,103.90923333333323
1598.44,70.76377857142859
