Raman Shift,Processed Intensity
331.095,42.86978571428553
333.909,-32.16025952380954
336.721,-61.67275952380949
339.531,-58.88608095238095
342.339,-38.92399047619048
345.145,-10.02842380952379
347.949,12.5611619047619
350.751,0.7498857142856856
353.55,-17.412367238095236
356.348,-13.159582476190472
359.144,-7.866788761904734
361.937,23.092813904761933
364.729,37.395492190476226
367.518,50.957131809523894
370.306,139.36230419047635
373.091,256.1970523809526
375.874,342.19212380952405
378.656,371.8895142857144
381.435,314.1657142857144
384.212,215.18471904761913
386.988,129.11210476190482
389.761,78.35290000000003
392.532,46.885276190476226
395.301,42.97460380952384
398.068,38.22060380952383
400.833,33.41534571428573
403.596,27.59013904761907
406.358,37.73011238095241
409.117,28.155046666666678
411.874,35.900365714285726
414.629,6.669395238095227
417.382,6.6430000000000415
420.133,22.574685714285764
422.882,67.60010952380959
425.629,122.37971904761918
428.374,199.38513333333344
431.117,253.99337619047637
433.858,289.8681619047621
436.597,281.24600000000015
439.334,229.9829523809525
442.069,202.26942857142868
444.802,163.4397142857144
447.533,157.06657142857154
450.262,165.24761904761917
452.989,189.55733333333345
455.714,219.09485714285728
458.438,228.34066666666675
461.159,193.7758571428572
463.878,140.69142857142862
466.595,104.71266666666675
469.31,98.60747619047629
472.024,144.85942857142868
474.735,163.80847619047628
477.444,177.36738095238104
480.152,175.59180952380962
482.857,187.7756666666668
485.561,208.97523809523824
488.262,222.05642857142868
490.962,205.74214285714294
493.659,189.61333333333343
496.355,173.58414285714295
499.048,167.5684761904763
501.74,145.1000476190477
504.43,135.42638095238104
507.118,128.937761904762
509.804,136.69176190476202
512.488,161.41233333333346
515.17,204.10933333333347
517.85,212.64928571428584
520.528,232.28000000000011
523.204,209.43938095238101
525.878,162.23200000000008
528.551,137.23875238095246
531.221,122.04020476190483
533.89,103.0258857142858
536.556,111.8240333333334
539.221,122.77643809523816
541.883,110.41523333333339
544.544,121.98700000000005
547.203,114.02335238095245
549.86,110.81796190476199
552.515,126.18787619047629
555.168,126.28287619047624
557.819,111.30055238095247
560.469,122.53358095238104
563.116,136.36926666666676
565.761,149.48027619047627
568.405,178.3012514285715
571.047,131.78994190476195
573.687,109.76107428571434
576.324,83.60075333333337
578.96,82.17046476190484
581.594,93.52199904761912
584.227,114.23106571428576
586.857,91.34863333333338
589.485,83.44941428571431
592.112,67.48861904761911
594.737,76.3735571428572
597.359,76.96357619047625
599.98,99.97482857142867
602.599,154.26573333333346
605.216,185.4090761904763
607.831,208.7386142857144
610.445,204.3979714285715
613.056,165.38680952380963
615.666,138.13361904761916
618.274,136.49461904761915
620.88,144.3737142857144
623.484,167.81690476190488
626.086,191.20357142857156
628.686,206.4838571428573
631.284,234.512523809524
633.881,277.14414285714304
636.476,313.2800000000002
639.068,308.0123333333335
641.659,274.76576190476203
644.249,232.67923809523822
646.836,194.03409523809535
649.421,169.34991428571436
652.005,137.3835571428572
654.587,123.5589771428572
657.166,94.15647238095244
659.745,77.31354000000003
662.321,43.88178000000001
664.895,34.141054285714326
667.468,33.94292476190482
670.038,68.51953904761909
672.607,74.57915714285718
675.174,80.87761428571434
677.739,88.59936190476196
680.303,115.88076666666673
682.864,138.33489047619054
685.424,122.28886190476193
687.982,70.1651561904762
690.538,15.719632380952376
693.092,-10.101201904761883
695.645,2.601389523809555
698.195,28.440739047619065
700.744,36.60166190476191
703.291,28.364424761904772
705.836,23.961748571428593
708.38,30.102698095238114
710.921,20.448907619047617
713.461,6.376457142857152
715.999,25.78547619047623
718.535,38.14764761904767
721.069,95.22058095238104
723.602,116.85733809523812
726.133,118.76825428571436
728.662,88.18780428571432
731.189,58.58868952380954
733.714,50.110533809523865
736.238,67.22624666666671
738.759,85.21860428571438
741.279,121.79894000000004
743.798,123.0600952380953
746.314,108.4756095238096
748.829,102.85281904761909
751.342,79.33233333333338
753.853,59.436033333333356
756.362,47.63821904761909
758.869,51.55645238095242
761.375,60.95098095238101
763.879,87.24892857142865
766.381,119.8302333333334
768.882,107.64595238095242
771.38,108.6474952380953
773.877,82.21498571428573
776.372,59.15730000000005
778.866,69.28337619047623
781.357,78.87868571428577
783.847,80.41890476190483
786.335,77.66577619047621
788.821,63.57158571428576
791.306,70.08890000000005
793.789,78.55110476190481
796.27,91.76787619047626
798.749,104.9300714285715
801.227,121.99070476190485
803.702,150.42656666666676
806.176,164.1906857142858
808.649,161.1410000000001
811.119,139.65928571428577
813.588,129.46066666666678
816.055,152.3082380952382
818.521,170.01257142857153
820.984,168.76547619047628
823.446,152.7588095238096
825.906,104.23202380952387
828.365,94.37690476190484
830.821,94.24259523809529
833.276,107.73523809523817
835.729,122.23792857142865
838.181,139.84738095238103
840.631,132.5653333333334
843.079,132.58414285714292
845.525,129.1915333333334
847.97,124.86544761904769
850.412,118.65576666666675
852.854,107.61201428571432
855.293,84.6885952380953
857.731,58.69718190476193
860.167,40.44958666666668
862.601,22.805084761904773
865.034,6.337353333333339
867.465,11.429653333333365
869.894,31.13186571428575
872.321,47.112985714285756
874.747,83.08963047619054
877.171,99.39752571428575
879.594,92.37235238095244
882.014,97.96900000000007
884.433,104.85641904761911
886.851,95.75132857142866
889.266,127.75128571428581
891.68,130.3350190476191
894.092,130.02885714285722
896.503,128.78771428571434
898.912,146.94690476190485
901.319,147.22327619047627
903.724,139.04756190476198
906.128,133.70793333333341
908.53,144.2066761904763
910.931,139.64164761904772
913.329,154.1098000000001
915.726,158.8520857142858
918.122,142.58457142857154
920.516,133.83335714285724
922.908,130.21930476190482
925.298,104.07818571428578
927.687,95.50703809523816
930.074,96.31764285714291
932.459,86.17823333333338
934.843,62.75744761904766
937.225,57.10451904761908
939.605,49.45937619047623
941.984,55.91898952380955
944.361,55.81818000000001
946.736,34.39655761904763
949.11,11.274584285714294
951.482,0.7869385714285819
953.853,14.934825238095275
956.222,42.624191904761936
958.589,40.14184523809527
960.954,86.20303333333341
963.318,96.66581428571433
965.68,95.67388095238103
968.041,108.51366666666672
970.4,96.32872857142861
972.757,85.40538828571437
975.113,100.69654519047621
977.467,61.77411276190478
979.819,43.876629571428595
982.17,31.671062285714306
984.519,25.872025190476243
986.866,58.00352780952385
989.212,79.78011809523815
991.556,87.2970095238096
993.899,112.12587619047628
996.24,130.1239238095239
998.579,153.19601904761913
1000.92,153.8655238095239
1003.25,148.9897333333334
1005.59,133.13968571428578
1007.92,100.41060952380958
1010.25,89.89750476190483
1012.58,105.8860571428572
1014.91,103.75639523809531
1017.24,117.88950476190483
1019.56,116.47519047619053
1021.88,105.84655238095246
1024.2,116.66957142857152
1026.52,143.61058095238104
1028.84,173.62128095238108
1031.16,212.4630666666668
1033.48,206.3734285714287
1035.79,198.0659523809525
1038.1,203.34942857142875
1040.41,205.84219047619064
1042.72,244.73419047619063
1045.03,264.4529523809525
1047.33,234.7600000000001
1049.64,199.7969047619049
1051.94,197.65833333333345
1054.24,181.72433333333345
1056.54,176.51790476190487
1058.84,182.27580952380964
1061.13,171.5689047619049
1063.43,192.1101904761906
1065.72,218.5657142857144
1068.01,209.50600000000009
1070.3,167.40604761904768
1072.59,157.9314761904763
1074.87,153.03376190476203
1077.16,186.66409523809537
1079.44,204.0120000000001
1081.72,220.83823809523824
1084.0,246.57023809523827
1086.28,342.9687619047622
1088.56,458.50885714285755
1090.84,596.5229047619051
1093.11,657.057428571429
1095.38,634.2064285714289
1097.65,537.921523809524
1099.92,436.82028571428594
1102.19,354.8538571428574
1104.46,323.16409523809546
1106.72,317.6547619047621
1108.98,346.0388095238098
1111.24,365.55371428571453
1113.5,405.3407142857145
1115.76,440.9700952380955
1118.02,480.5837142857146
1120.28,509.180285714286
1122.53,530.7112380952384
1124.78,505.7470476190478
1127.03,461.7150000000002
1129.28,372.5662857142859
1131.53,329.06223809523823
1133.77,273.53452380952393
1136.02,234.0303333333335
1138.26,232.31004761904777
1140.5,228.51580952380965
1142.74,219.8844285714287
1144.98,229.17733333333345
1147.22,233.25009523809535
1149.45,223.24523809523822
1151.69,243.2565047619049
1153.92,216.61662380952387
1156.15,188.22958095238107
1158.38,151.33253809523816
1160.61,119.54348095238102
1162.83,98.90970000000007
1165.06,93.71576190476195
1167.28,80.91326666666673
1169.5,88.26366666666671
1171.72,84.38513809523813
1173.94,73.61041333333337
1176.16,47.55808476190478
1178.37,42.17988857142862
1180.58,47.47506761904765
1182.8,52.20509809523813
1185.01,55.17901333333336
1187.22,47.63442761904763
1189.42,17.61856666666669
1191.63,22.464552380952398
1193.84,25.31479523809527
1196.04,44.54993333333338
1198.24,77.59841428571433
1200.44,83.65050952380956
1202.64,63.65850952380955
1204.84,44.38422857142861
1207.03,53.589671428571485
1209.23,63.70327619047623
1211.42,63.249071619047626
1213.61,38.60815685714285
1215.8,15.971288952380966
1217.99,6.053074571428594
1220.18,10.711164190476195
1222.36,17.94593400000001
1224.55,15.996069714285722
1226.73,7.862189523809556
1228.91,45.73565238095242
1231.09,55.23616285714287
1233.27,57.22172095238099
1235.44,69.21714190476193
1237.62,53.604316190476226
1239.79,58.62263428571435
1241.96,80.70176761904764
1244.13,65.84277142857148
1246.3,74.189880952381
1248.47,76.98238095238099
1250.64,81.31700952380962
1252.8,106.95714285714294
1254.96,132.42790476190484
1257.13,156.87377142857156
1259.29,206.15315238095252
1261.44,228.55357142857156
1263.6,255.5051904761906
1265.76,240.29552380952396
1267.91,212.02152380952393
1270.06,191.92317142857155
1272.22,168.5255761904763
1274.37,138.44986666666676
1276.51,142.55499523809533
1278.66,138.89053333333342
1280.81,139.83900476190485
1282.95,150.497980952381
1285.09,144.96438095238102
1287.23,150.28776190476202
1289.37,160.08938095238105
1291.51,174.79966666666675
1293.65,160.4203952380953
1295.78,133.95382380952387
1297.92,110.97343333333339
1300.05,95.81441428571435
1302.18,96.76433809523819
1304.31,131.25412857142865
1306.44,136.0951952380953
1308.57,125.38486666666672
1310.69,111.7442333333334
1312.82,111.60382857142865
1314.94,119.96560476190484
1317.06,139.64146666666676
1319.18,165.91868571428586
1321.3,192.08504761904777
1323.41,222.95195238095255
1325.53,275.04547619047634
1327.64,315.98652380952404
1329.75,362.72952380952404
1331.87,415.3234761904764
1333.98,429.24666666666684
1336.08,391.8820952380954
1338.19,341.32676190476207
1340.3,296.20128571428586
1342.4,267.0791904761906
1344.5,259.9142857142858
1346.6,234.23238095238108
1348.7,199.5110476190477
1350.8,175.94242857142868
1352.9,166.19457142857152
1354.99,172.31700000000012
1357.09,175.73938095238103
1359.18,151.46342857142866
1361.27,147.91871428571437
1363.36,155.630761904762
1365.45,171.21980952380966
1367.54,220.73500000000013
1369.62,236.7483809523811
1371.7,232.45176190476204
1373.79,242.22719047619063
1375.87,242.45647619047634
1377.95,260.09304761904775
1380.03,269.8520952380954
1382.1,256.0198571428573
1384.18,239.16852380952395
1386.25,231.20353333333344
1388.33,186.26831904761914
1390.4,160.79201904761914
1392.47,129.25115714285724
1394.54,96.64623333333338
1396.6,89.83460476190486
1398.67,112.24472857142862
1400.74,110.8769095238096
1402.8,104.350080952381
1404.86,106.23560476190481
1406.92,98.77136190476196
1408.98,79.00474761904766
1411.04,68.83992380952385
1413.09,68.22903809523815
1415.15,81.17121904761913
1417.2,113.52329523809533
1419.25,150.7129523809525
1421.3,161.16759047619053
1423.35,150.50561904761912
1425.4,146.63058095238105
1427.45,132.2555095238096
1429.49,130.7604190476191
1431.54,115.95345714285719
1433.58,99.594880952381
1435.62,78.73119523809528
1437.66,79.17011428571432
1439.7,63.5292571428572
1441.74,77.80699047619053
1443.77,89.0491952380953
1445.81,110.20637619047625
1447.84,121.70529047619056
1449.87,135.30612380952388
1451.9,133.81632857142864
1453.93,129.28186666666676
1455.96,131.65276666666676
1457.98,143.5936000000001
1460.01,130.86428571428578
1462.03,140.46290476190487
1464.05,161.81595238095247
1466.07,181.7309047619049
1468.09,242.15785714285732
1470.11,278.61819047619065
1472.13,288.96700000000016
1474.14,282.05909523809544
1476.16,273.4162857142859
1478.17,223.55995238095255
1480.18,216.15504761904776
1482.19,197.7704761904763
1484.2,184.6895904761906
1486.21,166.67210476190485
1488.21,139.14448571428574
1490.22,91.818780952381
1492.22,56.978875714285735
1494.22,28.09876142857144
1496.22,11.033172857142869
1498.22,26.3517004761905
1500.22,31.05227285714289
1502.22,44.656690000000026
1504.21,45.87730666666668
1506.21,28.616966666666677
1508.2,23.01667619047622
1510.19,35.97941904761906
1512.18,26.360590476190477
1514.17,10.396633333333341
1516.16,22.18121428571431
1518.14,28.189000952380987
1520.13,31.37096761904764
1522.11,47.4876923809524
1524.09,46.34742285714288
1526.07,30.90135428571432
1528.05,41.43406285714289
1530.03,49.849267619047644
1532.01,45.66975714285719
1533.98,79.65655238095245
1535.96,93.47537619047623
1537.93,86.88724285714291
1539.9,83.74850000000004
1541.87,72.62984285714289
1543.84,56.197204761904814
1545.81,76.35470000000005
1547.78,75.863580952381
1549.74,85.00906666666674
1551.7,109.36199523809532
1553.67,123.35038095238102
1555.63,129.40242857142866
1557.59,143.61290476190484
1559.55,139.17190476190487
1561.5,139.74595238095247
1563.46,132.42976190476196
1565.41,120.08028571428578
1567.37,121.98314285714294
1569.32,136.9477142857144
1571.27,155.687761904762
1573.22,167.20333333333343
1575.17,168.30378095238103
1577.11,141.8941857142858
1579.06,133.4030857142858
1581.0,143.25905238095248
1582.95,152.60484761904772
1584.89,157.1073761904763
1586.83,170.67135238095247
1588.77,148.24938095238105
1590.7,146.6985238095239
1592.64,147.066761904762
1594.58,152.49735714285725
1596.51,170.9906428571431
1598.44,208.21361904761943
