Raman Shift,Processed Intensity
331.095,46.193227857142304
333.909,-65.6066947619051
336.721,-85.8654776190479
339.531,-49.80199904761903
342.339,-8.564329047619026
345.145,47.12893428571431
347.949,57.418576666666674
350.751,37.447179047619045
353.55,-16.355328571428586
356.348,-8.938099999999984
359.144,-12.867759523809504
361.937,15.290923809523852
364.729,54.879626190476245
367.518,102.62290476190486
370.306,168.62758809523825
373.091,274.7641904761906
375.874,348.6667904761907
378.656,377.73319047619066
381.435,334.7911047619049
384.212,234.24164761904765
386.988,126.20118095238098
389.761,49.35911428571432
392.532,23.4541047619048
395.301,29.750180952380987
398.068,43.46499523809527
400.833,53.43698571428575
403.596,61.26772380952385
406.358,61.08408095238097
409.117,35.91905238095239
411.874,22.04514761904762
414.629,-13.359004761904774
417.382,-20.732480952380932
420.133,-7.084442857142845
422.882,31.672319047619116
425.629,84.96000952380962
428.374,166.01138571428586
431.117,216.15537619047635
433.858,275.91264761904773
436.597,275.47176190476205
439.334,262.0220476190477
442.069,233.80176190476203
444.802,202.19285714285726
447.533,176.5299047619049
450.262,185.14885714285725
452.989,214.76771428571442
455.714,236.72357142857157
458.438,253.54498095238108
461.159,222.90431428571438
463.878,168.7597238095239
466.595,134.02259047619057
469.31,126.84310476190484
472.024,113.51426666666674
474.735,132.04421904761912
477.444,144.29866666666678
480.152,145.1437142857144
482.857,152.7788095238096
485.561,156.3088095238096
488.262,164.7912380952382
490.962,180.33138095238107
493.659,237.08219047619065
496.355,239.95938095238105
499.048,203.25901428571436
501.74,142.51577619047626
504.43,119.21667142857152
507.118,131.37255714285732
509.804,201.85152857142873
512.488,263.42706190476207
515.17,250.96699047619057
517.85,227.19671428571445
520.528,202.55552380952392
523.204,172.05419047619057
525.878,146.9893333333334
528.551,149.5146571428572
531.221,105.21208571428578
533.89,105.80664761904768
536.556,108.07034285714292
539.221,107.15585714285722
541.883,113.07326190476199
544.544,95.45123333333339
547.203,83.20417619047626
549.86,72.15097619047624
552.515,88.87180476190485
555.168,94.3754333333334
557.819,109.14645714285723
560.469,127.95522857142868
563.116,155.23815714285723
565.761,132.2884333333334
568.405,127.97049047619055
571.047,121.29124285714295
573.687,125.20939523809534
576.324,165.16040476190489
578.96,173.6258952380953
581.594,141.23061904761911
584.227,117.59876190476196
586.857,115.54448571428578
589.485,97.54848571428577
592.112,110.37697142857151
594.737,111.1761333333334
597.359,126.18749523809532
599.98,150.50900952380962
602.599,182.0004380952382
605.216,182.85457142857155
607.831,176.02519047619055
610.445,140.75171428571434
613.056,117.41590476190483
615.666,104.97047619047626
618.274,113.55852380952389
620.88,109.46590476190484
623.484,125.6915714285715
626.086,141.04414285714296
628.686,159.66538095238107
631.284,185.50538095238105
633.881,207.89552380952392
636.476,223.11904761904776
639.068,247.98252380952397
641.659,248.1495047619049
644.249,215.0930095238096
646.836,171.23732380952387
649.421,124.95969523809532
652.005,98.1124571428572
654.587,80.83394761904766
657.166,68.54778571428575
659.745,53.915457142857164
662.321,24.693404761904777
664.895,20.161966666666693
667.468,35.553100000000036
670.038,58.765709523809576
672.607,70.60319047619052
675.174,106.05916190476196
677.739,107.98440000000005
680.303,106.70561904761911
682.864,103.16844285714289
685.424,84.4138047619048
687.982,57.62527619047624
690.538,55.79584285714289
693.092,53.63289333333336
695.645,47.79600285714287
698.195,30.42100095238095
700.744,3.8817542857142877
703.291,-2.5907228571428513
705.836,9.567974285714307
708.38,18.58893142857145
710.921,37.75089142857145
713.461,30.523150952380963
715.999,25.470349523809556
718.535,42.58548714285719
721.069,66.05261142857148
723.602,88.1506176190477
726.133,113.87314857142863
728.662,111.92806666666674
731.189,98.45191428571432
733.714,87.58115714285718
736.238,57.9766047619048
738.759,59.15588095238101
741.279,84.68486666666674
743.798,112.84368095238104
746.314,147.91279523809533
748.829,184.02951428571436
751.342,134.71279047619052
753.853,100.48159047619053
756.362,54.99804285714287
758.869,42.448542857142925
761.375,56.73381428571433
763.879,83.04019523809527
766.381,62.22152380952385
768.882,77.46503333333338
771.38,87.05313809523818
773.877,132.41195714285723
776.372,145.0149333333334
778.866,144.95518095238103
781.357,124.3731952380953
783.847,109.45794285714294
786.335,112.63566190476197
788.821,118.42916190476198
791.306,142.40852380952393
793.789,163.90614285714295
796.27,178.54009523809535
798.749,160.40519047619057
801.227,165.35790476190488
803.702,178.39833333333345
806.176,208.66890476190488
808.649,235.16971428571443
811.119,232.85366666666675
813.588,221.7210952380954
816.055,233.82023809523824
818.521,224.34233333333347
820.984,199.09766666666678
823.446,191.18266666666676
825.906,155.17028571428582
828.365,153.01414285714293
830.821,135.2872857142858
833.276,141.08638095238106
835.729,146.22290476190486
838.181,166.93676190476202
840.631,199.51585714285724
843.079,209.15271428571438
845.525,176.9452380952382
847.97,169.75271428571435
850.412,141.53020000000006
852.854,104.75624761904768
855.293,110.19562857142864
857.731,102.32715238095244
860.167,84.534780952381
862.601,67.48816190476194
865.034,74.52369523809529
867.465,63.64450000000005
869.894,77.71117142857148
872.321,90.48886190476196
874.747,99.31406666666672
877.171,105.23797619047626
879.594,108.16854761904766
882.014,104.72863809523818
884.433,116.11206190476199
886.851,131.79901904761917
889.266,158.4593666666668
891.68,176.858961904762
894.092,190.52521904761917
896.503,170.31929047619056
898.912,169.57810476190485
901.319,149.78175714285723
903.724,142.64810476190485
906.128,154.65738571428582
908.53,178.7656476190477
910.931,174.5957142857144
913.329,189.86590476190486
915.726,178.86566666666675
918.122,170.07480952380962
920.516,165.73555238095247
922.908,135.27990952380958
925.298,124.9022000000001
927.687,111.89191428571436
930.074,97.10993333333339
932.459,92.08342380952386
934.843,67.67336190476193
937.225,52.97862857142862
939.605,70.954980952381
941.984,80.32010000000005
944.361,83.60122857142862
946.736,91.27791428571433
949.11,69.16290952380956
951.482,59.307247619047665
953.853,52.71377619047621
956.222,29.52847619047621
958.589,26.182923809523846
960.954,56.298895238095284
963.318,61.831638095238134
965.68,79.26027619047625
968.041,96.72992380952387
970.4,102.14779047619054
972.757,103.08783809523814
975.113,103.69501142857146
977.467,54.06686619047621
979.819,38.11032285714289
982.17,25.39836714285716
984.519,33.932775238095275
986.866,49.95340333333337
989.212,42.223558095238104
991.556,38.935088571428636
993.899,79.13688190476196
996.24,99.49655047619054
998.579,121.58643238095244
1000.92,120.35969904761909
1003.25,90.1502047619048
1005.59,75.76824761904768
1007.92,101.02347142857151
1010.25,107.91624285714293
1012.58,131.68466666666674
1014.91,141.9002761904763
1017.24,159.84848571428583
1019.56,146.62463809523817
1021.88,133.98993809523813
1024.2,95.42047619047626
1026.52,101.43917619047627
1028.84,120.71193333333343
1031.16,165.33331904761917
1033.48,176.82625714285723
1035.79,193.38014285714297
1038.1,195.42271428571445
1040.41,233.143142857143
1042.72,264.8257619047621
1045.03,267.42223809523824
1047.33,236.1685714285715
1049.64,208.44452380952393
1051.94,180.8674285714287
1054.24,187.53076190476202
1056.54,184.90914285714294
1058.84,174.33414285714295
1061.13,152.27990476190485
1063.43,149.50676190476202
1065.72,155.39342857142867
1068.01,163.50947619047628
1070.3,153.47195238095247
1072.59,170.75447619047628
1074.87,185.45061904761917
1077.16,192.55800000000008
1079.44,198.7409047619049
1081.72,228.47333333333353
1084.0,276.32404761904786
1086.28,348.7668095238098
1088.56,455.94266666666704
1090.84,554.9442380952385
1093.11,621.4355714285718
1095.38,644.414428571429
1097.65,593.8304285714288
1099.92,486.2526190476193
1102.19,401.8212857142859
1104.46,352.9623809523812
1106.72,332.67328571428595
1108.98,338.3802380952383
1111.24,369.69995238095265
1113.5,419.963047619048
1115.76,461.7859523809527
1118.02,497.68990476190504
1120.28,508.2437619047622
1122.53,514.3022380952384
1124.78,498.95823809523836
1127.03,465.8758095238098
1129.28,398.3857619047621
1131.53,339.34266666666684
1133.77,283.4586666666669
1136.02,263.06471428571444
1138.26,261.2062857142859
1140.5,271.0236666666668
1142.74,278.4193333333335
1144.98,264.77200000000016
1147.22,265.3176666666668
1149.45,236.10176190476204
1151.69,236.7416666666668
1153.92,218.56828571428582
1156.15,204.34161904761916
1158.38,169.2502380952382
1160.61,162.53032380952388
1162.83,119.08498571428579
1165.06,102.81741428571434
1167.28,71.2020047619048
1169.5,48.522785714285746
1171.72,40.302080952381004
1173.94,62.82436666666672
1176.16,98.65980000000008
1178.37,126.37840476190482
1180.58,133.83617619047624
1182.8,91.03201904761906
1185.01,48.869633333333354
1187.22,29.015071428571467
1189.42,35.51518095238098
1191.63,44.702520000000035
1193.84,47.43366047619049
1196.04,36.66048761904764
1198.24,36.28740619047623
1200.44,74.02849238095244
1202.64,91.31202238095243
1204.84,83.47119619047622
1207.03,67.6012285714286
1209.23,48.94024761904764
1211.42,32.39316190476194
1213.61,40.10318571428572
1215.8,26.594333333333342
1217.99,21.867023809523843
1220.18,40.11228095238098
1222.36,43.75929047619049
1224.55,50.8088142857143
1226.73,11.166533333333327
1228.91,12.642938095238142
1231.09,41.763104761904806
1233.27,66.4331952380953
1235.44,73.03576666666669
1237.62,91.1914666666667
1239.79,67.23569523809529
1241.96,65.59901428571433
1244.13,75.33148571428578
1246.3,98.53068095238102
1248.47,115.29443333333342
1250.64,121.9583571428572
1252.8,109.95413333333337
1254.96,94.04635238095244
1257.13,114.66691428571438
1259.29,160.15221904761916
1261.44,201.21988571428582
1263.6,204.73009523809532
1265.76,179.06728571428582
1267.91,150.75866666666676
1270.06,151.9509523809525
1272.22,157.9808380952382
1274.37,153.51857619047627
1276.51,146.80591428571435
1278.66,126.70370952380958
1280.81,103.45372380952388
1282.95,108.20271904761913
1285.09,115.1447714285715
1287.23,113.4264333333334
1289.37,99.43248571428578
1291.51,99.92881428571435
1293.65,106.49017619047625
1295.78,94.07270000000005
1297.92,79.10860952380955
1300.05,52.83953809523812
1302.18,45.88801904761911
1304.31,62.114866666666714
1306.44,79.33283333333338
1308.57,95.64052380952387
1310.69,86.32687619047623
1312.82,91.3475857142858
1314.94,119.89626666666675
1317.06,148.16623809523819
1319.18,153.63662857142867
1321.3,167.69158095238106
1323.41,155.57185714285725
1325.53,177.3756666666668
1327.64,226.2962380952383
1329.75,289.19285714285735
1331.87,347.44919047619067
1333.98,376.0680476190478
1336.08,351.57523809523826
1338.19,301.64023809523826
1340.3,270.0744285714287
1342.4,220.87980952380966
1344.5,212.10647619047631
1346.6,197.42312380952387
1348.7,144.1169571428572
1350.8,110.76172380952387
1352.9,106.40611904761911
1354.99,90.62344285714293
1357.09,112.32044285714294
1359.18,128.54607142857148
1361.27,128.25386666666677
1363.36,150.3976238095239
1365.45,161.78774285714294
1367.54,166.9020952380953
1369.62,167.17009523809534
1371.7,197.1166190476192
1373.79,220.31371428571444
1375.87,251.00014285714298
1377.95,254.03352380952396
1380.03,238.84352380952393
1382.1,204.43009523809536
1384.18,213.12723809523823
1386.25,201.50652380952394
1388.33,202.61542857142868
1390.4,179.83514285714293
1392.47,164.97545714285724
1394.54,132.60731428571435
1396.6,104.96859523809529
1398.67,87.24944771428576
1400.74,56.06813319047622
1402.8,39.13863780952386
1404.86,52.88895204761908
1406.92,68.07979019047625
1408.98,71.71048557142862
1411.04,83.25615247619051
1413.09,79.62050952380957
1415.15,86.61165714285721
1417.2,100.22838571428579
1419.25,104.040280952381
1421.3,109.47458095238103
1423.35,123.10092857142864
1425.4,138.67941904761912
1427.45,114.30316190476195
1429.49,107.8275428571429
1431.54,60.01204761904764
1433.58,49.66380000000005
1435.62,70.92346666666673
1437.66,93.69313333333338
1439.7,81.82727142857146
1441.74,92.89467619047622
1443.77,85.08262857142863
1445.81,85.0548095238096
1447.84,93.99876190476196
1449.87,124.24460000000008
1451.9,113.93193809523815
1453.93,116.05761904761913
1455.96,124.09398571428578
1457.98,130.37110476190486
1460.01,133.07600476190487
1462.03,160.49069523809533
1464.05,154.75457142857152
1466.07,172.00680952380966
1468.09,214.67223809523827
1470.11,262.4140476190478
1472.13,287.1333809523811
1474.14,287.5404761904764
1476.16,283.15566666666683
1478.17,279.7848571428573
1480.18,264.1863333333335
1482.19,239.49938095238107
1484.2,193.3392380952382
1486.21,147.51182857142868
1488.21,117.01387142857149
1490.22,87.17546190476195
1492.22,74.56440476190481
1494.22,72.2726047619048
1496.22,48.53483809523812
1498.22,49.06226190476193
1500.22,39.518547619047645
1502.22,38.99593333333338
1504.21,62.729642857142885
1506.21,62.24076666666668
1508.2,64.33602857142863
1510.19,81.01300000000003
1512.18,56.22166666666671
1514.17,65.67395238095243
1516.16,62.84386666666669
1518.14,50.586509523809575
1520.13,68.56640000000004
1522.11,68.16281904761907
1524.09,48.70732857142861
1526.07,73.29360000000004
1528.05,70.06290952380957
1530.03,75.15677619047624
1532.01,75.19294761904766
1533.98,82.07502380952387
1535.96,79.56382857142863
1537.93,91.61096666666673
1539.9,101.21548571428579
1541.87,97.37657142857148
1543.84,100.1410857142858
1545.81,119.88960952380958
1547.78,129.1928000000001
1549.74,130.05057619047625
1551.7,128.27216190476196
1553.67,117.9049190476191
1555.63,111.23437142857149
1557.59,120.87970952380961
1559.55,137.9834095238096
1561.5,135.59360952380962
1563.46,154.75790476190485
1565.41,164.81014285714295
1567.37,168.65523809523825
1569.32,195.96047619047627
1571.27,181.82142857142867
1573.22,167.42900000000012
1575.17,181.83128571428583
1577.11,173.88633333333345
1579.06,182.73766666666677
1581.0,188.24366666666674
1582.95,153.21447619047626
1584.89,141.0792857142858
1586.83,154.0297142857144
1588.77,180.54266666666678
1590.7,202.85757142857153
1592.64,221.92780952380963
1594.58,219.94492857142856
1596.51,222.33871428571447
1598.44,240.9436666666673
