Raman Shift,Processed Intensity
331.095,89.57657380952362
333.909,-30.1598738095239
336.721,-72.85501666666671
339.531,-65.24307142857144
342.339,-36.86875238095239
345.145,-27.84683047619049
347.949,-6.907490000000021
350.751,-21.06396095238098
353.55,-51.51694809523813
356.348,-46.035856190476196
359.144,-35.863494761904754
361.937,5.522155238095316
364.729,65.88364761904771
367.518,139.17716666666678
370.306,208.8374380952383
373.091,335.3019809523812
375.874,463.915047619048
378.656,540.5478095238097
381.435,519.5013809523812
384.212,410.3660476190477
386.988,262.9714761904763
389.761,158.34033333333343
392.532,124.59238095238106
395.301,108.13557142857152
398.068,129.7600095238096
400.833,121.02045238095243
403.596,70.71086666666667
406.358,44.34151904761909
409.117,48.472219047619106
411.874,71.42644285714293
414.629,109.76695238095245
417.382,119.05822857142863
420.133,123.48514285714296
422.882,148.66257142857154
425.629,205.15942857142875
428.374,263.92695238095257
431.117,346.29804761904785
433.858,403.17814285714314
436.597,423.6644285714288
439.334,364.3314285714287
442.069,307.13542857142875
444.802,259.7956190476192
447.533,264.60366666666687
450.262,312.75604761904776
452.989,330.87938095238115
455.714,333.36238095238116
458.438,329.6894761904764
461.159,307.39366666666683
463.878,269.4375714285716
466.595,247.25928571428585
469.31,222.20328571428584
472.024,219.13709523809538
474.735,191.5010000000001
477.444,181.06828571428582
480.152,203.9465714285716
482.857,235.7190476190478
485.561,256.2557142857144
488.262,281.9973333333335
490.962,269.7192857142859
493.659,253.00528571428586
496.355,266.4875714285716
499.048,261.60752380952397
501.74,213.80676190476203
504.43,217.57433333333347
507.118,235.30447619047635
509.804,251.58114285714305
512.488,310.7504761904764
515.17,345.96809523809543
517.85,334.19914285714304
520.528,334.1225714285716
523.204,287.9412380952382
525.878,229.57185714285725
528.551,179.549761904762
531.221,139.12466666666674
533.89,143.68924761904773
536.556,149.20678666666672
539.221,101.92630571428575
541.883,75.6204685714286
544.544,70.25160857142865
547.203,71.25829714285724
549.86,126.3648676190477
552.515,178.3424438095239
555.168,157.67649047619054
557.819,116.3759428571429
560.469,103.496480952381
563.116,73.71291428571436
565.761,107.46162380952393
568.405,160.98813333333342
571.047,180.48989523809533
573.687,185.78290476190486
576.324,188.82590476190484
578.96,158.57690476190484
581.594,145.56542857142864
584.227,131.41547619047628
586.857,130.08409523809533
589.485,135.5277095238096
592.112,127.27425714285718
594.737,105.80305238095244
597.359,79.83171428571433
599.98,54.64835714285717
602.599,54.398180952381
605.216,64.79727619047625
607.831,69.22806666666673
610.445,118.0248476190477
613.056,132.7597666666667
615.666,104.7664428571429
618.274,103.04447142857148
620.88,90.11734761904766
623.484,88.50798571428582
626.086,153.83413809523822
628.686,197.09432380952396
631.284,214.42957142857156
633.881,248.64657142857155
636.476,229.9810476190477
639.068,200.14414285714298
641.659,191.37046666666677
644.249,174.94222476190487
646.836,121.09365095238101
649.421,77.58210190476191
652.005,56.64151571428576
654.587,45.409801904761956
657.166,57.64377000000004
659.745,55.71919142857144
662.321,52.868490476190516
664.895,53.2289952380953
667.468,80.08057619047625
670.038,103.22668571428576
672.607,83.8039142857143
675.174,60.567933333333386
677.739,66.13090476190482
680.303,91.62921904761913
682.864,117.81792380952388
685.424,115.16635714285717
687.982,73.28661428571431
690.538,49.07660952380955
693.092,43.95771238095243
695.645,38.113336190476225
698.195,62.4412247619048
700.744,48.45795428571431
703.291,50.53739142857147
705.836,55.43439809523814
708.38,80.18952190476195
710.921,70.36729523809528
713.461,71.96100000000003
715.999,45.725604761904805
718.535,64.93999047619054
721.069,93.83586666666676
723.602,153.5972952380953
726.133,168.8845571428572
728.662,167.92956190476195
731.189,110.53588571428574
733.714,46.840490476190496
736.238,19.314085714285753
738.759,39.71347714285718
741.279,32.60484619047623
743.798,62.269020952380984
746.314,72.17785380952384
748.829,65.18398761904767
751.342,67.42607000000004
753.853,97.28132000000005
756.362,101.55557619047626
758.869,98.57892380952389
761.375,103.44375714285721
763.879,130.1470000000001
766.381,147.9238761904763
768.882,202.62898095238108
771.38,195.54583809523817
773.877,167.95813333333342
776.372,126.2926476190477
778.866,119.64327619047629
781.357,120.53197142857152
783.847,144.2432571428572
786.335,122.49066666666674
788.821,122.03476190476196
791.306,104.25600000000007
793.789,124.43985714285722
796.27,140.7760000000001
798.749,139.9785714285715
801.227,145.42861904761915
803.702,161.36433333333343
806.176,179.833761904762
808.649,210.980142857143
811.119,247.08976190476204
813.588,225.73466666666678
816.055,188.0109523809525
818.521,172.253142857143
820.984,174.12909523809535
823.446,186.83038095238106
825.906,211.31095238095253
828.365,193.76261904761915
830.821,177.28228571428585
833.276,205.68080952380967
835.729,211.10319047619063
838.181,227.69404761904775
840.631,254.50342857142874
843.079,236.7716666666668
845.525,223.69112380952393
847.97,194.2639095238096
850.412,145.39727619047628
852.854,111.61741904761914
855.293,114.35567619047623
857.731,99.37657619047624
860.167,96.53957142857148
862.601,65.37143809523815
865.034,62.731923809523856
867.465,79.67158571428578
869.894,111.52666666666676
872.321,122.6810476190477
874.747,152.66133333333343
877.171,156.8992380952382
879.594,161.3976666666668
882.014,187.7787142857144
884.433,212.23595238095248
886.851,196.2011904761906
889.266,218.91538095238107
891.68,223.7150952380954
894.092,223.55580952380967
896.503,240.96428571428586
898.912,245.94357142857154
901.319,239.35428571428582
903.724,245.5804285714287
906.128,255.9106666666668
908.53,243.49104761904775
910.931,231.70552380952392
913.329,212.50919047619058
915.726,210.8101904761906
918.122,194.18261904761917
920.516,204.24852380952393
922.908,195.58225714285723
925.298,160.09149523809532
927.687,152.82630476190485
930.074,141.59931904761913
932.459,118.36524761904771
934.843,111.41257142857148
937.225,119.3628266666667
939.605,82.36129809523814
941.984,78.69586761904765
944.361,66.74996857142861
946.736,73.57337428571434
949.11,56.78726428571433
951.482,75.39361619047624
953.853,77.68021000000005
956.222,72.45835142857148
958.589,83.92006619047625
960.954,104.87687809523815
963.318,103.28254285714294
965.68,126.94793809523819
968.041,169.73200952380964
970.4,165.39757142857152
972.757,175.56500000000008
975.113,159.09276190476197
977.467,151.98161904761915
979.819,143.42309523809536
982.17,139.46614285714296
984.519,164.0158571428573
986.866,230.21642857142876
989.212,281.3061428571431
991.556,345.71438095238113
993.899,400.8223333333336
996.24,424.8690952380955
998.579,451.4738095238098
1000.92,463.77995238095264
1003.25,429.0730476190478
1005.59,368.54419047619064
1007.92,318.4313333333335
1010.25,272.11571428571443
1012.58,252.35933333333347
1014.91,236.2574285714287
1017.24,213.52419047619063
1019.56,210.5879047619049
1021.88,213.21061904761916
1024.2,204.39180952380968
1026.52,230.75038095238114
1028.84,229.2858095238097
1031.16,229.33142857142872
1033.48,246.36242857142872
1035.79,266.0931904761906
1038.1,282.66600000000017
1040.41,323.5086666666669
1042.72,368.5253809523811
1045.03,379.6682857142859
1047.33,371.74576190476205
1049.64,338.09061904761916
1051.94,287.94014285714303
1054.24,255.43652380952398
1056.54,242.05504761904777
1058.84,210.5096190476192
1061.13,210.3227142857144
1063.43,233.3508095238097
1065.72,235.2596190476192
1068.01,273.23861904761924
1070.3,275.66771428571445
1072.59,269.59395238095254
1074.87,273.9680476190478
1077.16,295.3610000000002
1079.44,295.5813333333336
1081.72,333.29423809523837
1084.0,370.4037142857146
1086.28,441.62323809523843
1088.56,543.4750000000004
1090.84,655.7202857142862
1093.11,739.7862380952386
1095.38,747.5289047619051
1097.65,719.1850952380956
1099.92,624.1353333333336
1102.19,522.6160000000002
1104.46,451.4360476190478
1106.72,417.9271428571431
1108.98,403.32652380952413
1111.24,448.2995238095241
1113.5,503.4644285714289
1115.76,571.3435714285717
1118.02,626.5552857142861
1120.28,648.5745238095242
1122.53,656.2095714285718
1124.78,626.8881904761909
1127.03,566.9425714285717
1129.28,517.1811904761906
1131.53,471.3650952380954
1133.77,409.2550000000002
1136.02,373.7546666666669
1138.26,321.9584285714288
1140.5,311.00833333333355
1142.74,340.56980952380974
1144.98,354.78533333333354
1147.22,341.36776190476206
1149.45,314.9357142857145
1151.69,268.583523809524
1153.92,254.739142857143
1156.15,250.40152380952395
1158.38,242.80847619047634
1160.61,223.9587904761906
1162.83,193.42341904761912
1165.06,147.0589952380953
1167.28,94.91252857142862
1169.5,63.17406190476196
1171.72,76.22421428571434
1173.94,81.58616666666671
1176.16,63.54522380952385
1178.37,79.91063809523816
1180.58,78.5392190476191
1182.8,83.0497352380953
1185.01,70.10876142857144
1187.22,56.19228476190478
1189.42,23.34786238095242
1191.63,65.24200857142864
1193.84,83.8749090476191
1196.04,93.34182571428576
1198.24,100.02397619047626
1200.44,98.44525714285719
1202.64,85.79638571428579
1204.84,103.36296190476196
1207.03,102.43140476190482
1209.23,94.24012857142863
1211.42,102.50395714285717
1213.61,72.03271904761907
1215.8,64.82700476190482
1217.99,68.50605714285719
1220.18,73.16583333333338
1222.36,76.85447619047623
1224.55,68.95357142857145
1226.73,27.606561904761918
1228.91,22.623704761904783
1231.09,18.481795238095252
1233.27,19.133876190476215
1235.44,22.15207619047622
1237.62,49.775233333333375
1239.79,64.76590952380958
1241.96,82.64862380952387
1244.13,96.61462380952386
1246.3,96.33118571428578
1248.47,82.27517619047626
1250.64,85.59036666666672
1252.8,104.18189047619056
1254.96,131.62209047619058
1257.13,163.72119523809533
1259.29,181.09870476190486
1261.44,198.89842857142867
1263.6,176.97838095238106
1265.76,171.14838095238107
1267.91,158.7425714285715
1270.06,126.42819047619057
1272.22,124.20604761904772
1274.37,150.55314285714294
1276.51,183.7558571428573
1278.66,203.52885714285722
1280.81,190.396761904762
1282.95,173.45547619047628
1285.09,156.2296190476191
1287.23,151.5767142857144
1289.37,198.68800000000013
1291.51,203.37347619047628
1293.65,188.77690476190492
1295.78,179.89914285714292
1297.92,165.12138095238106
1300.05,150.01580952380962
1302.18,148.39276190476198
1304.31,130.87147619047624
1306.44,115.45285714285723
1308.57,130.18514285714298
1310.69,181.4494761904763
1312.82,213.67552380952392
1314.94,222.38757142857156
1317.06,233.68119047619064
1319.18,248.22395238095254
1321.3,257.4449047619049
1323.41,293.2494285714288
1325.53,321.01900000000023
1327.64,356.420666666667
1329.75,416.026666666667
1331.87,481.5514285714289
1333.98,490.9481428571431
1336.08,482.8840476190478
1338.19,434.0738095238098
1340.3,377.3752380952383
1342.4,342.9791904761907
1344.5,322.55247619047634
1346.6,323.191142857143
1348.7,318.32433333333347
1350.8,306.8095714285716
1352.9,277.26657142857164
1354.99,273.60023809523824
1357.09,257.9063333333335
1359.18,265.1852857142859
1361.27,278.24719047619067
1363.36,293.8537619047621
1365.45,311.05352380952405
1367.54,358.75157142857165
1369.62,403.7578571428574
1371.7,416.7390952380955
1373.79,445.9341428571431
1375.87,455.48566666666693
1377.95,445.0610476190479
1380.03,426.32733333333357
1382.1,415.14204761904784
1384.18,353.55280952380974
1386.25,321.3222380952382
1388.33,287.49771428571444
1390.4,256.88919047619066
1392.47,227.16371428571443
1394.54,241.17858095238105
1396.6,189.02912857142866
1398.67,174.71578095238107
1400.74,173.80996666666678
1402.8,193.12159047619065
1404.86,225.74593809523827
1406.92,253.54020000000014
1408.98,205.7904285714287
1411.04,213.49676190476205
1413.09,220.3260000000002
1415.15,236.0402380952383
1417.2,257.3533809523811
1419.25,248.02757142857158
1421.3,243.1583809523811
1423.35,265.12685714285726
1425.4,253.88514285714297
1427.45,254.29057142857155
1429.49,226.00957142857155
1431.54,215.99480952380966
1433.58,208.7698571428573
1435.62,202.4778571428573
1437.66,192.49938095238107
1439.7,198.83414285714298
1441.74,214.67295238095255
1443.77,242.01557142857158
1445.81,243.33800000000014
1447.84,235.44961904761917
1449.87,231.44566666666682
1451.9,216.897142857143
1453.93,228.5660476190478
1455.96,240.16600000000017
1457.98,246.69723809523822
1460.01,242.96880952380968
1462.03,233.12352380952396
1464.05,229.8753809523811
1466.07,235.6999047619049
1468.09,245.26333333333346
1470.11,262.3752857142859
1472.13,268.4162380952382
1474.14,263.24319047619065
1476.16,277.5700476190478
1478.17,268.4912857142858
1480.18,251.48276190476204
1482.19,219.16304761904772
1484.2,170.24585714285723
1486.21,124.3975714285715
1488.21,108.33209523809529
1490.22,103.47708571428579
1492.22,115.3560190476191
1494.22,104.53970000000005
1496.22,107.36093333333338
1498.22,88.24766666666672
1500.22,73.77080952380958
1502.22,76.73893333333338
1504.21,62.103923809523835
1506.21,44.48411904761908
1508.2,49.45021428571431
1510.19,44.0014666666667
1512.18,37.56569047619051
1514.17,65.71353809523814
1516.16,54.15850476190478
1518.14,41.852180952380984
1520.13,41.46045714285717
1522.11,42.45871428571432
1524.09,64.37012380952388
1526.07,85.76528095238098
1528.05,73.54825714285718
1530.03,64.86118095238099
1532.01,74.56057619047624
1533.98,75.88382857142864
1535.96,81.78274761904764
1537.93,68.30424761904766
1539.9,51.8287047619048
1541.87,48.260266666666716
1543.84,63.02700000000004
1545.81,73.55688095238101
1547.78,78.56366190476196
1549.74,80.85636666666672
1551.7,85.71998571428578
1553.67,124.86859523809534
1555.63,143.58740952380958
1557.59,155.5424761904763
1559.55,137.4477428571429
1561.5,119.6362571428572
1563.46,95.96436190476196
1565.41,90.71762857142862
1567.37,75.37189047619053
1569.32,85.21224761904767
1571.27,82.95275714285721
1573.22,115.4502095238096
1575.17,130.89480476190482
1577.11,116.19080000000007
1579.06,110.95731904761912
1581.0,102.241380952381
1582.95,102.56639047619056
1584.89,124.69405714285725
1586.83,148.86246666666676
1588.77,154.97586666666675
1590.7,151.08181904761912
1592.64,137.5608095238096
1594.58,134.9602380952382
1596.51,133.92309523809539
1598.44,132.28271428571455
