Raman Shift,Processed Intensity
331.095,32.51292666666657
333.909,-1.417486666666683
336.721,-16.704293095238093
339.531,-19.406894285714287
342.339,-18.871137619047623
345.145,4.677194285714274
347.949,-29.675432857142884
350.751,-32.64993333333336
353.55,-63.25074523809527
356.348,-49.52763047619046
359.144,-24.813864761904735
361.937,32.892757142857185
364.729,70.93053333333341
367.518,112.97258571428583
370.306,182.45654285714306
373.091,324.2506000000003
375.874,458.6055714285717
378.656,520.8700476190479
381.435,483.6323809523811
384.212,362.5776666666668
386.988,217.7266238095239
389.761,99.81586190476196
392.532,64.05956666666673
395.301,47.388671428571485
398.068,48.449204761904824
400.833,81.6987285714286
403.596,64.16768571428572
406.358,43.173731428571465
409.117,38.51207380952382
411.874,22.217635238095248
414.629,-9.578204761904749
417.382,18.54310190476194
420.133,51.33465047619055
422.882,94.40782666666676
425.629,163.27998428571442
428.374,238.51736095238113
431.117,288.0203333333335
433.858,331.9764761904763
436.597,358.9549047619049
439.334,295.33504761904777
442.069,249.78323809523823
444.802,219.87147619047633
447.533,196.31480952380969
450.262,201.0203333333335
452.989,260.1332857142859
455.714,271.037523809524
458.438,278.11819047619065
461.159,252.37976190476198
463.878,193.44585714285725
466.595,152.75066666666677
469.31,174.9191904761906
472.024,159.00519047619056
474.735,165.9204285714287
477.444,173.7192857142858
480.152,179.88561904761917
482.857,166.66485714285724
485.561,214.92238095238105
488.262,208.3804285714287
490.962,241.14276190476204
493.659,255.88438095238106
496.355,225.13835714285722
499.048,170.77033333333344
501.74,144.45616666666675
504.43,126.29980952380964
507.118,153.9772142857144
509.804,196.44957142857157
512.488,209.29771428571442
515.17,270.4357619047621
517.85,283.8250476190477
520.528,265.33190476190487
523.204,230.2985523809525
525.878,160.30533809523814
528.551,110.74214285714294
531.221,104.6656952380953
533.89,86.89397619047625
536.556,79.48333809523815
539.221,85.48955238095243
541.883,73.25462857142864
544.544,106.40536190476199
547.203,131.6643095238096
549.86,103.08678095238099
552.515,108.48990476190482
555.168,91.40500476190479
557.819,92.22046666666675
560.469,100.80042380952388
563.116,150.53287619047626
565.761,139.61470476190485
568.405,146.57618095238104
571.047,139.42345714285722
573.687,132.63872380952387
576.324,136.94196190476202
578.96,151.67185714285722
581.594,130.1667428571429
584.227,110.47902857142864
586.857,111.18474285714294
589.485,117.81197142857152
592.112,132.65025238095242
594.737,106.84594285714289
597.359,86.11679523809529
599.98,69.608380952381
602.599,69.9900333333334
605.216,88.54984761904767
607.831,116.71838095238103
610.445,123.49705714285722
613.056,125.55407619047625
615.666,117.3662190476191
618.274,100.31518095238103
620.88,118.83025714285725
623.484,131.3397333333334
626.086,139.93847619047628
628.686,170.10190476190488
631.284,198.59061904761919
633.881,216.64152380952396
636.476,240.3957142857144
639.068,219.94633333333346
641.659,203.4343142857144
644.249,179.71398095238104
646.836,151.11574285714295
649.421,121.68398571428577
652.005,94.70070952380959
654.587,96.06709523809529
657.166,80.49347619047623
659.745,64.88039047619053
662.321,82.88988571428575
664.895,80.80298571428577
667.468,99.71006190476197
670.038,106.98698571428574
672.607,67.15232380952385
675.174,55.39103333333338
677.739,95.36436000000008
680.303,96.9713028571429
682.864,103.5393866666667
685.424,92.15793523809525
687.982,51.535253333333365
690.538,30.807931428571482
693.092,73.20824571428577
695.645,72.01568095238099
698.195,68.7956028571429
700.744,51.49421476190477
703.291,49.67701047619052
705.836,30.575932857142874
708.38,24.804063809523814
710.921,0.879422857142851
713.461,9.03443333333335
715.999,2.311115714285749
718.535,42.370844761904806
721.069,77.63682238095244
723.602,97.77062952380956
726.133,94.38631428571435
728.662,108.05046666666671
731.189,84.52025238095241
733.714,53.934014285714326
736.238,59.47757619047624
738.759,59.86111428571432
741.279,71.03268571428578
743.798,94.2740428571429
746.314,82.20032380952384
748.829,62.95052857142862
751.342,77.80655238095244
753.853,91.95550952380961
756.362,126.01286666666674
758.869,132.30873333333338
761.375,100.88753809523813
763.879,74.69852380952386
766.381,63.643680952381
768.882,72.14863809523816
771.38,92.0204190476191
773.877,87.97076190476196
776.372,85.09240476190482
778.866,93.2401333333334
781.357,100.2215952380953
783.847,129.17756190476197
786.335,152.0107714285715
788.821,161.43370476190483
791.306,145.58749047619054
793.789,119.75640952380958
796.27,97.79646190476197
798.749,110.42050476190485
801.227,136.2937761904763
803.702,172.46299047619058
806.176,211.40347619047628
808.649,225.73376190476205
811.119,233.73880952380966
813.588,235.79919047619063
816.055,207.7239523809525
818.521,188.4652857142858
820.984,186.35589523809534
823.446,147.30080000000007
825.906,143.6808380952382
828.365,160.59186666666676
830.821,180.60588571428585
833.276,200.53256190476202
835.729,218.70584761904777
838.181,194.221761904762
840.631,202.55728571428585
843.079,189.9990000000001
845.525,181.59609523809533
847.97,147.9683571428572
850.412,132.30786666666674
852.854,94.09220000000006
855.293,102.18015238095245
857.731,83.38289047619051
860.167,60.940652380952415
862.601,54.14097142857146
865.034,56.604838095238115
867.465,54.95367619047624
869.894,53.99923333333335
872.321,42.26788095238098
874.747,44.28598095238102
877.171,74.34213809523817
879.594,107.29605238095246
882.014,148.10323809523817
884.433,161.95726666666678
886.851,159.28961904761914
889.266,165.57980952380962
891.68,165.688761904762
894.092,172.80985714285725
896.503,211.42319047619063
898.912,224.05604761904775
901.319,249.23585714285733
903.724,270.72804761904774
906.128,265.0604761904763
908.53,248.28442857142872
910.931,268.2608571428573
913.329,216.85104761904776
915.726,234.15395238095257
918.122,231.26861904761915
920.516,191.6277142857144
922.908,171.996961904762
925.298,165.0945333333334
927.687,122.40106666666675
930.074,143.06273619047627
932.459,116.89329571428574
934.843,74.46801523809529
937.225,64.45719000000003
939.605,55.86480571428576
941.984,55.361414761904825
944.361,87.95051904761908
946.736,78.20728190476193
949.11,51.8972004761905
951.482,24.0237723809524
953.853,25.780907142857174
956.222,41.36246666666671
958.589,47.48600333333336
960.954,69.678460952381
963.318,76.22865714285719
965.68,91.61578571428578
968.041,100.74743809523817
970.4,116.34060000000005
972.757,90.7313190476191
975.113,90.30307619047623
977.467,70.77260952380955
979.819,52.618423809523826
982.17,34.89025714285718
984.519,23.971066666666683
986.866,37.48186190476196
989.212,59.04345238095243
991.556,96.70514285714293
993.899,118.94475238095248
996.24,183.90636190476204
998.579,208.1149380952382
1000.92,207.1907238095239
1003.25,175.70634285714294
1005.59,148.71011428571435
1007.92,131.15562857142868
1010.25,149.47173333333342
1012.58,149.7541952380953
1014.91,117.1463952380953
1017.24,97.41086190476196
1019.56,69.97606666666672
1021.88,91.7947476190477
1024.2,113.9145238095239
1026.52,142.2876761904763
1028.84,176.58092857142867
1031.16,216.0320952380954
1033.48,225.64085714285727
1035.79,220.73980952380964
1038.1,246.1381904761907
1040.41,267.5498571428573
1042.72,314.8790952380955
1045.03,343.17261904761926
1047.33,358.47738095238117
1049.64,313.64938095238114
1051.94,280.1639523809525
1054.24,248.54423809523826
1056.54,222.88414285714296
1058.84,218.61119047619064
1061.13,220.152761904762
1063.43,204.88866666666678
1065.72,201.72233333333347
1068.01,205.03338095238107
1070.3,211.20128571428586
1072.59,227.2724285714287
1074.87,224.43561904761916
1077.16,236.7849047619049
1079.44,286.41400000000016
1081.72,297.36861904761923
1084.0,334.3616666666669
1086.28,375.1534761904765
1088.56,478.7895238095242
1090.84,637.7923333333339
1093.11,769.6365238095242
1095.38,801.6058571428575
1097.65,748.9841904761909
1099.92,618.6747619047622
1102.19,512.2467619047623
1104.46,451.46066666666695
1106.72,417.2194761904764
1108.98,433.1880952380955
1111.24,473.26942857142893
1113.5,529.366428571429
1115.76,577.1437142857146
1118.02,618.9809047619052
1120.28,657.8757142857147
1122.53,636.9217619047622
1124.78,593.8793809523813
1127.03,557.7939523809528
1129.28,492.997523809524
1131.53,452.67909523809544
1133.77,425.64580952380965
1136.02,363.9440476190478
1138.26,308.19100000000014
1140.5,271.33723809523826
1142.74,246.52433333333352
1144.98,256.46490476190496
1147.22,279.395761904762
1149.45,297.3153333333335
1151.69,288.65080952380964
1153.92,242.54338095238103
1156.15,184.80130476190485
1158.38,140.75665238095246
1160.61,101.55132857142864
1162.83,74.65992857142862
1165.06,68.17683809523814
1167.28,55.57687047619051
1169.5,39.76399190476192
1171.72,28.737226666666675
1173.94,24.733746190476214
1176.16,29.752779047619086
1178.37,59.41262523809528
1180.58,70.95070380952383
1182.8,63.93785714285717
1185.01,52.897333333333364
1187.22,54.30487142857147
1189.42,45.82676190476193
1191.63,55.93887619047622
1193.84,49.26002857142859
1196.04,39.50429047619051
1198.24,72.24305238095245
1200.44,81.85713809523813
1202.64,86.10847619047625
1204.84,81.85430000000002
1207.03,74.19001428571431
1209.23,47.1158047619048
1211.42,54.87017714285716
1213.61,30.358146190476205
1215.8,18.437278095238106
1217.99,11.870001428571456
1220.18,41.752101904761936
1222.36,41.65557476190479
1224.55,43.58112476190479
1226.73,50.38662095238097
1228.91,27.120475714285735
1231.09,26.640703809523853
1233.27,61.99597190476194
1235.44,62.99660857142861
1237.62,58.35793761904766
1239.79,76.36669714285716
1241.96,49.595380952380985
1244.13,43.80702380952386
1246.3,73.38360952380958
1248.47,93.27850000000007
1250.64,111.20699047619055
1252.8,132.8371047619048
1254.96,122.78880000000008
1257.13,130.68204761904775
1259.29,164.61290476190487
1261.44,187.72495238095252
1263.6,223.16180952380967
1265.76,238.35352380952392
1267.91,227.30057142857157
1270.06,221.33723809523823
1272.22,202.46461904761915
1274.37,183.39757142857155
1276.51,184.18438095238108
1278.66,203.30209523809538
1280.81,227.8463333333335
1282.95,246.7706190476192
1285.09,261.59947619047637
1287.23,288.19061904761924
1289.37,279.54485714285727
1291.51,261.1864761904763
1293.65,239.68723809523823
1295.78,214.04814285714298
1297.92,204.7456190476192
1300.05,183.9709523809525
1302.18,180.29638095238104
1304.31,179.29376190476202
1306.44,177.67738095238107
1308.57,208.7813809523811
1310.69,240.51080952380966
1312.82,248.48538095238115
1314.94,307.37242857142877
1317.06,323.8390000000001
1319.18,306.0280000000002
1321.3,304.2734761904764
1323.41,316.5754761904764
1325.53,346.7916190476193
1327.64,426.2081428571432
1329.75,461.8253333333336
1331.87,490.3101428571431
1333.98,502.28195238095265
1336.08,534.6456190476193
1338.19,533.1159523809526
1340.3,545.5027142857145
1342.4,512.9489523809526
1344.5,452.1217142857145
1346.6,376.7351428571431
1348.7,370.5516666666669
1350.8,346.38085714285734
1352.9,356.9849523809526
1354.99,342.602142857143
1357.09,328.6134761904764
1359.18,308.3521904761907
1361.27,343.19971428571455
1363.36,357.53700000000026
1365.45,386.5550000000003
1367.54,392.8249523809526
1369.62,431.96590476190505
1371.7,462.73985714285743
1373.79,504.099285714286
1375.87,524.4727619047621
1377.95,537.9083333333335
1380.03,505.40547619047635
1382.1,480.9644285714288
1384.18,445.29942857142885
1386.25,408.88685714285737
1388.33,355.67909523809544
1390.4,311.9144761904763
1392.47,278.11642857142874
1394.54,274.8563333333335
1396.6,279.22919047619064
1398.67,274.2350000000002
1400.74,233.49314285714297
1402.8,216.62257142857158
1404.86,223.4804285714287
1406.92,237.9234285714287
1408.98,251.90414285714297
1411.04,235.94580952380966
1413.09,218.33471428571443
1415.15,202.64185714285725
1417.2,231.4863333333335
1419.25,252.67742857142872
1421.3,268.21504761904777
1423.35,256.76557142857155
1425.4,241.75780952380964
1427.45,216.61971428571442
1429.49,250.256142857143
1431.54,258.04790476190493
1433.58,262.32823809523825
1435.62,234.38290476190485
1437.66,237.54509523809543
1439.7,253.4332857142859
1441.74,284.5236190476192
1443.77,299.00628571428587
1445.81,290.9766190476192
1447.84,239.6724285714287
1449.87,230.046142857143
1451.9,243.09738095238112
1453.93,253.73061904761923
1455.96,291.08861904761926
1457.98,300.26657142857164
1460.01,302.88319047619063
1462.03,308.79561904761925
1464.05,322.3843809523811
1466.07,325.9826666666669
1468.09,346.0187619047622
1470.11,360.5880952380955
1472.13,366.78557142857164
1474.14,365.1822857142859
1476.16,346.82571428571447
1478.17,312.90604761904774
1480.18,309.80400000000014
1482.19,284.043380952381
1484.2,238.90980952380966
1486.21,194.4981904761906
1488.21,151.9513333333334
1490.22,126.22109523809534
1492.22,142.9265714285715
1494.22,138.9248190476191
1496.22,131.83462857142862
1498.22,108.4653190476191
1500.22,87.05472380952386
1502.22,77.12640952380958
1504.21,83.29951428571434
1506.21,98.81197314285718
1508.2,81.23485695238098
1510.19,55.3299424761905
1512.18,44.668496380952405
1514.17,31.869452000000035
1516.16,48.79000933333338
1518.14,70.85836361904765
1520.13,72.36013333333338
1522.11,81.62862380952387
1524.09,92.80641904761909
1526.07,97.89344761904768
1528.05,92.65147619047623
1530.03,76.08036190476194
1532.01,55.94190476190479
1533.98,49.283761904761946
1535.96,47.01042380952386
1537.93,58.69330952380957
1539.9,77.66548571428578
1541.87,96.64130476190482
1543.84,108.81118095238102
1545.81,125.88930476190484
1547.78,126.7326476190477
1549.74,142.43628571428582
1551.7,165.80938095238108
1553.67,186.51904761904774
1555.63,185.99385714285725
1557.59,175.51909523809533
1559.55,149.09485714285722
1561.5,140.19719047619057
1563.46,140.96857142857152
1565.41,159.64737142857155
1567.37,146.99551428571434
1569.32,132.9649333333334
1571.27,150.17490476190486
1573.22,113.05406666666671
1575.17,102.55459047619055
1577.11,96.62861904761908
1579.06,87.84783809523817
1581.0,96.9260857142858
1582.95,157.19689523809532
1584.89,150.42214285714292
1586.83,140.5065714285715
1588.77,133.1162857142858
1590.7,139.20409523809533
1592.64,165.5316666666668
1594.58,220.02769047619
1596.51,239.90619047618964
1598.44,186.00033333333175
