Raman Shift,Processed Intensity
331.095,72.87956809523786
333.909,-25.332347619047795
336.721,-57.86822904761917
339.531,-46.29176952380952
342.339,-16.072190476190457
345.145,30.179525714285724
347.949,30.92661047619048
350.751,2.7297504761904463
353.55,-32.89571142857146
356.348,-57.62263809523811
359.144,-38.97873809523807
361.937,6.9392428571428795
364.729,24.989209523809542
367.518,63.88831904761914
370.306,147.0708714285716
373.091,250.82975238095264
375.874,396.3177428571431
378.656,457.26072380952405
381.435,409.1012380952383
384.212,328.5692857142858
386.988,196.3020485714286
389.761,68.41424857142862
392.532,25.785078095238113
395.301,-17.18107714285713
398.068,3.0652971428571885
400.833,42.36095904761906
403.596,36.115923333333356
406.358,38.74194000000003
409.117,45.89053476190479
411.874,41.16716380952386
414.629,68.55978428571433
417.382,73.7721104761905
420.133,67.36630952380956
422.882,74.76340952380959
425.629,107.7663904761906
428.374,160.08417619047634
431.117,230.3319809523811
433.858,275.64985714285734
436.597,307.3214285714287
439.334,283.0126666666668
442.069,258.2002380952382
444.802,206.6944285714287
447.533,199.8784285714287
450.262,218.37433333333348
452.989,256.8520952380954
455.714,269.9827142857144
458.438,246.29561904761908
461.159,185.17695238095249
463.878,151.68095238095248
466.595,155.9096666666668
469.31,163.39428571428581
472.024,175.6662857142858
474.735,183.73423809523823
477.444,168.60657142857156
480.152,174.57852380952392
482.857,192.13552380952393
485.561,189.3828571428573
488.262,182.13980952380965
490.962,181.41690476190485
493.659,174.2243809523811
496.355,191.76323809523822
499.048,221.13945714285728
501.74,211.6973142857144
504.43,172.97177142857154
507.118,139.30701904761915
509.804,157.5711047619049
512.488,213.20374285714303
515.17,281.8824571428573
517.85,288.3327142857144
520.528,238.80361904761918
523.204,207.16266666666678
525.878,179.4206380952382
528.551,154.4453857142858
531.221,128.00890476190483
533.89,110.59781428571435
536.556,82.55536666666674
539.221,105.17705238095246
541.883,116.18683809523816
544.544,113.403580952381
547.203,89.6935047619048
549.86,92.92266666666673
552.515,109.48059523809532
555.168,131.37565714285722
557.819,138.3776476190477
560.469,169.9226000000001
563.116,157.25609523809533
565.761,168.81385714285724
568.405,175.50719047619054
571.047,179.77138095238104
573.687,180.13592380952392
576.324,183.0824952380953
578.96,154.66413333333344
581.594,156.93336190476197
584.227,150.84683809523818
586.857,147.88506666666675
589.485,139.14670952380956
592.112,95.44475238095241
594.737,64.54396666666673
597.359,81.20900000000007
599.98,106.4419476190477
602.599,129.91106666666678
605.216,159.71281904761915
607.831,155.84847619047628
610.445,158.9851904761906
613.056,175.1707142857144
615.666,164.3572857142858
618.274,137.92514285714293
620.88,144.20680952380962
623.484,162.9156666666668
626.086,221.04952380952398
628.686,286.0827142857144
631.284,314.5364761904763
633.881,309.0273809523811
636.476,289.64747619047637
639.068,259.3461904761906
641.659,260.8336666666668
644.249,252.34433333333348
646.836,238.58828571428586
649.421,190.46604285714295
652.005,132.4487571428572
654.587,76.19858571428578
657.166,71.23389047619054
659.745,87.5494952380953
662.321,97.52120952380956
664.895,69.23866666666669
667.468,61.36296666666669
670.038,32.364585714285724
672.607,5.1424428571428695
675.174,7.452800000000009
677.739,5.956504761904794
680.303,41.886109523809594
682.864,111.5214095238096
685.424,127.28531428571434
687.982,105.98175238095241
690.538,74.17649523809526
693.092,32.00689523809527
695.645,33.324767619047655
698.195,44.98156285714287
700.744,34.78148952380954
703.291,12.48113904761905
705.836,5.027615238095258
708.38,20.27289904761909
710.921,56.973819047619095
713.461,75.93486380952385
715.999,73.6273304761905
718.535,72.23691428571433
721.069,57.758880952381
723.602,97.71232380952388
726.133,108.04524761904766
728.662,104.46753809523813
731.189,63.64162380952382
733.714,27.420509523809528
736.238,15.133652380952444
738.759,54.77700476190481
741.279,73.29933809523817
743.798,104.69709523809529
746.314,106.34770000000006
748.829,118.72423809523819
751.342,133.44284285714292
753.853,133.9288857142858
756.362,112.3701666666667
758.869,93.28777142857149
761.375,75.48856190476197
763.879,86.25611428571435
766.381,97.68327619047628
768.882,144.4344857142858
771.38,158.2221476190477
773.877,144.28250476190485
776.372,125.61374285714294
778.866,96.97662857142865
781.357,101.60731428571437
783.847,127.64760952380959
786.335,142.95341904761912
788.821,137.66666666666674
791.306,120.2623571428572
793.789,123.59714285714294
796.27,123.09847619047626
798.749,112.81376190476198
801.227,138.0282857142858
803.702,159.88452380952393
806.176,179.38211904761917
808.649,218.61638095238106
811.119,231.11117142857154
813.588,197.866861904762
816.055,165.64562857142863
818.521,144.25723333333343
820.984,145.74962857142867
823.446,152.02848095238107
825.906,172.332361904762
828.365,156.04338095238103
830.821,142.1620476190477
833.276,160.5944761904763
835.729,180.53204761904775
838.181,198.78590476190487
840.631,201.4525714285715
843.079,172.7240476190477
845.525,169.50640000000013
847.97,145.27768571428578
850.412,139.3727923809525
852.854,108.69848285714288
855.293,69.0663847619048
857.731,51.76401238095244
860.167,64.17470380952385
862.601,61.96727333333339
865.034,93.0487590476191
867.465,100.1837047619048
869.894,94.70775714285719
872.321,98.62335714285719
874.747,94.88574285714293
877.171,100.25929047619056
879.594,110.84199047619057
882.014,132.78008095238104
884.433,126.0284095238096
886.851,142.87576190476202
889.266,144.03938095238104
891.68,148.37933333333342
894.092,151.2795714285715
896.503,156.26728571428578
898.912,147.96442857142867
901.319,171.0885714285715
903.724,167.97600000000006
906.128,165.48733333333342
908.53,171.6254285714287
910.931,192.87000000000012
913.329,190.41457142857155
915.726,200.45285714285728
918.122,193.3215238095239
920.516,193.69047619047632
922.908,193.18161904761917
925.298,188.1320476190477
927.687,164.49686666666676
930.074,153.5172952380953
932.459,108.67273333333338
934.843,90.8708952380953
937.225,85.06716190476196
939.605,77.74086190476196
941.984,92.79956857142861
944.361,79.48426857142859
946.736,51.22636095238098
949.11,34.171569523809545
951.482,50.75127523809528
953.853,52.68219238095241
956.222,61.77650190476193
958.589,67.36983333333337
960.954,80.75045714285719
963.318,62.87302857142863
965.68,95.35893333333338
968.041,86.01960000000004
970.4,74.09505238095244
972.757,82.92034761904766
975.113,81.02116190476193
977.467,65.35148571428577
979.819,86.15104190476193
982.17,62.659208571428586
984.519,52.02014095238099
986.866,48.234967619047666
989.212,76.25708380952389
991.556,110.99229904761916
993.899,178.67944190476203
996.24,198.55729523809535
998.579,210.3882380952382
1000.92,197.93461904761915
1003.25,195.76849523809534
1005.59,162.93768571428578
1007.92,141.1088714285715
1010.25,110.52031428571435
1012.58,102.17168095238102
1014.91,100.3484952380953
1017.24,134.90794761904772
1019.56,142.04014285714294
1021.88,144.36366666666677
1024.2,161.44961904761917
1026.52,174.86871428571436
1028.84,189.0486666666668
1031.16,230.56042857142873
1033.48,223.8318571428573
1035.79,249.24285714285733
1038.1,281.7922857142859
1040.41,317.6221904761907
1042.72,372.9693333333335
1045.03,371.11842857142875
1047.33,309.8780952380954
1049.64,247.6754285714287
1051.94,208.60423809523826
1054.24,201.85390476190491
1056.54,220.7559047619049
1058.84,218.0232380952382
1061.13,219.89280952380963
1063.43,220.69595238095252
1065.72,243.90738095238112
1068.01,278.3829047619049
1070.3,285.69195238095256
1072.59,266.83338095238116
1074.87,250.85276190476208
1077.16,244.5578571428573
1079.44,259.61366666666686
1081.72,303.4944285714288
1084.0,349.53147619047644
1086.28,408.00933333333364
1088.56,521.63980952381
1090.84,656.802666666667
1093.11,769.5436190476195
1095.38,777.7652380952386
1097.65,707.0847619047622
1099.92,588.4528571428574
1102.19,480.91500000000025
1104.46,420.7556190476193
1106.72,423.21080952380976
1108.98,418.94528571428594
1111.24,448.86214285714317
1113.5,494.48319047619077
1115.76,543.616285714286
1118.02,597.4027619047623
1120.28,646.2690952380955
1122.53,649.9757142857146
1124.78,612.9971428571432
1127.03,548.1887142857146
1129.28,473.7396190476193
1131.53,425.4578095238098
1133.77,356.3414761904764
1136.02,317.6274761904764
1138.26,283.2666190476192
1140.5,260.4955714285716
1142.74,275.8370476190478
1144.98,309.48028571428586
1147.22,302.80461904761927
1149.45,287.85671428571436
1151.69,268.44514285714297
1153.92,232.09233333333347
1156.15,208.84504761904773
1158.38,197.03576190476204
1160.61,184.23505714285724
1162.83,150.53750952380963
1165.06,148.41876190476196
1167.28,116.54439523809529
1169.5,72.29492857142861
1171.72,65.38430952380955
1173.94,52.57414761904765
1176.16,53.05460000000007
1178.37,95.20644285714292
1180.58,103.31520952380959
1182.8,91.71429047619051
1185.01,68.16581190476192
1187.22,48.62224285714289
1189.42,24.655478571428585
1191.63,13.979995238095267
1193.84,34.45356428571433
1196.04,63.83876190476195
1198.24,71.75537619047626
1200.44,109.34706190476196
1202.64,107.37674761904766
1204.84,66.98836666666669
1207.03,68.80190952380957
1209.23,79.81879047619051
1211.42,71.08783809523814
1213.61,71.94367142857146
1215.8,67.34010952380953
1217.99,34.183328571428596
1220.18,33.95076666666671
1222.36,56.54888095238098
1224.55,58.788605714285744
1226.73,46.43339142857145
1228.91,47.38950476190478
1231.09,25.134661428571444
1233.27,29.289393333333372
1235.44,37.712352857142875
1237.62,43.02398761904765
1239.79,43.987833809523856
1241.96,80.79547904761912
1244.13,107.73418095238105
1246.3,154.75777619047628
1248.47,161.77223809523818
1250.64,160.49314285714294
1252.8,166.6362380952382
1254.96,188.2977142857144
1257.13,207.85980952380967
1259.29,238.0380952380954
1261.44,253.45280952380966
1263.6,244.91480952380968
1265.76,238.6159523809525
1267.91,247.60466666666682
1270.06,220.64385714285723
1272.22,208.25842857142868
1274.37,224.02090476190486
1276.51,202.40857142857158
1278.66,209.08919047619062
1280.81,229.39676190476203
1282.95,249.14190476190493
1285.09,259.2780952380954
1287.23,271.0441904761906
1289.37,257.67923809523825
1291.51,248.85061904761918
1293.65,229.22600000000014
1295.78,231.61595238095248
1297.92,214.87838095238106
1300.05,186.2044285714287
1302.18,173.92819047619057
1304.31,168.05028571428582
1306.44,190.5713809523811
1308.57,210.25428571428583
1310.69,220.0996666666668
1312.82,229.77480952380967
1314.94,217.5186666666668
1317.06,243.4270000000002
1319.18,272.50038095238114
1321.3,296.3583333333335
1323.41,325.1443809523812
1325.53,375.620904761905
1327.64,411.2648571428574
1329.75,469.9333333333336
1331.87,516.6749523809527
1333.98,524.1090476190478
1336.08,507.76000000000033
1338.19,467.5804761904765
1340.3,421.0473333333336
1342.4,378.44600000000025
1344.5,372.53942857142874
1346.6,353.51828571428587
1348.7,326.8592857142859
1350.8,305.32447619047633
1352.9,285.4379047619049
1354.99,261.72342857142877
1357.09,266.0863333333335
1359.18,277.1935714285716
1361.27,301.2360000000002
1363.36,330.451904761905
1365.45,361.69833333333355
1367.54,377.40404761904784
1369.62,399.950285714286
1371.7,405.76590476190506
1373.79,435.08919047619077
1375.87,452.5391904761907
1377.95,469.40176190476217
1380.03,451.771904761905
1382.1,411.69738095238114
1384.18,352.36866666666685
1386.25,327.5479523809526
1388.33,298.85442857142874
1390.4,282.6214285714287
1392.47,257.18204761904775
1394.54,219.77442857142864
1396.6,166.58885714285725
1398.67,152.19685714285723
1400.74,138.16990476190486
1402.8,144.3170952380954
1404.86,198.21000000000018
1406.92,230.94361904761917
1408.98,237.47033333333349
1411.04,258.5043333333335
1413.09,245.56942857142866
1415.15,211.28400000000013
1417.2,211.8861904761906
1419.25,216.13747619047635
1421.3,239.03819047619066
1423.35,280.8258095238097
1425.4,274.35747619047635
1427.45,251.5850952380954
1429.49,227.1273809523811
1431.54,216.9843333333335
1433.58,225.5366666666668
1435.62,235.35509523809537
1437.66,235.2491904761906
1439.7,243.12333333333345
1441.74,238.11995238095255
1443.77,246.66742857142873
1445.81,240.57476190476203
1447.84,221.7938571428573
1449.87,233.84828571428585
1451.9,240.2613809523811
1453.93,228.79480952380965
1455.96,227.1621904761906
1457.98,260.7441904761907
1460.01,295.3024285714288
1462.03,326.93128571428593
1464.05,336.3924761904764
1466.07,317.7808095238097
1468.09,319.8574761904764
1470.11,374.05095238095265
1472.13,408.6941904761907
1474.14,398.8337619047621
1476.16,374.94547619047637
1478.17,307.98100000000017
1480.18,263.79700000000014
1482.19,236.86947619047635
1484.2,215.34047619047632
1486.21,189.0191904761906
1488.21,173.90485714285722
1490.22,148.28247619047627
1492.22,141.5800000000001
1494.22,141.51127619047628
1496.22,130.12322857142863
1498.22,124.74879047619055
1500.22,102.95865238095243
1502.22,91.56164285714291
1504.21,79.98559523809529
1506.21,75.37282380952385
1508.2,70.29410352380958
1510.19,60.03436852380955
1512.18,50.83117609523812
1514.17,38.68377671428573
1516.16,23.35340085714288
1518.14,25.31551519047622
1520.13,43.90274828571432
1522.11,53.7334771428572
1524.09,84.711720952381
1526.07,82.78914857142861
1528.05,48.06024952380954
1530.03,37.143556190476225
1532.01,36.89533523809528
1533.98,48.88637238095244
1535.96,86.59208190476197
1537.93,91.72623333333335
1539.9,84.00246190476197
1541.87,83.61089523809528
1543.84,104.36020000000008
1545.81,111.44054761904769
1547.78,155.47014285714295
1549.74,153.82961428571434
1551.7,155.23257142857153
1553.67,169.2501142857144
1555.63,187.7865809523811
1557.59,183.6510285714287
1559.55,183.0809333333334
1561.5,157.4569523809525
1563.46,148.7311238095239
1565.41,158.09362380952388
1567.37,142.63936666666675
1569.32,122.89156666666673
1571.27,116.13579523809531
1573.22,134.085661904762
1575.17,139.55078095238102
1577.11,140.67350476190484
1579.06,146.8824142857144
1581.0,162.22474285714299
1582.95,193.70025238095252
1584.89,196.40360952380962
1586.83,166.81130476190484
1588.77,125.77999523809532
1590.7,101.11922857142864
1592.64,114.35257619047627
1594.58,140.78913333333347
1596.51,169.762161904762
1598.44,190.6048285714286
