Raman Shift,Processed Intensity
331.095,84.422169047619
333.909,-31.22259523809528
336.721,-73.38778095238091
339.531,-66.47020476190477
342.339,-31.819976190476197
345.145,-17.143028571428584
347.949,-4.499109523809516
350.751,3.6736285714285577
353.55,-13.203271428571444
356.348,-9.70570952380952
359.144,-14.930904761904777
361.937,-28.687785714285695
364.729,7.93156190476196
367.518,85.93257142857158
370.306,167.7517380952383
373.091,314.6849761904764
375.874,458.840285714286
378.656,475.56571428571453
381.435,417.6876666666668
384.212,314.60614285714297
386.988,188.29437866666677
389.761,88.29905104761912
392.532,103.50255638095243
395.301,60.978945619047664
398.068,63.28026304761913
400.833,86.05615628571435
403.596,105.6717110476191
406.358,110.20797571428578
409.117,108.17654476190478
411.874,57.04241428571432
414.629,43.65307619047623
417.382,39.810171428571465
420.133,46.935371428571486
422.882,73.88044761904769
425.629,111.5935761904763
428.374,183.26201428571446
431.117,252.74106666666685
433.858,326.1730476190478
436.597,348.3677142857144
439.334,278.3738571428572
442.069,235.19352380952395
444.802,199.1149523809525
447.533,207.18980952380974
450.262,275.2321904761907
452.989,325.6760000000002
455.714,346.43166666666684
458.438,327.2200952380954
461.159,283.19100000000014
463.878,226.01866666666677
466.595,188.37776190476202
469.31,145.61019047619058
472.024,154.86757142857152
474.735,158.6352380952382
477.444,185.44695238095247
480.152,187.69309523809537
482.857,193.28890476190486
485.561,199.19690476190488
488.262,219.14195238095252
490.962,220.18228571428585
493.659,230.47180952380967
496.355,226.11623809523823
499.048,209.17423809523822
501.74,227.41847619047633
504.43,214.33623809523823
507.118,180.08138095238107
509.804,189.5222380952382
512.488,210.0502857142859
515.17,260.29557142857163
517.85,306.5542857142859
520.528,300.0748571428573
523.204,276.86752380952396
525.878,236.4664761904763
528.551,199.30995238095252
531.221,186.122142857143
533.89,174.0553714285715
536.556,143.88077619047627
539.221,121.41688571428577
541.883,110.10121428571435
544.544,97.70411428571435
547.203,104.18612857142865
549.86,100.79322857142861
552.515,117.72339047619056
555.168,115.69819047619055
557.819,127.62959047619057
560.469,166.33361904761915
563.116,170.72147619047627
565.761,148.94168571428582
568.405,145.61903809523815
571.047,135.9019238095239
573.687,123.46177142857152
576.324,156.7792476190477
578.96,158.09685714285723
581.594,176.13242857142868
584.227,169.98501904761912
586.857,156.5625190476191
589.485,127.43884761904768
592.112,114.52119523809533
594.737,108.43089523809532
597.359,119.64542380952388
599.98,122.73763809523817
602.599,118.2798571428572
605.216,119.60630476190485
607.831,120.86022380952386
610.445,108.89876666666673
613.056,98.15008095238102
615.666,92.47021428571435
618.274,106.38216666666675
620.88,131.02731904761913
623.484,152.40446666666676
626.086,180.1781904761906
628.686,221.20371428571445
631.284,240.8113809523811
633.881,273.76066666666685
636.476,289.0960000000002
639.068,283.2433809523811
641.659,254.24676190476202
644.249,217.95976190476202
646.836,183.0928380952382
649.421,157.499061904762
652.005,104.88856666666672
654.587,71.92402380952383
657.166,21.50576666666667
659.745,-0.0371761904761545
662.321,28.243285714285747
664.895,42.056847619047645
667.468,67.20846761904768
670.038,77.69371523809527
672.607,67.127020952381
675.174,75.93264666666673
677.739,92.48659714285722
680.303,111.9751057142858
682.864,163.77425809523814
685.424,149.1655190476191
687.982,105.85860952380956
690.538,87.18273809523814
693.092,68.51395238095243
695.645,70.27678761904767
698.195,76.22858809523811
700.744,56.032044761904764
703.291,12.540168095238098
705.836,-11.44137047619048
708.38,-10.964166190476172
710.921,9.682400000000023
713.461,32.256640952380984
715.999,39.659900000000015
718.535,62.6508190476191
721.069,75.08340000000005
723.602,92.28798571428578
726.133,96.59503809523814
728.662,90.57322380952384
731.189,62.55327142857148
733.714,62.29457142857147
736.238,63.46142857142861
738.759,64.0991571428572
741.279,78.58660000000006
743.798,88.92162380952385
746.314,76.67373809523814
748.829,68.93630000000003
751.342,52.04097142857146
753.853,50.081171428571494
756.362,76.96044761904767
758.869,99.67709047619054
761.375,105.7536714285715
763.879,103.14131904761909
766.381,83.41031428571434
768.882,94.27367142857149
771.38,90.82596190476195
773.877,92.39937142857147
776.372,76.80274761904764
778.866,60.7972666666667
781.357,36.048952380952414
783.847,51.03337142857147
786.335,40.89293333333336
788.821,69.38920476190481
791.306,73.85512857142862
793.789,85.10001428571434
796.27,85.17114285714291
798.749,100.06842380952388
801.227,97.12539047619056
803.702,113.58018571428579
806.176,141.76613333333344
808.649,151.01661904761912
811.119,170.6650476190477
813.588,169.99757142857152
816.055,140.63371428571438
818.521,129.57371428571437
820.984,151.0086857142858
823.446,141.08174761904772
825.906,134.93638095238103
828.365,95.9542190476191
830.821,101.89765714285727
833.276,138.38655238095248
835.729,160.75500000000008
838.181,176.09884285714293
840.631,192.32386666666676
843.079,149.71663333333342
845.525,161.32579047619058
847.97,129.2950571428572
850.412,97.00619047619054
852.854,68.79345714285718
855.293,69.75325238095242
857.731,40.93424285714289
860.167,54.147223809523844
862.601,52.107442857142885
865.034,50.72089047619049
867.465,41.65538571428575
869.894,61.48342857142862
872.321,71.1110428571429
874.747,95.3015333333334
877.171,110.81790000000004
879.594,92.75666666666672
882.014,93.73817619047628
884.433,128.1443238095239
886.851,154.024461904762
889.266,183.66562857142867
891.68,205.2595238095239
894.092,198.75995238095248
896.503,185.26376190476202
898.912,203.29580952380965
901.319,209.42942857142873
903.724,200.5226666666668
906.128,206.1011904761906
908.53,201.9760000000001
910.931,185.0057142857144
913.329,195.33461904761913
915.726,199.96457142857153
918.122,175.61104761904772
920.516,148.895380952381
922.908,134.961761904762
925.298,144.0024380952382
927.687,148.49525714285724
930.074,161.2991714285715
932.459,122.60626190476194
934.843,65.46613333333336
937.225,30.880366666666703
939.605,41.755933333333374
941.984,52.04692380952386
944.361,80.61242380952385
946.736,70.5020428571429
949.11,75.19372857142862
951.482,79.83249047619053
953.853,85.5155047619048
956.222,73.33987619047623
958.589,82.0218428571429
960.954,77.46800952380958
963.318,82.91805238095245
965.68,100.18360000000008
968.041,111.59955714285721
970.4,77.83420000000004
972.757,85.1274333333334
975.113,94.33768571428578
977.467,94.70457619047629
979.819,125.22944761904769
982.17,142.770580952381
984.519,139.80552380952392
986.866,166.7639523809525
989.212,199.2183333333335
991.556,261.2170000000002
993.899,339.14185714285736
996.24,365.46952380952405
998.579,370.10571428571444
1000.92,365.7652857142859
1003.25,324.2582380952383
1005.59,299.01357142857154
1007.92,272.22209523809533
1010.25,215.4080000000001
1012.58,180.85723809523822
1014.91,173.95090476190487
1017.24,171.35580952380963
1019.56,173.50047619047626
1021.88,173.43219047619056
1024.2,175.19890476190488
1026.52,196.60985714285727
1028.84,211.18857142857155
1031.16,243.74480952380966
1033.48,247.4683809523811
1035.79,225.59704761904774
1038.1,240.60623809523827
1040.41,264.30519047619066
1042.72,320.8835714285716
1045.03,351.0557619047621
1047.33,338.2971904761907
1049.64,293.89304761904776
1051.94,274.0803333333335
1054.24,266.95361904761927
1056.54,291.3213809523811
1058.84,273.99300000000017
1061.13,278.63390476190494
1063.43,269.91004761904776
1065.72,288.7254761904764
1068.01,291.45980952380967
1070.3,280.96952380952393
1072.59,260.49176190476203
1074.87,242.8824285714287
1077.16,230.7595714285716
1079.44,258.0270952380954
1081.72,278.7310476190478
1084.0,324.20438095238114
1086.28,387.8742380952384
1088.56,490.31114285714324
1090.84,646.9899523809528
1093.11,763.5761904761908
1095.38,771.9733333333338
1097.65,697.3234285714288
1099.92,572.6248571428574
1102.19,466.2577142857146
1104.46,435.5063333333336
1106.72,447.41747619047646
1108.98,453.132904761905
1111.24,496.60385714285746
1113.5,552.733666666667
1115.76,587.4734285714289
1118.02,626.6316190476196
1120.28,652.6358571428575
1122.53,644.6753333333337
1124.78,618.9871428571432
1127.03,571.7607142857146
1129.28,505.85166666666686
1131.53,465.8785238095241
1133.77,404.93509523809547
1136.02,357.44919047619067
1138.26,320.2292857142859
1140.5,310.0840000000002
1142.74,290.15509523809544
1144.98,306.0129523809526
1147.22,303.7518095238097
1149.45,306.609142857143
1151.69,287.0602857142859
1153.92,272.6760000000001
1156.15,223.45554285714297
1158.38,173.73119047619056
1160.61,122.1215333333334
1162.83,99.24475238095245
1165.06,74.33850476190482
1167.28,60.30699047619052
1169.5,64.05431428571434
1171.72,76.056380952381
1173.94,82.16984285714291
1176.16,92.63242380952386
1178.37,97.92000857142861
1180.58,59.46090142857145
1182.8,41.588036190476224
1185.01,50.920554761904796
1187.22,42.93443523809527
1189.42,41.43914714285719
1191.63,67.33960000000003
1193.84,56.730998095238135
1196.04,66.85158952380958
1198.24,86.17771809523813
1200.44,66.28102380952384
1202.64,80.97129047619055
1204.84,100.48702380952386
1207.03,97.06660476190481
1209.23,88.85328495238097
1211.42,57.27607257142858
1213.61,13.954483238095257
1215.8,16.50805980952383
1217.99,20.223035619047643
1220.18,35.95716590476193
1222.36,39.425287809523816
1224.55,21.62804738095239
1226.73,11.185120952380974
1228.91,32.33529500000003
1231.09,46.079240952380985
1233.27,60.084373095238114
1235.44,49.06566428571429
1237.62,37.54780952380956
1239.79,41.721861904761965
1241.96,89.54123809523816
1244.13,123.72084285714294
1246.3,142.64236190476197
1248.47,147.06854285714292
1250.64,122.04806666666673
1252.8,110.24841904761912
1254.96,124.19436190476198
1257.13,136.93432380952393
1259.29,165.56440000000015
1261.44,206.3711142857144
1263.6,198.49861904761917
1265.76,192.6619523809525
1267.91,201.00485714285728
1270.06,183.43323809523818
1272.22,186.6147142857144
1274.37,195.55014285714302
1276.51,188.47880952380964
1278.66,173.9727142857144
1280.81,183.98557142857155
1282.95,175.0899523809525
1285.09,198.85833333333346
1287.23,194.29157142857153
1289.37,183.81933333333345
1291.51,199.82344761904773
1293.65,193.06695714285723
1295.78,163.88433333333342
1297.92,147.89569047619054
1300.05,130.19707619047628
1302.18,113.07565714285722
1304.31,126.19898095238104
1306.44,139.47289047619054
1308.57,138.37485714285722
1310.69,138.6199285714287
1312.82,168.8758095238096
1314.94,155.62009523809533
1317.06,151.04380952380964
1319.18,184.9100000000001
1321.3,218.26780952380966
1323.41,241.35590476190492
1325.53,302.4137142857145
1327.64,332.9185714285716
1329.75,380.7281428571431
1331.87,433.08161904761926
1333.98,454.4092380952383
1336.08,459.1400952380955
1338.19,447.56109523809545
1340.3,398.7682857142859
1342.4,336.09595238095255
1344.5,282.8309047619049
1346.6,239.26000000000016
1348.7,241.43180952380965
1350.8,227.49004761904774
1352.9,210.05433333333346
1354.99,191.26885714285726
1357.09,191.56300000000013
1359.18,224.69957142857157
1361.27,277.9653809523811
1363.36,296.93228571428585
1365.45,301.17252380952397
1367.54,304.6397619047621
1369.62,334.4297142857145
1371.7,361.87704761904786
1373.79,399.6013809523812
1375.87,420.55552380952406
1377.95,425.4069523809526
1380.03,409.77566666666684
1382.1,392.2337142857144
1384.18,327.92485714285726
1386.25,279.51628571428586
1388.33,239.77052380952398
1390.4,227.16423809523826
1392.47,212.22176190476202
1394.54,213.6584285714287
1396.6,184.95066666666673
1398.67,163.09914285714294
1400.74,132.39019047619058
1402.8,144.06200000000013
1404.86,159.01980952380964
1406.92,176.16919047619058
1408.98,174.17723809523818
1411.04,169.56795238095248
1413.09,163.5322380952382
1415.15,161.593761904762
1417.2,160.46761904761914
1419.25,165.67780952380963
1421.3,187.22457142857155
1423.35,202.86990476190488
1425.4,213.23314285714298
1427.45,230.31404761904776
1429.49,215.58933333333346
1431.54,200.3445238095239
1433.58,171.0082380952382
1435.62,147.53295238095248
1437.66,143.77595238095248
1439.7,159.2610000000001
1441.74,167.98785714285725
1443.77,184.09895238095245
1445.81,171.07047619047628
1447.84,159.90209523809534
1449.87,200.0224285714287
1451.9,211.33596190476203
1453.93,194.36600952380962
1455.96,176.63582857142868
1457.98,176.19270476190488
1460.01,163.7030666666668
1462.03,179.35677142857153
1464.05,206.58186666666677
1466.07,212.37771428571443
1468.09,233.74342857142878
1470.11,280.6309523809525
1472.13,281.9446190476192
1474.14,238.96904761904773
1476.16,218.5608095238096
1478.17,189.05204761904773
1480.18,170.6321904761906
1482.19,157.34828571428582
1484.2,145.43741904761913
1486.21,108.75563809523815
1488.21,84.20670476190482
1490.22,58.88451904761909
1492.22,49.64502857142861
1494.22,37.5346904761905
1496.22,47.74258857142859
1498.22,35.41029095238096
1500.22,18.536374761904774
1502.22,11.64318523809525
1504.21,14.443531904761915
1506.21,17.8882004761905
1508.2,32.4041623809524
1510.19,28.84694761904763
1512.18,24.691114285714306
1514.17,34.03021904761907
1516.16,35.57687380952383
1518.14,36.2341242857143
1520.13,21.762152857142862
1522.11,20.82594523809526
1524.09,18.566664761904782
1526.07,25.220717142857154
1528.05,17.548347619047618
1530.03,22.11933666666668
1532.01,11.455898571428587
1533.98,15.032667142857154
1535.96,13.752842857142873
1537.93,31.472105714285746
1539.9,39.71276619047623
1541.87,74.18777619047624
1543.84,87.18142571428575
1545.81,90.21620952380958
1547.78,80.05274761904766
1549.74,81.73746190476194
1551.7,71.79291904761911
1553.67,85.7895095238096
1555.63,103.20210000000009
1557.59,114.60110000000006
1559.55,126.93809047619057
1561.5,143.54544761904768
1563.46,137.13626666666676
1565.41,126.5192952380953
1567.37,121.1694476190477
1569.32,108.03834285714294
1571.27,109.31612380952389
1573.22,132.33521904761912
1575.17,120.28516666666673
1577.11,100.83223809523815
1579.06,103.92788095238103
1581.0,122.57138095238105
1582.95,152.42888095238106
1584.89,182.64261904761912
1586.83,175.45033333333342
1588.77,157.75642857142867
1590.7,146.56033333333343
1592.64,153.24247619047628
1594.58,175.4213095238097
1596.51,188.00138095238103
1598.44,175.14902380952384
