Raman Shift,Processed Intensity
331.095,45.98391709523792
333.909,-25.47421038095242
336.721,-55.65328116666665
339.531,-55.614913428571434
342.339,-38.99301080952381
345.145,-13.22976447619046
347.949,30.28342557142857
350.751,6.871806952380918
353.55,-29.13691557142859
356.348,-34.9841181904762
359.144,-37.5754238095238
361.937,-5.194999999999958
364.729,56.11366666666673
367.518,118.30869523809537
370.306,189.16064761904775
373.091,279.63256190476216
375.874,383.7373333333336
378.656,435.0137142857145
381.435,405.383523809524
384.212,338.24617142857153
386.988,207.86034761904767
389.761,101.58204285714294
392.532,90.81642380952388
395.301,63.685042857142896
398.068,61.31093809523815
400.833,71.2472904761905
403.596,49.715523809523845
406.358,44.74821904761909
409.117,51.18876666666667
411.874,24.739519047619076
414.629,48.1990428571429
417.382,64.08188571428575
420.133,64.33225714285719
422.882,67.70515238095243
425.629,92.14727142857151
428.374,141.5111571428573
431.117,229.60236666666682
433.858,281.7045523809525
436.597,294.76823809523825
439.334,241.4119523809525
442.069,209.7312380952382
444.802,183.5369047619049
447.533,190.6398571428573
450.262,223.23361904761924
452.989,284.7974285714288
455.714,313.6208095238097
458.438,297.3750952380953
461.159,239.3512380952382
463.878,170.36414285714295
466.595,112.84880952380962
469.31,136.33544761904773
472.024,148.97397619047626
474.735,120.7720428571429
477.444,109.1183952380953
480.152,115.54508095238104
482.857,118.39371904761916
485.561,169.57754761904772
488.262,202.4866000000001
490.962,197.55880952380963
493.659,197.66044761904772
496.355,182.61062380952387
499.048,134.46635714285722
501.74,94.23740476190486
504.43,123.60014761904773
507.118,126.89801428571438
509.804,166.8070523809525
512.488,200.57529523809535
515.17,235.54580952380968
517.85,231.776142857143
520.528,259.6570000000001
523.204,224.19790476190485
525.878,185.6462857142858
528.551,162.63034285714298
531.221,144.82603809523815
533.89,115.76633809523817
536.556,93.4125285714286
539.221,75.15426190476195
541.883,72.71440476190483
544.544,79.81508095238101
547.203,89.22662380952389
549.86,105.52787619047623
552.515,106.10754285714295
555.168,131.5922000000001
557.819,147.70286666666675
560.469,148.01766666666674
563.116,144.4958095238096
565.761,154.23838095238105
568.405,165.67985714285726
571.047,177.0162857142858
573.687,177.06214285714293
576.324,157.91766666666675
578.96,134.5398476190477
581.594,119.69491904761912
584.227,115.38669523809531
586.857,117.28536666666676
589.485,130.96551428571436
592.112,110.81071428571434
594.737,105.96615238095242
597.359,86.95806190476196
599.98,100.312161904762
602.599,119.55355714285722
605.216,143.87380000000007
607.831,120.60698095238101
610.445,133.2774857142858
613.056,132.55210476190484
615.666,117.81140476190483
618.274,115.57843809523818
620.88,131.0426333333334
623.484,130.3935047619049
626.086,170.9630142857144
628.686,211.46356190476206
631.284,222.36919047619062
633.881,265.1059523809526
636.476,293.1947619047621
639.068,311.53771428571446
641.659,308.2265714285716
644.249,294.92485714285726
646.836,259.91456666666676
649.421,194.19152142857152
652.005,120.60870000000006
654.587,92.59057380952386
657.166,46.0848666666667
659.745,45.84927857142861
662.321,40.26004523809524
664.895,26.788452380952414
667.468,25.42970714285717
670.038,41.32184761904763
672.607,32.60279761904766
675.174,58.69609047619052
677.739,79.93002857142865
680.303,121.77605714285721
682.864,121.22896666666671
685.424,86.33136190476192
687.982,51.697171428571465
690.538,46.51161904761909
693.092,53.72201428571433
695.645,59.22826666666669
698.195,50.97748095238096
700.744,39.53610000000003
703.291,42.04191904761909
705.836,53.48992380952383
708.38,52.113300000000024
710.921,59.002368571428605
713.461,47.39037571428574
715.999,37.17736571428574
718.535,52.501481428571466
721.069,75.02461809523817
723.602,90.31401380952389
726.133,140.55570190476197
728.662,149.98342380952386
731.189,130.40260000000006
733.714,88.09488571428572
736.238,40.532433333333344
738.759,17.95007619047625
741.279,43.20124285714293
743.798,103.28231904761915
746.314,140.14268571428576
748.829,126.63647142857147
751.342,81.8084666666667
753.853,53.94190952380956
756.362,40.55799523809529
758.869,65.08279523809529
761.375,87.32380476190481
763.879,82.13607142857146
766.381,70.23217142857149
768.882,94.1341476190477
771.38,94.64982380952387
773.877,102.53989047619055
776.372,111.46951904761909
778.866,85.81854285714292
781.357,64.06233333333338
783.847,93.62863809523814
786.335,91.2308952380953
788.821,128.8212095238096
791.306,146.06529047619054
793.789,148.0582571428572
796.27,128.99026666666674
798.749,114.43289523809531
801.227,125.33825714285726
803.702,168.70673333333343
806.176,193.63342857142874
808.649,235.45247619047632
811.119,237.44980952380965
813.588,197.00714285714292
816.055,170.124761904762
818.521,146.27990476190485
820.984,142.47328571428582
823.446,164.27733333333342
825.906,166.69290476190486
828.365,163.91161904761913
830.821,161.98242857142867
833.276,164.71628571428582
835.729,168.92395238095247
838.181,166.55909523809532
840.631,170.8134761904763
843.079,179.97455238095247
845.525,157.9965333333334
847.97,117.78580000000007
850.412,107.86798857142863
852.854,80.5780790476191
855.293,75.3939390476191
857.731,75.17485428571432
860.167,51.113167619047644
862.601,26.496660000000038
865.034,48.61325523809526
867.465,52.32200000000003
869.894,49.815585714285746
872.321,54.286504761904816
874.747,104.07033809523821
877.171,139.45526666666677
879.594,156.44320476190487
882.014,178.41780000000008
884.433,158.00009523809535
886.851,143.71604761904774
889.266,167.85404761904772
891.68,207.464142857143
894.092,221.9768095238097
896.503,223.01390476190488
898.912,239.19652380952397
901.319,241.0032380952382
903.724,236.05576190476205
906.128,246.78500000000014
908.53,254.57414285714302
910.931,231.99671428571443
913.329,219.29333333333344
915.726,211.75204761904774
918.122,184.9465714285715
920.516,150.97442857142866
922.908,145.88585714285722
925.298,138.68276190476197
927.687,140.4149523809525
930.074,172.08470476190485
932.459,139.45585238095242
934.843,100.67330095238098
937.225,45.0728080952381
939.605,12.418125714285761
941.984,47.28273285714292
944.361,67.38275952380955
946.736,72.10088047619053
949.11,88.67721000000004
951.482,94.35138190476198
953.853,95.26792428571434
956.222,109.00006000000003
958.589,84.88240000000005
960.954,64.86879047619053
963.318,73.1511333333334
965.68,98.44515238095244
968.041,114.08530476190482
970.4,115.5489285714286
972.757,86.74184761904763
975.113,62.28437619047624
977.467,63.8438190476191
979.819,72.75478095238101
982.17,86.20837619047624
984.519,107.63401428571434
986.866,107.50875238095244
989.212,127.26199523809534
991.556,166.70368571428583
993.899,205.40576190476202
996.24,220.13052380952396
998.579,236.5454761904763
1000.92,231.26985714285726
1003.25,211.9231904761906
1005.59,196.26785714285725
1007.92,167.73261904761915
1010.25,138.17466666666678
1012.58,134.73733333333342
1014.91,154.9920000000001
1017.24,190.70085714285725
1019.56,214.00666666666677
1021.88,201.33795238095246
1024.2,172.36147619047628
1026.52,144.02933333333343
1028.84,146.43704761904775
1031.16,184.25095238095253
1033.48,226.0420476190478
1035.79,261.8580476190478
1038.1,296.4130952380954
1040.41,352.3733333333336
1042.72,418.6433333333336
1045.03,420.841523809524
1047.33,377.63442857142877
1049.64,299.78361904761914
1051.94,226.38376190476205
1054.24,234.10119047619062
1056.54,248.88761904761918
1058.84,241.88528571428586
1061.13,235.61790476190492
1063.43,225.41800000000015
1065.72,228.3325714285716
1068.01,263.7898095238097
1070.3,288.02685714285735
1072.59,288.7098571428573
1074.87,264.2193809523811
1077.16,236.69723809523822
1079.44,228.90471428571448
1081.72,257.4127619047621
1084.0,309.31547619047643
1086.28,372.0412380952384
1088.56,470.5416190476194
1090.84,611.7678095238099
1093.11,728.6240000000004
1095.38,745.2048571428575
1097.65,670.1758571428575
1099.92,553.4414761904764
1102.19,445.90561904761927
1104.46,405.47195238095264
1106.72,412.9016190476193
1108.98,420.146285714286
1111.24,472.53861904761936
1113.5,527.6968571428575
1115.76,584.4297142857147
1118.02,615.403047619048
1120.28,646.330047619048
1122.53,658.0670476190479
1124.78,638.185285714286
1127.03,585.6361904761908
1129.28,516.7520476190479
1131.53,445.4369523809527
1133.77,396.11866666666685
1136.02,353.367904761905
1138.26,316.9460000000002
1140.5,304.4714761904764
1142.74,284.7051428571431
1144.98,276.5986190476192
1147.22,285.58019047619064
1149.45,275.93461904761915
1151.69,254.51852380952397
1153.92,238.3314285714287
1156.15,207.13442857142866
1158.38,180.87942857142866
1160.61,180.61342857142867
1162.83,170.33566666666673
1165.06,143.76028095238104
1167.28,120.79149047619053
1169.5,77.8097523809524
1171.72,58.48150000000004
1173.94,58.853664761904795
1176.16,38.449633809523824
1178.37,54.07890571428577
1180.58,70.31238047619051
1182.8,64.29262000000006
1185.01,61.638514761904794
1187.22,76.44490285714289
1189.42,58.330823809523864
1191.63,77.53442380952387
1193.84,98.38870952380958
1196.04,78.89365476190478
1198.24,60.430223809523845
1200.44,52.379216666666686
1202.64,39.83603809523813
1204.84,44.705526190476235
1207.03,55.70204761904763
1209.23,45.73051904761908
1211.42,52.50540380952383
1213.61,28.550725238095254
1215.8,48.9617790476191
1217.99,60.548455714285744
1220.18,72.73956000000005
1222.36,78.10674904761906
1224.55,74.17406095238097
1226.73,42.94173333333337
1228.91,71.55279523809529
1231.09,73.53138571428576
1233.27,84.49679523809529
1235.44,71.49683809523813
1237.62,71.10340952380957
1239.79,61.22131904761911
1241.96,87.32721904761914
1244.13,113.1830095238096
1246.3,144.78922857142865
1248.47,156.19341428571437
1250.64,159.72967619047628
1252.8,158.0170000000001
1254.96,183.34176190476205
1257.13,209.46600000000012
1259.29,243.866142857143
1261.44,267.5422380952382
1263.6,267.9710000000001
1265.76,262.3430952380954
1267.91,258.897142857143
1270.06,235.6337142857144
1272.22,239.83852380952402
1274.37,247.4167619047621
1276.51,261.7494285714287
1278.66,261.59876190476206
1280.81,264.3935714285716
1282.95,271.3251428571431
1285.09,292.72704761904777
1287.23,288.93295238095254
1289.37,274.56195238095256
1291.51,269.47152380952394
1293.65,260.9000952380954
1295.78,260.46719047619064
1297.92,247.41123809523825
1300.05,230.54219047619063
1302.18,214.90780952380965
1304.31,215.03233333333347
1306.44,218.77323809523824
1308.57,232.51195238095255
1310.69,253.8202380952383
1312.82,283.5554761904764
1314.94,297.00376190476203
1317.06,283.26047619047637
1319.18,289.7070476190478
1321.3,298.48695238095263
1323.41,320.64776190476215
1325.53,351.2374761904764
1327.64,410.16119047619077
1329.75,470.41942857142885
1331.87,521.0602380952383
1333.98,551.8460000000002
1336.08,564.8717619047623
1338.19,513.2808571428574
1340.3,495.8832380952383
1342.4,468.5842857142859
1344.5,405.8601904761907
1346.6,377.37809523809545
1348.7,371.8048095238097
1350.8,340.28357142857163
1352.9,344.38657142857164
1354.99,331.97095238095255
1357.09,314.7513333333335
1359.18,325.9660952380954
1361.27,333.7108571428574
1363.36,361.4620000000002
1365.45,371.98209523809544
1367.54,374.22352380952407
1369.62,408.51995238095265
1371.7,440.96690476190497
1373.79,468.5172380952384
1375.87,490.599904761905
1377.95,485.7392380952384
1380.03,456.07795238095264
1382.1,435.85442857142874
1384.18,381.5452857142859
1386.25,361.7698571428573
1388.33,339.3856666666669
1390.4,334.1548095238097
1392.47,315.3632380952383
1394.54,292.86852380952394
1396.6,249.9090952380954
1398.67,216.24690476190486
1400.74,186.83466666666678
1402.8,182.05376190476204
1404.86,186.90442857142872
1406.92,208.29171428571442
1408.98,247.78719047619063
1411.04,258.72442857142875
1413.09,262.05585714285735
1415.15,269.877142857143
1417.2,273.6647619047621
1419.25,265.5144285714287
1421.3,259.283142857143
1423.35,254.01895238095256
1425.4,227.81695238095253
1427.45,230.7728571428573
1429.49,246.98219047619065
1431.54,235.15976190476206
1433.58,234.3053809523811
1435.62,228.5143809523811
1437.66,218.88209523809542
1439.7,235.9328571428573
1441.74,255.8570476190478
1443.77,254.60752380952397
1445.81,245.70809523809538
1447.84,225.53957142857158
1449.87,232.57852380952394
1451.9,222.34904761904775
1453.93,242.51800000000011
1455.96,238.37100000000015
1457.98,253.5750952380954
1460.01,277.08257142857155
1462.03,280.6555238095239
1464.05,266.2461904761906
1466.07,283.6169523809525
1468.09,306.24352380952405
1470.11,355.98385714285735
1472.13,403.88533333333356
1474.14,405.80519047619066
1476.16,400.9337142857145
1478.17,369.50928571428585
1480.18,326.2460952380954
1482.19,264.04934285714296
1484.2,189.44248571428582
1486.21,142.6638857142858
1488.21,116.37987619047625
1490.22,100.0190571428572
1492.22,104.67698095238102
1494.22,114.8296333333334
1496.22,92.57219523809529
1498.22,85.14289047619052
1500.22,74.87487142857147
1502.22,58.53002380952384
1504.21,53.53699047619051
1506.21,58.70507142857146
1508.2,54.462833333333364
1510.19,46.762528571428604
1512.18,44.699342857142874
1514.17,43.654111428571454
1516.16,35.43624523809525
1518.14,21.283701904761916
1520.13,22.863025238095254
1522.11,26.745481904761924
1524.09,26.169048095238125
1526.07,37.990690476190494
1528.05,46.35310285714288
1530.03,43.54182380952385
1532.01,47.27097142857145
1533.98,37.49276666666668
1535.96,32.15940000000002
1537.93,24.984971428571455
1539.9,42.87405238095242
1541.87,52.25500952380955
1543.84,51.79428095238099
1545.81,50.53934761904766
1547.78,66.06129523809528
1549.74,77.88384285714292
1551.7,96.72108095238099
1553.67,108.90602380952387
1555.63,122.00987619047626
1557.59,131.5565476190477
1559.55,131.11682857142864
1561.5,127.1669333333334
1563.46,115.18259047619054
1565.41,105.30637619047626
1567.37,105.34780000000006
1569.32,102.3067190476191
1571.27,98.5158476190477
1573.22,115.30855714285723
1575.17,118.97010952380958
1577.11,100.40515238095243
1579.06,93.94690000000006
1581.0,99.02333333333341
1582.95,105.53902380952388
1584.89,130.35111428571435
1586.83,137.07822857142864
1588.77,117.38679523809529
1590.7,105.32416190476198
1592.64,111.03282380952389
1594.58,119.17920952380956
1596.51,136.95343809523823
1598.44,166.5218428571432
