Raman Shift,Processed Intensity
331.095,124.93988952380911
333.909,-3.162545714285926
336.721,-42.53464714285715
339.531,-27.241644761904737
342.339,3.412440952380951
345.145,13.886477142857151
347.949,25.737082857142866
350.751,-3.6198133333333864
353.55,-46.81398761904766
356.348,-71.80625904761911
359.144,-94.55513809523814
361.937,-77.73108571428571
364.729,-22.47851428571427
367.518,16.96571428571437
370.306,120.08080000000015
373.091,265.39630476190496
375.874,400.8247238095241
378.656,462.94728571428595
381.435,432.68068857142873
384.212,298.42039571428575
386.988,143.84909619047622
389.761,36.27087095238097
392.532,15.086686666666711
395.301,-3.6339804761904584
398.068,40.08499333333337
400.833,53.4598523809524
403.596,50.2798642857143
406.358,32.62170761904764
409.117,23.897126666666658
411.874,-1.9091514285713949
414.629,27.474868571428594
417.382,34.989396190476214
420.133,40.814157619047656
422.882,43.55881238095242
425.629,62.69144761904772
428.374,135.68172380952396
431.117,234.9051095238097
433.858,294.1188666666668
436.597,302.6535142857144
439.334,230.93523809523816
442.069,165.29638095238107
444.802,133.45114285714297
447.533,145.0669523809525
450.262,170.00257142857157
452.989,213.0226666666668
455.714,237.7970000000001
458.438,242.61557142857154
461.159,237.95917142857155
463.878,177.9284571428572
466.595,112.19610476190483
469.31,109.1972857142858
472.024,111.41546666666675
474.735,121.42956190476201
477.444,146.77190476190484
480.152,166.21258095238105
482.857,173.52250476190486
485.561,183.42531428571436
488.262,179.31142857142868
490.962,184.9526666666668
493.659,176.3117142857144
496.355,213.16065714285725
499.048,189.36722857142865
501.74,153.70398095238102
504.43,139.70529523809532
507.118,127.57293333333342
509.804,135.46065714285726
512.488,189.3795142857144
515.17,212.10242857142873
517.85,244.3549523809525
520.528,245.05228571428583
523.204,220.15804761904772
525.878,182.96885714285725
528.551,165.30457142857153
531.221,155.69980952380962
533.89,159.78451428571438
536.556,153.37806190476198
539.221,121.06229047619051
541.883,107.46603333333343
544.544,115.83701428571436
547.203,120.23233333333341
549.86,127.8995095238096
552.515,127.75196666666672
555.168,90.94173333333342
557.819,91.90536666666674
560.469,122.27034285714296
563.116,152.52042857142868
565.761,172.13942857142868
568.405,170.61066666666676
571.047,170.94109523809533
573.687,145.4225238095239
576.324,138.91842857142868
578.96,143.67233333333343
581.594,158.6900000000001
584.227,162.64303809523818
586.857,165.91668095238103
589.485,155.0866571428572
592.112,121.2519714285715
594.737,105.03485714285725
597.359,112.8668380952382
599.98,150.08410476190485
602.599,186.45046190476202
605.216,191.63454285714292
607.831,140.4470571428572
610.445,96.36530476190481
613.056,93.00838095238106
615.666,119.37684285714295
618.274,136.9462952380953
620.88,139.76389047619057
623.484,150.78089523809535
626.086,184.5197095238097
628.686,253.07351428571445
631.284,308.3924571428573
633.881,316.2359523809526
636.476,309.6962380952383
639.068,316.53185714285735
641.659,320.50123809523825
644.249,300.6003333333335
646.836,294.39637142857157
649.421,222.83720476190481
652.005,151.01305714285724
654.587,99.10921904761909
657.166,85.31094571428577
659.745,64.08865761904765
662.321,56.72253904761906
664.895,39.778075714285755
667.468,60.67780571428576
670.038,68.22486523809529
672.607,64.07957952380953
675.174,52.71171047619049
677.739,42.210051904761954
680.303,62.425396190476256
682.864,90.39887190476195
685.424,116.88566952380958
687.982,88.64128571428574
690.538,79.23066666666669
693.092,47.69501428571428
695.645,8.647104761904762
698.195,-24.728804761904755
700.744,-7.057899999999982
703.291,13.320642857142897
705.836,45.734452380952405
708.38,63.65408095238098
710.921,50.6931904761905
713.461,48.46557142857147
715.999,60.25175714285719
718.535,73.14193809523815
721.069,93.75052857142865
723.602,124.35840000000007
726.133,109.53236190476197
728.662,125.5063152380953
731.189,101.65670809523812
733.714,56.455544761904804
736.238,42.232430000000036
738.759,68.1737352380953
741.279,76.27568904761912
743.798,110.43944380952388
746.314,123.66143809523817
748.829,122.08139047619055
751.342,104.31511428571436
753.853,123.50244761904769
756.362,109.9259571428572
758.869,86.34448571428578
761.375,85.85069523809527
763.879,67.20403809523813
766.381,71.97335238095248
768.882,122.91851428571437
771.38,136.4655428571429
773.877,125.99328095238101
776.372,127.21414761904768
778.866,116.69760476190486
781.357,134.20376666666678
783.847,163.58844285714298
786.335,148.0404095238096
788.821,117.12994285714294
791.306,100.23645714285722
793.789,117.16827619047629
796.27,131.78149523809535
798.749,155.31330476190485
801.227,161.2389523809525
803.702,184.12957142857155
806.176,212.88885714285726
808.649,243.80223809523827
811.119,253.77395238095252
813.588,252.27990476190487
816.055,208.653142857143
818.521,196.98923809523825
820.984,203.5736666666668
823.446,197.02552380952395
825.906,182.2021904761906
828.365,183.62771428571438
830.821,168.20723809523824
833.276,173.13190476190488
835.729,202.402161904762
838.181,179.59023333333343
840.631,173.12560952380963
843.079,157.24714761904772
845.525,167.81306666666677
847.97,136.30054761904768
850.412,149.75826666666674
852.854,124.3304095238096
855.293,131.5421095238096
857.731,101.8710571428572
860.167,91.36640476190478
862.601,64.74398095238101
865.034,79.5292333333334
867.465,84.4382095238096
869.894,103.4726952380953
872.321,96.01579047619053
874.747,110.87897142857153
877.171,140.15953333333343
879.594,165.00238095238106
882.014,154.45744285714295
884.433,151.8601714285715
886.851,125.83236666666677
889.266,139.09069523809535
891.68,163.2567285714287
894.092,192.1902285714287
896.503,198.41761904761918
898.912,200.94166666666675
901.319,181.00328571428582
903.724,185.4150000000001
906.128,191.79871428571442
908.53,230.44338095238112
910.931,250.30404761904776
913.329,263.8601904761906
915.726,263.9723333333335
918.122,247.3104285714287
920.516,208.35409523809534
922.908,193.4874761904763
925.298,166.04742857142867
927.687,165.4659904761906
930.074,162.93740476190484
932.459,116.41753809523814
934.843,96.2911952380953
937.225,102.51406190476199
939.605,112.28091904761912
941.984,123.5002142857143
944.361,83.8901238095238
946.736,26.692733333333358
949.11,-0.8498571428571209
951.482,11.504285714285757
953.853,61.04517142857149
956.222,92.91974761904767
958.589,103.70367619047624
960.954,107.40099523809528
963.318,81.92061428571434
965.68,86.83777619047628
968.041,119.25209047619055
970.4,103.11975238095243
972.757,91.77804285714289
975.113,92.94481904761909
977.467,67.33808095238099
979.819,76.53258000000005
982.17,73.34146333333335
984.519,30.958207619047638
986.866,14.814274761904809
989.212,62.8648933333334
991.556,94.39863000000011
993.899,176.27472761904772
996.24,213.20978095238104
998.579,208.7298571428572
1000.92,174.74140476190482
1003.25,151.8653714285715
1005.59,100.19859047619055
1007.92,94.40876190476196
1010.25,67.21155714285717
1012.58,80.70321904761911
1014.91,101.83710476190484
1017.24,119.47116190476197
1019.56,112.60587142857149
1021.88,104.76560000000003
1024.2,81.95074285714293
1026.52,117.87518095238104
1028.84,165.34897142857153
1031.16,196.8478285714287
1033.48,204.60985714285724
1035.79,207.87271428571444
1038.1,217.82642857142878
1040.41,282.04171428571453
1042.72,349.75623809523836
1045.03,351.5876666666668
1047.33,312.96395238095255
1049.64,240.31233333333347
1051.94,193.2985714285716
1054.24,211.25457142857155
1056.54,228.7982380952382
1058.84,198.6420000000001
1061.13,193.16547619047628
1063.43,192.41457142857158
1065.72,234.054523809524
1068.01,278.13066666666685
1070.3,265.9271904761906
1072.59,226.58461904761919
1074.87,185.33928571428584
1077.16,160.71295238095252
1079.44,167.89385714285729
1081.72,212.87966666666685
1084.0,267.3348095238097
1086.28,344.01880952380975
1088.56,484.1676190476194
1090.84,627.2072380952386
1093.11,741.7065714285719
1095.38,781.4250000000003
1097.65,701.1694761904764
1099.92,555.4137142857146
1102.19,445.72628571428595
1104.46,383.7711904761907
1106.72,378.87942857142883
1108.98,391.143523809524
1111.24,425.22719047619074
1113.5,495.27066666666695
1115.76,557.5090476190479
1118.02,623.4162380952384
1120.28,640.1323809523813
1122.53,608.559428571429
1124.78,584.0751428571432
1127.03,539.1055238095241
1129.28,478.74314285714314
1131.53,443.46166666666693
1133.77,364.210904761905
1136.02,315.1784285714288
1138.26,285.31395238095257
1140.5,254.66228571428587
1142.74,251.31619047619066
1144.98,253.5114285714287
1147.22,231.3881904761906
1149.45,247.32480952380965
1151.69,235.8907142857144
1153.92,243.0353809523811
1156.15,252.28057142857156
1158.38,215.00495238095246
1160.61,190.34868571428584
1162.83,144.21466190476195
1165.06,117.36294285714291
1167.28,87.4102666666667
1169.5,60.878685714285744
1171.72,39.48034761904765
1173.94,45.49909238095239
1176.16,17.885706666666692
1178.37,35.73371809523811
1180.58,21.89871238095239
1182.8,19.950599047619075
1185.01,22.935525714285728
1187.22,39.66167333333337
1189.42,46.556319047619084
1191.63,54.52298095238097
1193.84,52.32239523809527
1196.04,54.334447619047644
1198.24,45.36760000000003
1200.44,50.23046666666669
1202.64,43.39833809523812
1204.84,28.77520476190478
1207.03,33.88408571428574
1209.23,29.486319047619066
1211.42,45.53366190476194
1213.61,45.07329047619049
1215.8,44.77143333333337
1217.99,52.10401809523813
1220.18,51.689844285714294
1222.36,35.8145742857143
1224.55,25.144898571428566
1226.73,3.5381457142857267
1228.91,8.899363333333348
1231.09,5.610008571428569
1233.27,19.099222380952405
1235.44,25.41538547619048
1237.62,26.36897095238098
1239.79,26.770550238095268
1241.96,71.62142809523816
1244.13,82.16101404761912
1246.3,134.5814795238096
1248.47,139.40802380952388
1250.64,144.7854761904763
1252.8,150.66825714285727
1254.96,197.96320952380967
1257.13,226.81523809523827
1259.29,259.3699047619049
1261.44,269.20047619047637
1263.6,260.16704761904776
1265.76,226.74852380952393
1267.91,222.75676190476204
1270.06,219.5281904761906
1272.22,208.54209523809538
1274.37,208.8012380952382
1276.51,218.83271428571442
1278.66,203.9254285714287
1280.81,217.749142857143
1282.95,212.87895238095248
1285.09,207.22252380952392
1287.23,178.640761904762
1289.37,188.3275238095239
1291.51,180.04809523809533
1293.65,186.0919238095239
1295.78,162.5104238095239
1297.92,147.25937142857148
1300.05,117.34286190476197
1302.18,124.66922857142865
1304.31,133.52770952380962
1306.44,147.92178095238103
1308.57,139.23666666666676
1310.69,152.52366666666677
1312.82,162.64361904761915
1314.94,181.6002380952382
1317.06,185.25471428571436
1319.18,183.51500000000013
1321.3,175.81400000000014
1323.41,198.96476190476207
1325.53,256.8279523809526
1327.64,320.0739523809526
1329.75,383.23033333333365
1331.87,446.7767142857146
1333.98,452.00219047619066
1336.08,446.6723809523812
1338.19,411.21919047619065
1340.3,372.78880952380973
1342.4,324.1467142857145
1344.5,283.4864761904763
1346.6,224.2394285714287
1348.7,194.69500000000008
1350.8,154.1892857142858
1352.9,150.96323809523818
1354.99,149.3055238095239
1357.09,135.21842857142866
1359.18,145.038142857143
1361.27,176.14838095238105
1363.36,180.21809523809534
1365.45,174.6307142857144
1367.54,191.57857142857156
1369.62,201.68271428571444
1371.7,238.46900000000016
1373.79,288.74871428571447
1375.87,317.5712380952383
1377.95,329.0334285714288
1380.03,339.9459047619049
1382.1,333.69066666666686
1384.18,287.26904761904774
1386.25,242.5388571428573
1388.33,197.97733333333343
1390.4,169.58489523809533
1392.47,143.36176666666674
1394.54,108.40324285714291
1396.6,80.56678095238098
1398.67,53.18523571428573
1400.74,23.258547619047647
1402.8,26.500235714285743
1404.86,58.24292380952386
1406.92,62.67602619047624
1408.98,94.56031428571434
1411.04,101.70405238095245
1413.09,119.53408571428581
1415.15,124.62039047619055
1417.2,132.53270476190482
1419.25,116.1259571428572
1421.3,102.25539523809529
1423.35,105.91867142857151
1425.4,128.16083333333341
1427.45,147.78918095238103
1429.49,149.22953809523815
1431.54,137.19360952380956
1433.58,121.72604761904769
1435.62,131.44290476190486
1437.66,138.05561904761916
1439.7,156.27528571428581
1441.74,172.14609523809534
1443.77,160.76014285714294
1445.81,156.5424761904763
1447.84,140.44247619047627
1449.87,141.3136190476191
1451.9,137.67628571428583
1453.93,150.14595238095248
1455.96,146.00457142857152
1457.98,172.91533333333348
1460.01,197.6366666666668
1462.03,243.25952380952396
1464.05,256.39980952380967
1466.07,277.8156666666668
1468.09,306.9319523809526
1470.11,336.459523809524
1472.13,364.82290476190497
1474.14,350.1613809523811
1476.16,327.6143333333335
1478.17,315.6540952380954
1480.18,288.99180952380965
1482.19,255.8145904761906
1484.2,220.54713809523818
1486.21,138.66251428571434
1488.21,110.53820476190484
1490.22,89.69461904761908
1492.22,71.74790000000006
1494.22,79.55205238095243
1496.22,90.29448285714291
1498.22,62.87709000000003
1500.22,40.9638561904762
1502.22,29.313867142857163
1504.21,30.257928571428593
1506.21,24.507860000000026
1508.2,43.63275619047621
1510.19,17.535187142857133
1512.18,0.9273876190476429
1514.17,26.61688428571432
1516.16,47.31632000000004
1518.14,62.35739047619052
1520.13,78.02437142857146
1522.11,59.83977142857147
1524.09,52.46912857142861
1526.07,58.816100000000034
1528.05,50.975095238095264
1530.03,42.85006666666669
1532.01,42.726061904761934
1533.98,39.50730000000003
1535.96,52.62188285714289
1537.93,55.40274000000002
1539.9,42.23050142857144
1541.87,19.43823142857145
1543.84,25.883087142857182
1545.81,55.46964476190483
1547.78,110.81669000000008
1549.74,137.68625238095245
1551.7,122.93550000000005
1553.67,112.7551238095239
1555.63,121.90712857142867
1557.59,143.15364761904772
1559.55,156.30425238095245
1561.5,158.83560952380958
1563.46,140.74795238095246
1565.41,138.42276190476198
1567.37,127.90780952380958
1569.32,127.2038095238096
1571.27,117.02542857142865
1573.22,128.84947619047628
1575.17,142.96195238095248
1577.11,161.83990476190488
1579.06,180.81709523809536
1581.0,193.60852380952392
1582.95,203.26276190476202
1584.89,202.06604761904774
1586.83,185.40014285714295
1588.77,164.78971428571435
1590.7,154.09257142857152
1592.64,153.45223809523822
1594.58,179.5841666666666
1596.51,192.489095238095
1598.44,169.1678571428568
