Raman Shift,Processed Intensity
331.095,87.0129196892749
333.909,35.392145500620245
336.721,40.70057326762526
339.531,81.7715450127871
342.339,131.3669915654882
345.145,179.79648887023268
347.949,175.29821905674544
350.751,176.2532648434335
353.55,166.89990394083543
356.348,198.00028440745973
359.144,223.4594809579994
361.937,243.65883698583093
364.729,252.69406849029292
367.518,252.184796575385
370.306,306.03646090085203
373.091,344.96413789517965
375.874,385.77826373050766
378.656,437.0513096784848
381.435,412.689219370885
384.212,307.93141748880635
386.988,186.58891368994728
389.761,60.71097796446247
392.532,-24.986279247269977
395.301,-29.977041222600747
398.068,-31.44958579122067
400.833,-34.8300887694063
403.596,-41.068335376980485
406.358,-26.828197023271514
409.117,-27.820969185796002
411.874,-16.94823792281204
414.629,4.555250486913337
417.382,-6.449854847398456
420.133,-2.6741939387979983
422.882,51.36219152733884
425.629,96.23460199812826
428.374,193.75651876456686
431.117,333.0748294382961
433.858,443.5745873743904
436.597,543.7837710941376
439.334,601.278043707809
442.069,601.7759885279224
444.802,584.2343446824998
447.533,573.0384808235544
450.262,562.0976307403562
452.989,577.9401289727007
455.714,608.2848369003568
458.438,616.4697116896664
461.159,589.8327561925225
463.878,558.188206940581
466.595,513.8741507109148
469.31,508.7049029964187
472.024,493.8281483809792
474.735,494.53446186702513
477.444,496.0668302030713
480.152,463.0968398779446
482.857,464.6294365435774
485.561,487.7648272949441
488.262,495.8889543785808
490.962,575.1496831868126
493.659,628.0282283472161
496.355,631.1486750501967
499.048,659.2303575194101
501.74,706.5164279583823
504.43,755.6309969257004
507.118,842.1981784721065
509.804,926.6039924204479
512.488,1057.3773142646655
515.17,1193.8089203069112
517.85,1349.0467232708243
520.528,1404.6671983910119
523.204,1468.0087142644393
525.878,1501.123911320864
528.551,1551.2082707694603
531.221,1569.4096359264058
533.89,1578.5424954472169
536.556,1544.4213141781447
539.221,1564.7652925789948
541.883,1574.1507451935622
544.544,1573.6777648343686
547.203,1546.7321248626176
549.86,1544.7471814681635
552.515,1557.203871187557
555.168,1635.392613184014
557.819,1699.9847353369069
560.469,1779.5086622360236
563.116,1845.9689603186748
565.761,1919.3225258639577
568.405,1974.5738206060596
571.047,2056.4415359189998
573.687,2122.168114144215
576.324,2172.8530794419567
578.96,2234.453035309356
581.594,2276.6388049556317
584.227,2261.2716192963367
586.857,2228.545971614283
589.485,2189.9896150776067
592.112,2065.9397507340254
594.737,1986.590644076522
597.359,1919.1840987518917
599.98,1812.152311221676
602.599,1756.975011137381
605.216,1726.227077906171
607.831,1678.5785382089343
610.445,1700.032658756451
613.056,1746.5449914265178
615.666,1834.59479935345
618.274,1985.423149684258
620.88,2186.0805301443397
623.484,2384.7601798889
626.086,2601.750467973412
628.686,2774.5301289669414
631.284,2912.196831898808
633.881,2953.0862253957175
636.476,2911.7719351998558
639.068,2779.113180734593
641.659,2579.588105955908
644.249,2306.4842530609567
646.836,2030.803321910913
649.421,1668.0230723109598
652.005,1300.7639881950436
654.587,979.7892751439617
657.166,735.195334093934
659.745,557.8403302832521
662.321,487.7251431513205
664.895,383.08860195197803
667.468,327.55034041444515
670.038,273.9679371185571
672.607,258.34167491762173
675.174,225.0050146469921
677.739,197.19602121359048
680.303,141.53355159019566
682.864,123.30296661924558
685.424,118.59898567379378
687.982,127.8494936994125
690.538,99.43458635134311
693.092,83.11513894115888
695.645,49.223280145350145
698.195,8.757627618660536
700.744,4.049960569522227
703.291,7.908088067756125
705.836,-8.050805454088277
708.38,11.790328619417323
710.921,50.4293689785718
713.461,79.7688465085389
715.999,116.28262481943966
718.535,153.20639030026496
721.069,146.728142172783
723.602,129.13106349784175
726.133,111.88877313404782
728.662,88.76057769644558
731.189,51.505771134236966
733.714,41.88364859422336
736.238,6.748758379474111
738.759,0.2413920032417991
741.279,4.0733123381119185
743.798,-5.757946806279051
746.314,-39.82620967694402
748.829,-28.562358999831304
751.342,-64.01622687829604
753.853,-51.85658495735515
756.362,-16.37113458794147
758.869,-8.085551309220591
761.375,-12.096820293185374
763.879,0.7839044012293925
766.381,-17.349654664062655
768.882,-28.641757560414135
771.38,2.8586842296322175
773.877,26.00762951060733
776.372,19.851619548576764
778.866,11.913490245601224
781.357,22.001893837998068
783.847,26.497011070802728
786.335,72.87435861032463
788.821,134.84764407574858
791.306,178.65447821358794
793.789,266.00875373881263
796.27,385.2435003664523
798.749,504.4061207955815
801.227,611.4964838361625
803.702,722.4193032501666
806.176,767.4603261165175
808.649,815.9529973864933
811.119,826.897505391521
813.588,795.7226844938227
816.055,711.6193463084946
818.521,649.206944258915
820.984,536.6288095607256
823.446,472.0283395867582
825.906,390.50137670815457
828.365,326.8581109450038
830.821,284.05164928365275
833.276,283.7970611844935
835.729,266.57137647069567
838.181,280.89929750266356
840.631,249.30557801915347
843.079,204.74359245457072
845.525,172.45247668484535
847.97,126.81426877330796
850.412,90.06819257369534
852.854,91.40589371412034
855.293,80.30477081912932
857.731,75.33749720795504
860.167,99.4577330689508
862.601,93.47631382450754
865.034,100.01362897215222
867.465,122.54723902088608
869.894,111.98330195133258
872.321,84.41847586636368
874.747,57.854202594108756
877.171,35.38718176715838
879.594,55.59032109223426
882.014,117.3222580484312
884.433,146.29878634736679
886.851,165.2833300123757
889.266,141.753607933892
891.68,134.28258413911908
894.092,123.25275139502901
896.503,147.90374814469487
898.912,157.42759449124787
901.319,154.20678532468537
903.724,153.86190725820506
906.128,154.34687461215344
908.53,134.18702254083428
910.931,140.2886287307433
913.329,157.4627208130878
915.726,156.0441218715382
918.122,143.89144833093496
920.516,136.43472689361624
922.908,120.43729719003431
925.298,129.1386668103214
927.687,161.4449853834749
930.074,200.35761389464005
932.459,215.6397892404866
934.843,216.91186021315752
937.225,204.1750949127877
939.605,207.2402500647854
941.984,193.2513784323487
944.361,202.97154099088493
946.736,216.06851910242995
949.11,194.78147907101857
951.482,200.9685890790065
953.853,185.5355885043491
956.222,162.86435723787463
958.589,165.09862785770747
960.954,159.09636447035336
963.318,157.28690345654877
965.68,160.62333231235198
968.041,134.582487537853
970.4,108.5935239544533
972.757,84.27600783166326
975.113,38.34467668057505
977.467,26.2284847616188
979.819,38.21345811613128
982.17,46.87126388363913
984.519,54.58301771437482
986.866,65.34880546751583
989.212,18.45434776655975
991.556,-10.005192588152113
993.899,20.39859679308529
996.24,45.85594906729693
998.579,82.12844064509272
1000.92,120.59661096906939
1003.25,110.02186800649133
1005.59,91.16553659912188
1007.92,69.40790681304952
1010.25,53.700615621850375
1012.58,35.89998097070611
1014.91,37.10033584052326
1017.24,23.776886121572716
1019.56,41.97618753474944
1021.88,36.268527314743096
1024.2,43.36697495324552
1026.52,61.60357579930951
1028.84,90.40554465969763
1031.16,100.20003082781068
1033.48,107.36650216022736
1035.79,118.23674820086535
1038.1,135.9044071146668
1040.41,173.17734976413772
1042.72,193.81577807160033
1045.03,183.246513857634
1047.33,151.13443053665628
1049.64,121.23959909822429
1051.94,110.75062456452065
1054.24,126.99893482879543
1056.54,120.60164092237687
1058.84,118.84249251976757
1061.13,155.86235725327947
1063.43,165.5163666943215
1065.72,199.37391947755486
1068.01,206.90916061551957
1070.3,172.07241319421337
1072.59,164.67113387819313
1074.87,196.84610651091884
1077.16,216.59525476271483
1079.44,239.249835731114
1081.72,247.37920496977085
1084.0,272.21939104118565
1086.28,319.7683367360953
1088.56,393.6906641023886
1090.84,484.031963283549
1093.11,560.0759384999474
1095.38,602.7729826015709
1097.65,596.454465906462
1099.92,533.0232155153528
1102.19,442.191613673913
1104.46,388.62445803976175
1106.72,353.9865838542405
1108.98,361.56191468561724
1111.24,408.96775126752004
1113.5,473.2500127183339
1115.76,539.7880015701121
1118.02,602.5801211784476
1120.28,627.6724502751995
1122.53,665.634936568832
1124.78,675.3233046304736
1127.03,637.9266780656769
1129.28,562.4913921623752
1131.53,475.0162351102683
1133.77,376.92864160115846
1136.02,346.75136261976604
1138.26,368.0548495202572
1140.5,424.3144000075331
1142.74,484.338732689941
1144.98,572.8414187748424
1147.22,618.9170756689416
1149.45,621.1366081976666
1151.69,595.1662593483525
1153.92,520.4342800610407
1156.15,415.5118847335707
1158.38,349.11325434573337
1160.61,308.7622062500884
1162.83,276.7445782484974
1165.06,245.20346981151488
1167.28,222.94876901205816
1169.5,165.36191755432333
1171.72,114.9673424693533
1173.94,97.28960209633465
1176.16,88.37719873055198
1178.37,47.85020079516562
1180.58,26.185960251074448
1182.8,-6.614217612261882
1185.01,-11.644118671717479
1187.22,6.24071648698191
1189.42,7.708709284703218
1191.63,-12.619184231174359
1193.84,-31.93137631658942
1196.04,-30.463740145831252
1198.24,2.595629551777847
1200.44,37.439747512776876
1202.64,40.97606554554818
1204.84,50.06456231323568
1207.03,45.3748807357174
1209.23,40.624417772527295
1211.42,64.38784277720356
1213.61,115.23994918497237
1215.8,142.80326810519182
1217.99,156.31949143760926
1220.18,149.69708546480274
1222.36,163.74938063510513
1224.55,171.14694705980855
1226.73,214.36997001036752
1228.91,225.2320539870252
1231.09,208.2611696445856
1233.27,192.3186959562754
1235.44,194.5041766633217
1237.62,195.7743624388113
1239.79,236.51463400392686
1241.96,268.9199490537121
1244.13,369.70912251617074
1246.3,523.4105353827986
1248.47,715.8859387772072
1250.64,933.2352104047072
1252.8,1150.3677776685622
1254.96,1376.6692788814748
1257.13,1678.7634625723158
1259.29,1956.7502772690432
1261.44,2213.967770805433
1263.6,2354.706370580182
1265.76,2358.3517352445992
1267.91,2261.099034961712
1270.06,2106.952945951091
1272.22,1876.1562164622487
1274.37,1633.6182327480342
1276.51,1388.3912040856499
1278.66,1176.0987287500575
1280.81,1012.3643599873776
1282.95,921.1449338930584
1285.09,831.8734210995553
1287.23,752.2208260830735
1289.37,715.2866578988687
1291.51,703.9798771070355
1293.65,714.4950807935293
1295.78,758.0267828292872
1297.92,799.7217893674342
1300.05,874.2982410071727
1302.18,948.0932263862242
1304.31,999.4913481542358
1306.44,1059.591384184284
1308.57,1110.682472593894
1310.69,1170.767915813688
1312.82,1303.7556513226941
1314.94,1402.410627145554
1317.06,1465.783367825934
1319.18,1533.400445161832
1321.3,1585.5978060837538
1323.41,1520.2826719614518
1325.53,1464.0763902916215
1327.64,1353.55252448083
1329.75,1211.1416102951139
1331.87,1069.2740075476595
1333.98,954.5703708341148
1336.08,825.4606916964613
1338.19,713.8509598345149
1340.3,607.8850624126658
1342.4,510.04001669994705
1344.5,402.84025032916134
1346.6,316.9528339369517
1348.7,278.8065233276843
1350.8,222.54413497066298
1352.9,167.11777864020178
1354.99,116.2412329128415
1357.09,76.00898733122676
1359.18,80.89623694894499
1361.27,110.37792449440803
1363.36,139.2620760140062
1365.45,142.4040970541746
1367.54,129.56392598631783
1369.62,114.7869968555492
1371.7,132.21377365798708
1373.79,175.84166557045046
1375.87,222.57265646585438
1377.95,223.87998204765336
1380.03,198.9033784128551
1382.1,147.5919496626584
1384.18,121.2756069416564
1386.25,105.3793646198992
1388.33,112.61382695115117
1390.4,95.73710330256608
1392.47,70.45958052721971
1394.54,32.491552479508755
1396.6,-11.552007612315947
1398.67,-45.532389059325396
1400.74,-36.78712982431148
1402.8,-14.987146820157704
1404.86,15.48231866387232
1406.92,53.331227298438534
1408.98,78.31712347694179
1411.04,105.05466159196271
1413.09,143.87275135931827
1415.15,232.10027457068713
1417.2,324.35180184624437
1419.25,445.6704522444322
1421.3,564.6231338241184
1423.35,610.4434032543734
1425.4,591.7933730432924
1427.45,534.1446663858776
1429.49,449.68318153571636
1431.54,376.4043323671392
1433.58,330.30352703261497
1435.62,281.85236090585636
1437.66,268.8081428582627
1439.7,246.26151677344956
1441.74,244.350749728457
1443.77,233.35697255589707
1445.81,229.56132516802177
1447.84,225.2925780712585
1449.87,227.87951578551338
1451.9,257.07951073966296
1453.93,301.3166209765734
1455.96,357.4434973819282
1457.98,437.455671865436
1460.01,545.8725122087071
1462.03,662.0229388178864
1464.05,866.4263795715333
1466.07,1108.4118199065929
1468.09,1414.213043380555
1470.11,1799.9210150907554
1472.13,2203.626741284154
1474.14,2601.992700395682
1476.16,2930.9671312294504
1478.17,3111.5459401875805
1480.18,3138.1060370704545
1482.19,3027.1672423055456
1484.2,2746.5351465571907
1486.21,2380.8725417649443
1488.21,1948.0327569438348
1490.22,1498.9644225560503
1492.22,1124.8543301207128
1494.22,828.3179108712848
1496.22,610.1611429843927
1498.22,448.14245880865633
1500.22,331.4489378077992
1502.22,217.83916617043246
1504.21,161.30990594363857
1506.21,106.81038321418578
1508.2,83.24229057544744
1510.19,53.8883610229027
1512.18,33.07903708772642
1514.17,-0.8551457439041315
1516.16,-2.2502232305507732
1518.14,0.03405723426453733
1520.13,-3.1952848061694112
1522.11,-1.2263654784023856
1524.09,-10.823386804521988
1526.07,-24.893301535326827
1528.05,-9.200097154142668
1530.03,14.730442820628923
1532.01,25.99168919208114
1533.98,33.05806888275083
1535.96,15.166014351610102
1537.93,2.409198725342776
1539.9,6.69091378676535
1541.87,16.29549558229496
1543.84,47.65022621989647
1545.81,72.89675947655337
1547.78,93.22445116764493
1549.74,138.7274990401288
1551.7,166.45255885620395
1553.67,176.44636047696986
1555.63,199.0890382318048
1557.59,227.85603271631044
1559.55,267.2228497331171
1561.5,335.1888668517395
1563.46,357.80113996842624
1565.41,340.7258289136346
1567.37,320.0100992499749
1569.32,273.84402407016114
1571.27,243.46534293781087
1573.22,222.2546970187284
1575.17,164.4022927836113
1577.11,97.00313713933178
1579.06,62.152272560213305
1581.0,56.278107457405895
1582.95,77.57098464350133
1584.89,123.12603551143025
1586.83,143.46698659432013
1588.77,158.78425183963577
1590.7,143.55397726427282
1592.64,125.87137132393809
1594.58,75.35546385395901
1596.51,35.458626914858314
1598.44,29.680857542681906
