Raman Shift,Processed Intensity
331.095,15.637169285714167
333.909,-22.325274761904858
336.721,-17.77383761904764
339.531,10.24181238095241
342.339,57.02864142857143
345.145,35.68004571428571
347.949,-1.803970952380979
350.751,-24.56472571428575
353.55,-60.12292000000002
356.348,-47.47380999999999
359.144,-32.61097142857146
361.937,-31.002361428571433
364.729,-18.781113333333295
367.518,43.112270000000095
370.306,124.50048666666683
373.091,243.73185238095255
375.874,342.20407619047637
378.656,385.7448571428573
381.435,353.23110476190493
384.212,258.8747000000001
386.988,145.17456190476196
389.761,63.72653333333338
392.532,45.12800952380958
395.301,55.97762380952385
398.068,55.30415238095241
400.833,59.708880952380994
403.596,74.79471428571432
406.358,61.59439047619049
409.117,31.52291428571428
411.874,3.044219047619041
414.629,-1.1384368095237782
417.382,-0.7967733571428255
420.133,45.965529476190525
422.882,54.950452642857186
425.629,83.43737709523819
428.374,147.65926950000016
431.117,223.56413461904776
433.858,262.4342666666668
436.597,291.4104095238096
439.334,235.0147142857144
442.069,207.15119047619064
444.802,235.20100000000014
447.533,237.3078095238097
450.262,268.90147619047633
452.989,296.07957142857157
455.714,269.41595238095255
458.438,271.4378571428573
461.159,280.4824285714287
463.878,233.3160476190477
466.595,224.8004000000001
469.31,187.46459047619055
472.024,139.02818095238104
474.735,142.44979047619054
477.444,157.73602857142865
480.152,140.60770000000008
482.857,171.40471428571436
485.561,157.22960476190482
488.262,127.37545714285721
490.962,131.80196666666674
493.659,144.0411333333334
496.355,132.95788571428582
499.048,138.32190952380958
501.74,129.9032952380953
504.43,100.09135238095244
507.118,73.94167619047624
509.804,110.70083809523821
512.488,158.18683809523822
515.17,174.07459523809536
517.85,195.27709523809534
520.528,197.37390476190487
523.204,167.08755238095247
525.878,152.90240952380958
528.551,131.25491428571434
531.221,99.15344761904768
533.89,78.74848571428578
536.556,91.95224761904767
539.221,87.62957142857147
541.883,58.45445238095241
544.544,58.10061904761909
547.203,69.48018571428577
549.86,78.69510476190484
552.515,131.8469000000001
555.168,165.75175238095247
557.819,162.36814285714297
560.469,184.13066666666677
563.116,175.85442857142863
565.761,144.5927380952382
568.405,140.01699047619056
571.047,113.7514666666667
573.687,106.467361904762
576.324,126.45491428571435
578.96,140.5748380952382
581.594,157.4503000000001
584.227,168.7038000000001
586.857,148.05266666666677
589.485,163.40455238095245
592.112,138.23857619047627
594.737,116.55662857142863
597.359,108.74209047619054
599.98,95.7490571428572
602.599,98.86413809523816
605.216,109.46954285714291
607.831,106.04236190476198
610.445,117.2975333333334
613.056,120.6163952380953
615.666,94.1893333333334
618.274,91.73022380952385
620.88,74.09580000000005
623.484,84.28509047619058
626.086,135.63053333333343
628.686,185.08320000000012
631.284,200.35595238095252
633.881,218.30400000000012
636.476,211.877761904762
639.068,206.313142857143
641.659,191.65557142857153
644.249,165.47361904761914
646.836,145.90754285714294
649.421,112.09711428571434
652.005,90.56315238095243
654.587,74.87398571428575
657.166,53.88360952380956
659.745,52.683514285714324
662.321,46.79419428571429
664.895,14.450215714285722
667.468,8.886088571428585
670.038,19.62197000000003
672.607,33.93997428571432
675.174,55.931706190476206
677.739,50.16502761904764
680.303,54.35040476190482
682.864,62.3891952380953
685.424,91.13467619047626
687.982,93.29765238095243
690.538,101.77943809523816
693.092,93.00483809523813
695.645,87.68436190476194
698.195,44.10030476190478
700.744,36.72506190476193
703.291,19.12670000000003
705.836,34.7303666666667
708.38,48.72293333333336
710.921,51.14858095238097
713.461,35.95631428571432
715.999,50.76180000000004
718.535,45.70457619047622
721.069,60.6384727619048
723.602,49.4173741904762
726.133,51.13334838095243
728.662,55.49753342857147
731.189,81.41136266666673
733.714,92.72912657142862
736.238,79.2573441904762
738.759,50.897704761904805
741.279,74.31418095238102
743.798,89.31333333333339
746.314,117.79699523809529
748.829,129.57216571428575
751.342,78.54094904761907
753.853,48.84353619047623
756.362,47.572864666666696
758.869,29.916879904761927
761.375,31.873265047619068
763.879,26.249258190476194
766.381,21.09030171428575
768.882,37.29901514285718
771.38,54.25436133333337
773.877,69.4305571428572
776.372,78.20664761904766
778.866,65.72370952380957
781.357,74.45600952380958
783.847,105.2593476190477
786.335,103.98913333333341
788.821,121.59641428571436
791.306,135.46072857142866
793.789,129.532761904762
796.27,127.57321428571436
798.749,143.96209523809534
801.227,124.41242857142868
803.702,134.01861904761915
806.176,169.82771428571442
808.649,187.55252380952393
811.119,200.24028571428582
813.588,197.89014285714296
816.055,183.21571428571437
818.521,147.0260952380953
820.984,136.79723809523819
823.446,138.62385714285725
825.906,156.6488380952382
828.365,152.68133809523817
830.821,135.72120000000004
833.276,103.3399476190477
835.729,116.34715238095248
838.181,142.74324285714295
840.631,169.90926666666678
843.079,196.46458095238106
845.525,169.12401428571437
847.97,118.22147619047625
850.412,104.138680952381
852.854,79.78110000000007
855.293,69.81611904761913
857.731,96.57811904761911
860.167,118.35358095238104
862.601,138.09608095238104
865.034,126.66408095238098
867.465,106.34441904761911
869.894,89.18652857142861
872.321,65.3820857142858
874.747,106.07547142857155
877.171,156.22078095238106
879.594,159.01030476190485
882.014,156.16011428571437
884.433,138.52946666666674
886.851,99.26279047619056
889.266,123.60080000000009
891.68,138.78335238095246
894.092,153.6696857142858
896.503,158.6910476190477
898.912,145.51614285714294
901.319,153.71861904761914
903.724,178.39619047619055
906.128,187.93233333333345
908.53,164.2340952380953
910.931,168.82814285714295
913.329,150.62142857142868
915.726,166.04504761904775
918.122,189.0536666666668
920.516,202.03109523809536
922.908,189.21804761904772
925.298,205.52171428571438
927.687,213.46840952380964
930.074,188.91795238095247
932.459,151.87283809523817
934.843,112.28781904761911
937.225,79.64180000000006
939.605,89.74663809523818
941.984,127.46200000000007
944.361,129.36163809523816
946.736,127.92409523809532
949.11,137.913380952381
951.482,164.37975714285724
953.853,149.23010238095245
956.222,130.89534761904767
958.589,112.56756904761912
960.954,95.01081428571435
963.318,82.5127071428572
965.68,87.78976190476192
968.041,79.12910952380959
970.4,64.72332857142862
972.757,88.3354333333334
975.113,99.11014761904767
977.467,104.23918095238102
979.819,92.96204285714292
982.17,130.99396190476196
984.519,109.52670000000006
986.866,117.94169523809532
989.212,132.76405238095248
991.556,158.04189523809535
993.899,191.2994952380954
996.24,230.77568571428586
998.579,219.85176190476201
1000.92,202.00385714285724
1003.25,199.94707619047628
1005.59,172.7766000000001
1007.92,160.30158095238104
1010.25,165.23663809523822
1012.58,161.24800952380963
1014.91,175.66907619047635
1017.24,199.92807619047628
1019.56,183.50095238095247
1021.88,167.52957142857153
1024.2,163.44228571428582
1026.52,163.80971428571442
1028.84,201.53614285714303
1031.16,232.2398571428573
1033.48,237.63433333333347
1035.79,241.57557142857155
1038.1,238.58676190476206
1040.41,254.71438095238113
1042.72,309.1477619047621
1045.03,342.6480952380955
1047.33,314.21390476190487
1049.64,280.4154285714287
1051.94,226.44190476190488
1054.24,195.0061904761906
1056.54,202.82114285714297
1058.84,222.07609523809538
1061.13,214.86485714285726
1063.43,231.23380952380964
1065.72,214.65752380952395
1068.01,214.27723809523823
1070.3,238.5199523809526
1072.59,259.19371428571446
1074.87,268.58238095238113
1077.16,256.065761904762
1079.44,231.1178571428573
1081.72,258.6421428571431
1084.0,305.01795238095264
1086.28,389.1482380952384
1088.56,491.26923809523845
1090.84,582.0939047619052
1093.11,629.7631428571432
1095.38,645.6564285714288
1097.65,571.4385238095241
1099.92,491.86985714285737
1102.19,417.3294285714289
1104.46,402.1016190476193
1106.72,401.8988571428574
1108.98,442.7193333333337
1111.24,486.32342857142885
1113.5,510.852285714286
1115.76,521.3041428571431
1118.02,551.4873809523813
1120.28,563.8762380952385
1122.53,567.3266190476194
1124.78,531.408523809524
1127.03,444.3104285714288
1129.28,388.84052380952403
1131.53,354.7118571428573
1133.77,313.44671428571445
1136.02,274.28219047619064
1138.26,268.1690952380954
1140.5,256.39171428571444
1142.74,249.2346666666668
1144.98,250.12542857142873
1147.22,251.44404761904778
1149.45,221.76100000000017
1151.69,260.9796190476192
1153.92,253.33685714285724
1156.15,205.97514285714294
1158.38,178.32195238095247
1160.61,162.70998095238104
1162.83,129.2339380952382
1165.06,119.70253809523815
1167.28,92.68660476190482
1169.5,65.37646190476192
1171.72,45.39050000000005
1173.94,84.49006190476199
1176.16,109.7704952380953
1178.37,108.56494285714291
1180.58,117.54002095238098
1182.8,79.31478761904764
1185.01,37.98456095238098
1187.22,19.69224571428571
1189.42,12.00965619047622
1191.63,24.175344761904803
1193.84,45.3802447619048
1196.04,66.81556666666671
1198.24,86.52947619047623
1200.44,85.14179047619054
1202.64,93.84376190476195
1204.84,104.73169523809528
1207.03,75.90186190476194
1209.23,72.83171904761909
1211.42,58.046142857142875
1213.61,46.117896190476216
1215.8,29.57215952380954
1217.99,16.410362857142857
1220.18,0.3006757142857319
1222.36,14.435164761904787
1224.55,43.57729190476194
1226.73,63.01457619047622
1228.91,66.55829904761907
1231.09,62.59124285714289
1233.27,42.258133333333355
1235.44,42.60856704761909
1237.62,40.45394466666668
1239.79,38.55829409523813
1241.96,47.78082961904766
1244.13,62.076075047619085
1246.3,60.58906371428576
1248.47,77.51250990476194
1250.64,65.18197142857147
1252.8,60.552114285714325
1254.96,75.38719523809529
1257.13,96.02278571428579
1259.29,115.8424238095239
1261.44,137.3246190476191
1263.6,127.09076190476196
1265.76,104.00043809523815
1267.91,91.77040476190483
1270.06,83.87922857142863
1272.22,60.52010952380957
1274.37,74.31437142857149
1276.51,84.45516666666673
1278.66,89.4686952380953
1280.81,117.50033333333339
1282.95,105.98113333333337
1285.09,87.72292380952389
1287.23,103.72844761904769
1289.37,108.1906571428572
1291.51,101.63566761904768
1293.65,90.0183604761905
1295.78,54.91256476190479
1297.92,23.606223809523822
1300.05,27.911713333333367
1302.18,37.592923809523846
1304.31,51.318840952381
1306.44,76.09189857142863
1308.57,112.0095152380953
1310.69,124.78816666666677
1312.82,140.00151428571434
1314.94,120.41346666666674
1317.06,116.3119238095239
1319.18,121.65144761904773
1321.3,150.29110476190488
1323.41,170.94718095238107
1325.53,205.00263809523824
1327.64,233.6498095238097
1329.75,278.17619047619064
1331.87,274.3454285714287
1333.98,290.82566666666685
1336.08,280.99976190476207
1338.19,289.20280952380966
1340.3,290.3887619047621
1342.4,262.84466666666674
1344.5,196.81009523809536
1346.6,180.57204761904774
1348.7,132.84626190476195
1350.8,126.44328571428579
1352.9,118.50733333333338
1354.99,110.80143809523815
1357.09,92.85036666666673
1359.18,115.13144761904769
1361.27,112.64522857142867
1363.36,140.9638761904763
1365.45,182.89798571428588
1367.54,218.97220000000013
1369.62,231.94871428571446
1371.7,235.970761904762
1373.79,242.65771428571443
1375.87,198.4862380952382
1377.95,204.932761904762
1380.03,201.75952380952393
1382.1,183.3950000000001
1384.18,176.9342380952382
1386.25,176.85357142857148
1388.33,153.05754285714295
1390.4,159.7836238095239
1392.47,145.65051428571434
1394.54,100.32430619047622
1396.6,51.7091204761905
1398.67,21.232924285714315
1400.74,25.894922380952416
1402.8,38.83691952380956
1404.86,58.20074904761909
1406.92,78.08044190476195
1408.98,99.47478085714293
1411.04,98.76339300000005
1413.09,79.9924764761905
1415.15,57.827126523809554
1417.2,40.74190028571433
1419.25,53.211440619047686
1421.3,96.2337094285715
1423.35,112.99747142857149
1425.4,112.02461904761911
1427.45,102.59884761904766
1429.49,72.9086428571429
1431.54,43.76153333333337
1433.58,47.58384285714291
1435.62,59.46853333333339
1437.66,85.03243333333342
1439.7,117.89228095238103
1441.74,127.42666190476196
1443.77,121.82345238095245
1445.81,110.60442857142863
1447.84,95.81450476190483
1449.87,104.07048571428578
1451.9,126.98898095238104
1453.93,133.5671571428572
1455.96,136.32627619047625
1457.98,131.07339047619055
1460.01,111.80596190476196
1462.03,114.6644476190477
1464.05,148.88422857142868
1466.07,169.12935238095253
1468.09,207.11153333333345
1470.11,217.16162857142868
1472.13,199.4200000000001
1474.14,179.40780952380962
1476.16,192.26519047619058
1478.17,193.89485714285726
1480.18,207.67501904761914
1482.19,177.60346666666675
1484.2,137.10624761904768
1486.21,97.75242857142862
1488.21,88.25379047619052
1490.22,72.22732380952385
1492.22,72.90875238095242
1494.22,76.15304190476193
1496.22,59.1009466666667
1498.22,47.46481714285717
1500.22,49.24249619047622
1502.22,50.71780000000004
1504.21,55.31741761904765
1506.21,43.89666952380953
1508.2,18.882409999999997
1510.19,2.892070476190492
1512.18,7.685994761904792
1514.17,32.16755904761907
1516.16,39.57353333333335
1518.14,56.37881428571434
1520.13,75.43944761904766
1522.11,86.84964761904767
1524.09,79.46554761904767
1526.07,79.52425714285718
1528.05,80.64425714285721
1530.03,93.58645714285718
1532.01,93.92167619047623
1533.98,108.12537142857147
1535.96,80.76843333333336
1537.93,72.99306666666672
1539.9,87.41807142857148
1541.87,82.37613333333339
1543.84,90.1049857142858
1545.81,129.3183333333334
1547.78,126.96822857142865
1549.74,148.43549523809534
1551.7,186.57668571428584
1553.67,195.01076190476203
1555.63,188.8802857142858
1557.59,185.80371428571436
1559.55,170.3522380952382
1561.5,163.5262380952382
1563.46,162.84894285714293
1565.41,134.5586571428572
1567.37,110.3218857142858
1569.32,111.18581904761913
1571.27,133.4836000000001
1573.22,160.88246666666677
1575.17,186.2392761904763
1577.11,185.41123809523822
1579.06,189.0650000000001
1581.0,175.3908095238096
1582.95,161.24595238095247
1584.89,161.58328571428584
1586.83,162.59304761904772
1588.77,159.41852380952395
1590.7,184.63109523809536
1592.64,200.37395238095252
1594.58,222.36157142857155
1596.51,237.37957142857158
1598.44,237.9279523809526
