Raman Shift,Processed Intensity
331.095,14.259797166666413
333.909,-40.09264590476194
336.721,-44.34937704761897
339.531,-21.725146095238088
342.339,-12.030501428571426
345.145,12.615381428571414
347.949,-16.30977952380955
350.751,-30.088262857142887
353.55,-58.09618571428575
356.348,-51.374692857142875
359.144,-52.86800476190478
361.937,-23.423330952380944
364.729,-8.410028571428539
367.518,59.51835952380961
370.306,103.94855714285725
373.091,215.0398571428573
375.874,273.334242857143
378.656,331.56587619047633
381.435,295.0892047619049
384.212,237.97451809523815
386.988,120.91300142857148
389.761,63.834907619047634
392.532,-5.2326395238095005
395.301,15.405593333333364
398.068,22.731644285714307
400.833,33.014822857142875
403.596,35.66844761904763
406.358,35.25001142857143
409.117,12.889663809523825
411.874,2.718737142857141
414.629,12.155421904761925
417.382,24.71432285714288
420.133,21.768249523809533
422.882,27.26248285714289
425.629,58.52421904761911
428.374,77.5483380952382
431.117,183.85477619047634
433.858,246.34500952380964
436.597,234.68328571428583
439.334,208.53466666666677
442.069,192.42180952380963
444.802,156.77357142857156
447.533,187.44761904761918
450.262,220.826142857143
452.989,242.0538571428573
455.714,254.46676190476205
458.438,267.877142857143
461.159,225.81261904761914
463.878,197.08642857142868
466.595,184.98852380952388
469.31,161.09504761904773
472.024,143.79261904761916
474.735,146.9435238095239
477.444,129.07765714285722
480.152,116.2011333333334
482.857,123.98685714285722
485.561,100.96524285714291
488.262,93.61949523809531
490.962,110.52782380952388
493.659,107.07873809523815
496.355,103.37452857142866
499.048,113.37532857142861
501.74,96.8026952380953
504.43,93.04530952380958
507.118,92.77758095238102
509.804,113.15001904761914
512.488,161.6464000000001
515.17,196.60776190476204
517.85,217.70809523809538
520.528,210.3840000000001
523.204,164.7380952380953
525.878,127.06359523809529
528.551,111.60619047619056
531.221,123.70589047619056
533.89,128.3698428571429
536.556,135.31938000000005
539.221,95.41821095238097
541.883,70.43515047619054
544.544,88.13839380952389
547.203,89.5814552380953
549.86,99.81811095238102
552.515,128.4729990476191
555.168,133.36134285714297
557.819,163.34585714285726
560.469,167.43126190476198
563.116,129.86070476190483
565.761,103.20981428571436
568.405,108.43537142857151
571.047,128.49404285714297
573.687,164.8656190476191
576.324,150.69662380952389
578.96,143.41881904761914
581.594,125.89223333333342
584.227,120.11991428571436
586.857,120.58052857142866
589.485,151.37126666666677
592.112,162.7326380952382
594.737,156.04698095238103
597.359,117.83971428571432
599.98,101.63571428571437
602.599,100.29312380952389
605.216,122.66981904761913
607.831,124.90940476190481
610.445,122.53603809523814
613.056,72.07343333333337
615.666,40.99748095238098
618.274,41.831880952381
620.88,70.71872857142864
623.484,79.51465238095247
626.086,110.79030952380958
628.686,115.40184285714292
631.284,117.01433333333343
633.881,163.53135714285725
636.476,197.85609523809535
639.068,205.60591428571436
641.659,168.2074428571429
644.249,114.99219047619053
646.836,63.62427619047622
649.421,68.67301428571434
652.005,50.08849523809527
654.587,45.34426666666668
657.166,27.866304761904775
659.745,33.413590476190514
662.321,39.55497619047624
664.895,61.19231904761907
667.468,59.17973333333337
670.038,59.276114285714314
672.607,57.85924761904766
675.174,54.544785714285744
677.739,62.091514285714325
680.303,59.40080000000004
682.864,73.61202380952388
685.424,94.57881428571433
687.982,99.2023047619048
690.538,87.09788571428577
693.092,82.59512380952384
695.645,64.2140666666667
698.195,46.522280952380974
700.744,43.84918571428574
703.291,48.76223333333337
705.836,57.25742666666669
708.38,45.42595761904763
710.921,31.501843809523812
713.461,7.861937619047632
715.999,7.406834285714323
718.535,51.70401952380958
721.069,87.17775047619052
723.602,91.72865714285719
726.133,73.87643333333335
728.662,57.85504761904765
731.189,56.08905238095244
733.714,69.62221428571432
736.238,67.64088571428574
738.759,61.426923809523835
741.279,48.07172380952384
743.798,33.23820476190478
746.314,41.351328571428596
748.829,25.217061904761906
751.342,2.117709523809541
753.853,11.66902857142859
756.362,23.010719047619066
758.869,36.949352380952426
761.375,64.62490952380956
763.879,59.70131428571431
766.381,61.033128571428605
768.882,61.570261904761935
771.38,62.02467619047624
773.877,67.7751666666667
776.372,77.15305238095242
778.866,71.48969047619053
781.357,87.44983809523815
783.847,107.74631428571436
786.335,105.66318095238098
788.821,88.05615714285717
791.306,72.54305714285718
793.789,64.64636190476196
796.27,69.22219047619055
798.749,114.7459238095239
801.227,144.12124761904772
803.702,167.34754285714297
806.176,156.2338571428572
808.649,169.9698095238096
811.119,154.9364761904763
813.588,143.94271428571437
816.055,145.36914285714295
818.521,128.5492857142858
820.984,109.48300000000009
823.446,127.88461904761911
825.906,128.27852380952388
828.365,126.66466666666675
830.821,139.09121904761912
833.276,116.84448095238102
835.729,134.59124761904772
838.181,157.2373000000001
840.631,143.83092857142864
843.079,123.13483809523817
845.525,98.29295238095241
847.97,55.877647619047664
850.412,49.318371428571474
852.854,63.52121904761909
855.293,63.24929523809528
857.731,60.789619047619084
860.167,70.52450476190481
862.601,72.64594761904767
865.034,77.9648190476191
867.465,89.53050000000005
869.894,86.82084285714289
872.321,68.40898571428576
874.747,72.82062857142861
877.171,78.72414761904767
879.594,91.121280952381
882.014,95.34756190476196
884.433,98.0714714285715
886.851,112.15236666666675
889.266,135.25937619047627
891.68,152.67987142857152
894.092,147.27352380952388
896.503,154.3758095238096
898.912,154.27476190476202
901.319,192.49652380952395
903.724,209.71038095238106
906.128,208.68047619047627
908.53,170.885761904762
910.931,158.23338095238103
913.329,125.0115238095239
915.726,126.98451428571434
918.122,114.67896666666672
920.516,110.43115238095245
922.908,88.95789523809529
925.298,90.92862857142862
927.687,98.34586190476196
930.074,81.92677619047622
932.459,83.10266666666674
934.843,78.6860904761905
937.225,60.3940428571429
939.605,46.94369047619051
941.984,56.62360952380955
944.361,39.912900000000036
946.736,44.24293333333336
949.11,61.473700000000036
951.482,78.08445714285719
953.853,58.554300000000026
956.222,53.31470952380955
958.589,53.36868571428575
960.954,47.38578571428577
963.318,57.65448571428575
965.68,76.6064523809524
968.041,56.19694285714288
970.4,34.04793333333336
972.757,52.30496761904765
975.113,56.35192761904764
977.467,39.52488333333336
979.819,37.778857142857156
982.17,28.021210952380976
984.519,33.77830666666672
986.866,68.90942523809528
989.212,79.65514095238098
991.556,67.54140476190481
993.899,87.18949047619054
996.24,111.55347142857151
998.579,138.49258571428578
1000.92,131.38948095238098
1003.25,85.00768095238097
1005.59,28.92011904761907
1007.92,16.318766666666694
1010.25,15.871223809523842
1012.58,42.67403333333338
1014.91,54.20429523809528
1017.24,81.70104761904769
1019.56,93.92680952380955
1021.88,86.12026666666671
1024.2,79.85336190476197
1026.52,87.364580952381
1028.84,96.701761904762
1031.16,134.29363809523818
1033.48,142.14007619047626
1035.79,147.76500000000013
1038.1,174.73933333333343
1040.41,179.30109523809537
1042.72,225.40238095238107
1045.03,238.70933333333346
1047.33,240.88771428571442
1049.64,228.41342857142868
1051.94,200.4280952380953
1054.24,158.55009523809534
1056.54,155.9215714285715
1058.84,136.44619047619057
1061.13,147.78914285714296
1063.43,161.1400000000001
1065.72,163.44961904761914
1068.01,171.71666666666675
1070.3,188.36831428571438
1072.59,169.879361904762
1074.87,157.9624857142858
1077.16,151.71140000000008
1079.44,169.8385809523811
1081.72,197.24683809523825
1084.0,241.696123809524
1086.28,271.9944285714288
1088.56,349.94938095238126
1090.84,446.55900000000037
1093.11,566.3924285714289
1095.38,607.2571428571432
1097.65,571.3890000000002
1099.92,503.8337142857145
1102.19,402.0652380952383
1104.46,343.46214285714314
1106.72,348.5935238095241
1108.98,350.4573809523812
1111.24,361.9080952380955
1113.5,377.752904761905
1115.76,392.0846666666669
1118.02,435.710285714286
1120.28,463.1040000000003
1122.53,492.5011904761907
1124.78,472.3278571428574
1127.03,400.77200000000016
1129.28,345.4978571428573
1131.53,296.3121904761906
1133.77,234.02233333333345
1136.02,223.6729523809525
1138.26,226.69033333333346
1140.5,217.35757142857156
1142.74,224.38657142857159
1144.98,241.77480952380967
1147.22,234.5671904761906
1149.45,202.28509523809532
1151.69,197.44980952380962
1153.92,184.58247619047629
1156.15,175.58552380952392
1158.38,171.07552380952387
1160.61,162.66888571428578
1162.83,111.83966190476195
1165.06,98.20448571428578
1167.28,69.18950952380955
1169.5,55.60203809523816
1171.72,65.05878571428578
1173.94,96.84316190476197
1176.16,99.76230952380958
1178.37,117.24260380952387
1180.58,88.09148000000002
1182.8,49.7355219047619
1185.01,13.982386666666672
1187.22,0.78256952380953
1189.42,-0.1991961904761652
1191.63,13.36873714285716
1193.84,28.484814285714307
1196.04,48.62376190476195
1198.24,76.26029047619053
1200.44,101.48856666666673
1202.64,105.16462380952385
1204.84,80.47794285714288
1207.03,58.57055714285718
1209.23,63.53697619047623
1211.42,49.70984761904764
1213.61,41.7079904761905
1215.8,36.864447619047645
1217.99,41.274380952381
1220.18,64.93787142857148
1222.36,80.18845714285716
1224.55,65.21706190476193
1226.73,62.119433333333376
1228.91,61.94392380952385
1231.09,68.54850476190481
1233.27,64.41034761904764
1235.44,55.24485714285717
1237.62,40.38665714285717
1239.79,30.694266666666692
1241.96,41.026209523809555
1244.13,61.8128047619048
1246.3,66.24630952380959
1248.47,73.85242380952384
1250.64,67.87109047619053
1252.8,83.59005714285723
1254.96,123.53541428571441
1257.13,172.70957619047633
1259.29,215.9243047619049
1261.44,230.9914761904763
1263.6,206.38976190476205
1265.76,190.69319047619058
1267.91,184.66657142857156
1270.06,181.40780952380965
1272.22,190.44333333333347
1274.37,196.25252380952392
1276.51,175.55266666666677
1278.66,156.3941904761906
1280.81,165.25633333333346
1282.95,164.71380952380963
1285.09,165.48390476190485
1287.23,175.23666666666674
1289.37,174.5943523809525
1291.51,158.36955714285722
1293.65,135.70848571428576
1295.78,89.80506190476194
1297.92,70.23410476190482
1300.05,73.37961428571435
1302.18,97.91180952380961
1304.31,94.4054047619048
1306.44,105.00680000000007
1308.57,113.38575714285724
1310.69,156.2603904761906
1312.82,205.10971904761917
1314.94,237.74698095238108
1317.06,200.08019047619058
1319.18,196.3983809523811
1321.3,188.9904761904763
1323.41,201.71704761904778
1325.53,246.15252380952398
1327.64,287.44300000000015
1329.75,301.11557142857157
1331.87,334.8397142857144
1333.98,355.047523809524
1336.08,334.8848095238096
1338.19,317.3067619047621
1340.3,265.17319047619054
1342.4,206.53485714285728
1344.5,183.9179047619049
1346.6,207.13507619047633
1348.7,175.61733809523818
1350.8,163.08143809523816
1352.9,152.43466190476198
1354.99,137.63162857142868
1357.09,170.57929047619064
1359.18,214.13707619047628
1361.27,204.0214285714287
1363.36,198.13909523809536
1365.45,224.25380952380968
1367.54,240.6529047619049
1369.62,281.9093809523811
1371.7,301.5960476190478
1373.79,325.0480000000002
1375.87,319.64709523809546
1377.95,295.8706666666668
1380.03,279.05333333333346
1382.1,259.81480952380963
1384.18,236.48900000000015
1386.25,230.02904761904773
1388.33,198.7683333333334
1390.4,168.1358380952382
1392.47,131.94121904761911
1394.54,96.56523333333338
1396.6,64.34086190476194
1398.67,34.839266666666695
1400.74,44.01196666666674
1402.8,76.33468095238099
1404.86,88.37768571428578
1406.92,101.04479047619053
1408.98,120.71557619047626
1411.04,107.1505190476191
1413.09,109.77641428571434
1415.15,114.06777142857152
1417.2,132.64197142857154
1419.25,144.35448571428583
1421.3,167.6314857142858
1423.35,173.37562857142865
1425.4,147.96539047619055
1427.45,142.44575238095246
1429.49,138.81452380952388
1431.54,118.21211904761911
1433.58,104.3974952380953
1435.62,109.79646190476197
1437.66,116.73971428571437
1439.7,132.60508095238103
1441.74,131.24680000000006
1443.77,136.9000000000001
1445.81,133.2755714285715
1447.84,154.56088571428583
1449.87,167.13400476190483
1451.9,153.03910476190484
1453.93,127.7967571428572
1455.96,114.26086666666673
1457.98,106.2851000000001
1460.01,131.6760761904763
1462.03,141.33490476190485
1464.05,174.5917142857144
1466.07,189.44319047619064
1468.09,227.17147619047634
1470.11,246.15447619047632
1472.13,247.4366190476192
1474.14,246.4906190476192
1476.16,229.3609523809525
1478.17,179.66352380952392
1480.18,181.1093523809525
1482.19,152.83830476190485
1484.2,142.65654285714294
1486.21,136.46615714285718
1488.21,113.5498428571429
1490.22,73.66683809523815
1492.22,76.86189047619052
1494.22,81.17998095238102
1496.22,94.47538571428576
1498.22,102.4124733333334
1500.22,92.7983185714286
1502.22,64.39248476190478
1504.21,24.81173380952381
1506.21,4.387513333333348
1508.2,7.736780476190507
1510.19,33.90535904761908
1512.18,37.74868571428574
1514.17,61.55087142857146
1516.16,63.596285714285756
1518.14,74.64539047619054
1520.13,97.17315238095244
1522.11,96.70222380952384
1524.09,85.4221571428572
1526.07,76.09372380952385
1528.05,88.52560476190483
1530.03,98.66937142857148
1532.01,107.04816190476195
1533.98,99.13756190476195
1535.96,92.222880952381
1537.93,80.77966190476198
1539.9,84.71230952380958
1541.87,88.6871714285715
1543.84,88.98977619047625
1545.81,100.0011333333334
1547.78,98.8160952380953
1549.74,111.62537142857153
1551.7,139.00037142857153
1553.67,160.65522857142867
1555.63,160.30452380952391
1557.59,169.09161904761913
1559.55,148.58795238095246
1561.5,152.41333333333344
1563.46,155.9488571428572
1565.41,155.1000000000001
1567.37,142.43838095238104
1569.32,137.2030952380953
1571.27,115.39461904761913
1573.22,119.01371428571437
1575.17,106.20361904761911
1577.11,109.20352380952389
1579.06,98.20440476190481
1581.0,94.39795238095243
1582.95,106.88016666666675
1584.89,127.93800000000007
1586.83,152.28659523809534
1588.77,163.5458095238096
1590.7,179.955142857143
1592.64,196.80123809523823
1594.58,223.6565714285713
1596.51,226.49857142857115
1598.44,184.66173809523772
