Raman Shift,Processed Intensity
331.095,-2.156679285714368
333.909,-52.43824238095236
336.721,-49.95073523809517
339.531,-18.575449523809514
342.339,9.877280000000013
345.145,26.454936190476182
347.949,3.3495628571428266
350.751,-29.721593333333356
353.55,-45.80180285714287
356.348,-32.88528238095238
359.144,-26.2980580952381
361.937,-12.507479523809513
364.729,17.925316190476234
367.518,74.53590523809534
370.306,148.194722857143
373.091,268.2974666666669
375.874,316.051123809524
378.656,342.42542857142877
381.435,295.01108571428585
384.212,207.87622380952388
386.988,112.4237428571429
389.761,71.9151047619048
392.532,28.32768095238099
395.301,54.163423809523835
398.068,21.64062380952381
400.833,12.597705714285723
403.596,-1.6492966666666724
406.358,11.883697142857162
409.117,2.991630000000005
411.874,22.04222095238096
414.629,15.261665238095262
417.382,43.877329523809564
420.133,42.54650000000004
422.882,82.83238571428578
425.629,104.72788095238106
428.374,151.0841142857144
431.117,202.37233333333347
433.858,264.1596666666668
436.597,268.9192857142859
439.334,248.98233333333346
442.069,232.72880952380964
444.802,208.06285714285727
447.533,191.98476190476202
450.262,219.59033333333346
452.989,237.73871428571445
455.714,260.9080952380954
458.438,268.3873809523811
461.159,253.60843809523823
463.878,190.1943190476191
466.595,152.48278095238103
469.31,113.86006190476199
472.024,122.7122095238096
474.735,129.47336666666678
477.444,163.72120000000012
480.152,164.1764285714287
482.857,168.56014285714295
485.561,171.64166666666677
488.262,177.90440952380965
490.962,159.87955238095245
493.659,136.14624761904767
496.355,117.28359047619054
499.048,89.8712476190477
501.74,124.7746761904763
504.43,136.2877952380953
507.118,119.08577142857152
509.804,120.17690000000007
512.488,134.56939047619056
515.17,162.17648095238107
517.85,203.72093333333345
520.528,214.9732380952382
523.204,185.98919047619057
525.878,162.77733333333344
528.551,145.2027714285715
531.221,118.51162380952387
533.89,73.18830000000005
536.556,81.57413809523814
539.221,72.58130000000004
541.883,75.45571904761911
544.544,108.82363333333338
547.203,110.74000000000007
549.86,131.87860952380964
552.515,153.62722857142865
555.168,149.37328571428577
557.819,138.98042857142866
560.469,150.16906666666677
563.116,135.7070238095239
565.761,133.6952333333334
568.405,119.18668095238102
571.047,114.94832857142863
573.687,107.36596666666674
576.324,122.34913809523816
578.96,131.09235238095246
581.594,149.64725714285723
584.227,164.01781904761913
586.857,169.35015238095247
589.485,146.93285714285722
592.112,137.48342857142865
594.737,105.6231571428572
597.359,79.87810952380957
599.98,92.7742333333334
602.599,92.45583333333339
605.216,106.54306190476198
607.831,112.2753285714286
610.445,81.60560000000002
613.056,30.058190476190504
615.666,50.63333333333338
618.274,58.1879333333334
620.88,81.15006190476197
623.484,95.13814285714291
626.086,119.24658571428579
628.686,114.99775238095248
631.284,153.43800476190486
633.881,193.23224761904774
636.476,212.61657142857155
639.068,214.82656190476197
641.659,192.8600857142858
644.249,152.19021904761914
646.836,126.7195333333334
649.421,113.9685571428572
652.005,99.98161428571433
654.587,56.659828571428584
657.166,35.237840952380985
659.745,24.85456476190478
662.321,16.93507238095241
664.895,43.04648761904767
667.468,64.47054857142861
670.038,74.53642190476197
672.607,88.1444885714286
675.174,72.62374761904765
677.739,63.77906666666672
680.303,68.12972380952385
682.864,61.195028571428615
685.424,60.113095238095255
687.982,50.1172666666667
690.538,43.202767619047656
693.092,44.60273619047621
695.645,31.50292285714286
698.195,14.327060000000007
700.744,0.02264285714287695
703.291,23.013438095238126
705.836,36.53272190476193
708.38,45.24237809523812
710.921,63.137680952380975
713.461,43.737723809523814
715.999,34.228366666666695
718.535,45.93838095238097
721.069,44.72046190476193
723.602,36.1892285714286
726.133,62.912047619047655
728.662,58.07503333333337
731.189,81.3883752380953
733.714,81.89573238095241
736.238,70.35510761904766
738.759,56.47706761904767
741.279,83.82967904761911
743.798,102.17094190476196
746.314,119.54505714285717
748.829,79.3772842857143
751.342,41.52153523809527
753.853,38.212910952381
756.362,56.21047333333338
758.869,60.17787476190479
761.375,73.30293904761908
763.879,61.01167142857146
766.381,35.58732857142859
768.882,40.17046666666669
771.38,32.568480952380966
773.877,33.969766666666715
776.372,50.80101904761908
778.866,70.10811428571432
781.357,62.270447619047665
783.847,92.38162380952387
786.335,82.53567619047624
788.821,92.58857619047625
791.306,86.06301428571435
793.789,95.62462857142863
796.27,82.60601904761913
798.749,128.05393333333342
801.227,116.11075238095245
803.702,122.91887619047627
806.176,119.38275714285722
808.649,147.83539047619058
811.119,131.70521904761912
813.588,165.0399333333334
816.055,150.79183333333341
818.521,138.3898571428572
820.984,132.26278571428583
823.446,159.41101904761913
825.906,140.54920952380962
828.365,141.67822857142863
830.821,133.36979047619056
833.276,121.14894285714294
835.729,124.30201904761913
838.181,144.97295238095245
840.631,129.44829047619052
843.079,113.49120000000008
845.525,111.1025571428572
847.97,103.71265714285721
850.412,99.37042380952388
852.854,103.74400000000006
855.293,78.97761428571431
857.731,64.50142380952386
860.167,63.60270952380956
862.601,73.09283333333337
865.034,72.06879047619051
867.465,63.43717142857145
869.894,34.390338095238114
872.321,19.549333333333365
874.747,43.24942380952389
877.171,107.44522857142866
879.594,128.8530095238096
882.014,115.18921904761909
884.433,92.88471428571434
886.851,84.22743333333341
889.266,111.45771428571437
891.68,138.76848095238103
894.092,129.68594285714292
896.503,116.83134285714294
898.912,104.68351428571435
901.319,121.76885714285723
903.724,129.0421095238096
906.128,124.55347619047626
908.53,96.3531952380953
910.931,101.87232380952388
913.329,105.97049047619055
915.726,139.36477142857152
918.122,138.43881428571433
920.516,127.76673333333338
922.908,91.11323333333338
925.298,88.0048095238096
927.687,111.11057619047628
930.074,139.1950428571429
932.459,126.83246666666669
934.843,93.69219047619049
937.225,46.681861904761924
939.605,23.042242857142902
941.984,56.299766666666734
944.361,84.742880952381
946.736,92.61240000000004
949.11,82.19673809523812
951.482,54.260471428571456
953.853,33.377666666666705
956.222,44.169819047619086
958.589,82.92535714285721
960.954,99.3612190476191
963.318,84.09901904761908
965.68,80.85560000000004
968.041,47.490571428571435
970.4,16.054066666666696
972.757,21.54843333333334
975.113,14.261933333333346
977.467,22.530233333333378
979.819,52.30803809523812
982.17,64.07382380952384
984.519,67.49648095238098
986.866,52.86389523809526
989.212,34.65431904761908
991.556,42.72696190476194
993.899,64.55999523809531
996.24,106.72665714285722
998.579,128.65710000000007
1000.92,115.21019523809527
1003.25,76.81600000000002
1005.59,36.28560666666669
1007.92,13.858512380952392
1010.25,2.5835142857142905
1012.58,-0.15748571428570202
1014.91,10.207979047619071
1017.24,29.680684761904807
1019.56,74.92805523809531
1021.88,110.37922476190482
1024.2,107.32040000000006
1026.52,117.56133333333341
1028.84,120.0546714285715
1031.16,124.03900476190485
1033.48,150.7047857142858
1035.79,165.52802857142868
1038.1,171.17542857142868
1040.41,189.55100000000013
1042.72,209.36900000000014
1045.03,215.29590476190484
1047.33,220.75940000000008
1049.64,178.28280476190483
1051.94,144.1513714285715
1054.24,134.79248095238106
1056.54,157.53898095238105
1058.84,155.19931904761916
1061.13,164.58200000000008
1063.43,151.20991428571438
1065.72,136.9386476190477
1068.01,170.29094285714297
1070.3,196.69394285714296
1072.59,188.67014285714293
1074.87,175.31361904761914
1077.16,174.52761904761914
1079.44,160.97661904761918
1081.72,200.3738571428573
1084.0,242.0981904761907
1086.28,317.91000000000025
1088.56,417.8075238095241
1090.84,516.9795714285717
1093.11,575.5192857142861
1095.38,606.0439523809528
1097.65,543.7891904761907
1099.92,463.8484285714288
1102.19,373.26719047619065
1104.46,344.09133333333364
1106.72,347.74714285714316
1108.98,387.4705238095241
1111.24,441.11619047619075
1113.5,484.58685714285735
1115.76,478.7372380952384
1118.02,508.75580952380983
1120.28,484.639904761905
1122.53,471.72066666666694
1124.78,457.99571428571454
1127.03,423.93904761904787
1129.28,361.73866666666686
1131.53,327.9158095238097
1133.77,283.4205714285716
1136.02,272.72666666666686
1138.26,246.06980952380968
1140.5,209.87633333333343
1142.74,187.33404761904774
1144.98,207.72604761904776
1147.22,244.09766666666684
1149.45,261.1606666666668
1151.69,269.62704761904774
1153.92,237.9231904761906
1156.15,208.28461904761917
1158.38,185.18538095238105
1160.61,179.57514285714294
1162.83,151.2609333333334
1165.06,123.19274285714293
1167.28,96.84456190476195
1169.5,68.26180952380956
1171.72,61.156400000000076
1173.94,103.95490476190484
1176.16,142.60739904761914
1178.37,134.20678238095243
1180.58,102.08423142857144
1182.8,52.1424080952381
1185.01,20.33140380952384
1187.22,12.17331666666669
1189.42,26.142315238095254
1191.63,25.47440857142859
1193.84,31.310611428571477
1196.04,68.03002476190483
1198.24,91.44049142857148
1200.44,115.34980000000007
1202.64,107.80410000000003
1204.84,91.80192380952386
1207.03,81.4372428571429
1209.23,98.85174761904767
1211.42,64.7587285714286
1213.61,56.34770000000002
1215.8,40.141804761904794
1217.99,35.569033333333365
1220.18,40.53383809523814
1222.36,77.60740000000004
1224.55,86.40892857142863
1226.73,106.7480714285715
1228.91,109.76806666666671
1231.09,98.231280952381
1233.27,80.6621952380953
1235.44,96.91871619047626
1237.62,87.33529952380958
1239.79,79.24623714285718
1241.96,65.5101290476191
1244.13,80.79473238095245
1246.3,107.95875190476198
1248.47,133.0037971428572
1250.64,130.8841714285715
1252.8,133.22049523809534
1254.96,135.11010476190486
1257.13,185.55493333333345
1259.29,228.12874285714298
1261.44,236.45276190476204
1263.6,231.52942857142864
1265.76,196.12290476190486
1267.91,177.6166666666668
1270.06,193.20385714285726
1272.22,196.9824761904763
1274.37,215.95533333333347
1276.51,211.55371428571436
1278.66,170.97080952380963
1280.81,170.25704761904774
1282.95,167.3201904761906
1285.09,161.3539047619049
1287.23,185.69490476190487
1289.37,198.5844285714287
1291.51,178.9300476190477
1293.65,155.40157142857151
1295.78,144.38321904761912
1297.92,103.21164761904767
1300.05,80.31886666666672
1302.18,94.04130476190483
1304.31,101.38229523809531
1306.44,119.20226666666676
1308.57,165.50460000000007
1310.69,159.8164761904763
1312.82,168.90304761904775
1314.94,197.33885714285725
1317.06,185.88933333333344
1319.18,184.4624761904763
1321.3,198.53766666666678
1323.41,203.40390476190493
1325.53,232.5882857142859
1327.64,272.189142857143
1329.75,289.82866666666683
1331.87,324.9861428571431
1333.98,336.5692857142859
1336.08,348.48609523809546
1338.19,333.40633333333346
1340.3,300.04690476190495
1342.4,255.83904761904773
1344.5,216.92842857142867
1346.6,198.12728571428585
1348.7,192.67661904761914
1350.8,178.2457142857144
1352.9,178.50361904761914
1354.99,156.92861904761912
1357.09,143.23728571428583
1359.18,185.47952380952393
1361.27,191.60990476190486
1363.36,186.48757142857156
1365.45,225.5429047619049
1367.54,240.25390476190495
1369.62,253.86014285714302
1371.7,272.8396666666668
1373.79,282.71771428571446
1375.87,270.9239047619049
1377.95,279.26909523809536
1380.03,310.27809523809543
1382.1,299.04680952380966
1384.18,276.195142857143
1386.25,252.29542857142872
1388.33,212.34771428571443
1390.4,174.87630476190486
1392.47,147.59545238095245
1394.54,106.26703809523814
1396.6,89.08131428571431
1398.67,64.84768571428576
1400.74,79.85103809523817
1402.8,102.70972380952385
1404.86,94.8514952380953
1406.92,110.60846666666671
1408.98,110.88430000000005
1411.04,105.72538095238102
1413.09,105.17771428571433
1415.15,90.33486666666673
1417.2,83.1950714285715
1419.25,111.94669523809532
1421.3,116.77842380952389
1423.35,146.83095238095245
1425.4,151.34035238095245
1427.45,134.97076190476199
1429.49,122.38627619047625
1431.54,106.87013333333338
1433.58,86.89588571428578
1435.62,94.12734285714292
1437.66,93.70512380952388
1439.7,117.3880476190477
1441.74,126.88716666666673
1443.77,133.34260000000006
1445.81,126.79876190476197
1447.84,129.5382476190477
1449.87,105.51061428571435
1451.9,114.47449523809532
1453.93,117.331561904762
1455.96,139.5070476190477
1457.98,145.18818571428582
1460.01,169.32425714285722
1462.03,153.62633333333343
1464.05,160.6146666666668
1466.07,165.9055238095239
1468.09,200.44757142857156
1470.11,239.47576190476207
1472.13,277.70147619047634
1474.14,293.45480952380973
1476.16,278.6370476190478
1478.17,257.67400000000015
1480.18,234.84804761904775
1482.19,191.48966666666678
1484.2,166.40540000000007
1486.21,128.73536190476193
1488.21,73.09560000000005
1490.22,42.0549
1492.22,30.277128571428605
1494.22,35.902633333333384
1496.22,57.69061428571432
1498.22,54.495985714285744
1500.22,58.03067142857145
1502.22,38.387761904761916
1504.21,21.612847619047628
1506.21,8.227838095238091
1508.2,7.516726666666682
1510.19,1.7636433333333517
1512.18,25.44334380952384
1514.17,43.26889476190478
1516.16,50.715362857142885
1518.14,41.400871904761935
1520.13,46.991283809523836
1522.11,45.29547619047622
1524.09,41.503414285714314
1526.07,44.709947619047654
1528.05,44.914795238095245
1530.03,22.974957142857154
1532.01,12.128485714285738
1533.98,34.756414285714314
1535.96,47.14460476190479
1537.93,46.72190952380954
1539.9,52.34576666666669
1541.87,60.397595238095285
1543.84,58.258966666666716
1545.81,83.50199523809529
1547.78,95.22250476190479
1549.74,88.08800000000006
1551.7,111.62309523809532
1553.67,121.92382380952387
1555.63,119.46761904761911
1557.59,122.0649952380953
1559.55,116.14544761904769
1561.5,116.56764285714293
1563.46,117.95171428571435
1565.41,102.39426666666674
1567.37,118.89672380952389
1569.32,135.03160952380964
1571.27,133.75295238095245
1573.22,140.34803809523817
1575.17,123.81840952380959
1577.11,91.68968571428577
1579.06,83.62998571428577
1581.0,81.259880952381
1582.95,74.53352857142863
1584.89,94.07151904761912
1586.83,110.63769047619054
1588.77,109.09093809523817
1590.7,128.43321904761913
1592.64,134.04723809523819
1594.58,142.1965238095239
1596.51,147.7398809523811
1598.44,149.34564285714305
