Raman Shift,Processed Intensity
331.095,3.3501733333334145
333.909,37.09951476190479
336.721,48.2062261904762
339.531,42.95478095238098
342.339,33.176787523809516
345.145,10.395013952380959
347.949,-14.770812095238107
350.751,-10.794663000000016
353.55,-33.33956733333337
356.348,-56.114493190476225
359.144,-87.77913342857147
361.937,-72.22947619047618
364.729,-17.645652380952306
367.518,97.46103333333343
370.306,182.48563809523824
373.091,279.77737142857166
375.874,344.0208095238097
378.656,372.5684095238097
381.435,325.01224285714295
384.212,245.94635238095245
386.988,130.20419047619052
389.761,70.7635476190477
392.532,78.60429523809532
395.301,105.23065238095244
398.068,96.62482857142862
400.833,56.6275761904762
403.596,42.22361428571432
406.358,29.16114761904765
409.117,39.09448571428576
411.874,44.67876666666668
414.629,48.33245714285716
417.382,31.998833333333383
420.133,57.336647619047675
422.882,74.48183809523817
425.629,123.99995714285726
428.374,173.3145904761906
431.117,220.08835238095253
433.858,269.7940952380954
436.597,270.8106666666668
439.334,256.61247619047634
442.069,261.1036666666668
444.802,235.33142857142872
447.533,207.29623809523824
450.262,231.61823809523827
452.989,248.87066666666686
455.714,274.484142857143
458.438,301.31842857142874
461.159,269.614761904762
463.878,214.94823809523822
466.595,196.465742857143
469.31,157.83855238095248
472.024,146.54758095238108
474.735,154.35959047619056
477.444,151.99462857142865
480.152,140.17240952380962
482.857,166.42274285714296
485.561,171.9424285714287
488.262,187.26147619047632
490.962,186.862761904762
493.659,154.94333333333344
496.355,139.31938095238107
499.048,151.90314285714294
501.74,156.32057142857153
504.43,157.2456476190477
507.118,131.352480952381
509.804,117.26696190476201
512.488,164.2345666666668
515.17,213.73915238095253
517.85,231.78805238095248
520.528,224.53169523809532
523.204,169.6440476190477
525.878,144.8942761904763
528.551,126.48000000000006
531.221,125.12285238095244
533.89,106.11584285714288
536.556,58.79942380952383
539.221,22.51404285714289
541.883,38.743223809523855
544.544,40.25540000000005
547.203,73.9623333333334
549.86,109.20390000000006
552.515,128.41531428571437
555.168,146.93656666666675
557.819,167.5837333333334
560.469,162.31490476190484
563.116,170.66019047619056
565.761,147.95859523809534
568.405,158.02547619047627
571.047,135.10450000000006
573.687,123.39138095238104
576.324,136.84315714285722
578.96,123.4649428571429
581.594,100.78526666666674
584.227,119.66577142857149
586.857,110.20550476190485
589.485,120.17046666666675
592.112,149.51667523809527
594.737,106.96181571428575
597.359,67.22340761904765
599.98,50.590217619047664
602.599,52.96934095238101
605.216,80.45882523809532
607.831,113.34657047619052
610.445,105.58672380952385
613.056,75.0381428571429
615.666,54.27378095238099
618.274,57.294638095238156
620.88,76.86390476190482
623.484,98.8867476190477
626.086,121.36353333333341
628.686,123.62793333333342
631.284,145.87009523809536
633.881,148.8518095238096
636.476,157.04861904761916
639.068,163.6503333333334
641.659,171.13179047619056
644.249,142.3492333333334
646.836,130.4914285714286
649.421,96.6997247619048
652.005,69.16239619047623
654.587,37.92521619047621
657.166,32.36652380952382
659.745,8.388800476190486
662.321,2.98936000000002
664.895,24.35583571428574
667.468,34.723340000000036
670.038,55.51731761904766
672.607,65.73450380952384
675.174,39.22863857142858
677.739,30.61525809523812
680.303,29.176445104761918
682.864,14.81320877142859
685.424,30.474097066666687
687.982,41.059885228571446
690.538,29.99510278095241
693.092,34.799420200000014
695.645,42.944825104761925
698.195,20.23657428571431
700.744,54.71780809523815
703.291,63.71754380952382
705.836,61.75511333333336
708.38,50.06411238095241
710.921,50.63995619047621
713.461,22.28757333333337
715.999,37.47836380952384
718.535,58.588938095238156
721.069,95.75726476190482
723.602,91.26437666666672
726.133,107.01029238095244
728.662,70.70461714285716
731.189,45.34264571428576
733.714,44.25321619047621
736.238,31.2409761904762
738.759,29.25376047619053
741.279,78.19159619047625
743.798,81.95470952380958
746.314,98.49091428571433
748.829,93.98621904761907
751.342,39.626690476190504
753.853,30.931861904761945
756.362,46.80216666666671
758.869,63.80485238095245
761.375,82.7454333333334
763.879,110.4292714285715
766.381,110.75735238095245
768.882,109.44023809523814
771.38,94.56946666666671
773.877,69.3319047619048
776.372,49.00992380952386
778.866,62.12358095238102
781.357,95.81256190476198
783.847,125.45480952380957
786.335,116.04733809523815
788.821,110.49181904761912
791.306,121.26199523809531
793.789,121.21196190476198
796.27,114.43429047619055
798.749,139.02207619047627
801.227,136.7344761904763
803.702,180.8074285714287
806.176,196.23914285714295
808.649,194.36085714285724
811.119,164.50400000000008
813.588,162.8575714285715
816.055,158.22887619047629
818.521,154.56928095238104
820.984,118.87765714285722
823.446,132.39076666666676
825.906,143.10737142857153
828.365,159.45551904761916
830.821,175.91001904761913
833.276,156.04227619047626
835.729,110.99460952380959
838.181,121.62370476190483
840.631,118.59590000000007
843.079,124.62553333333341
845.525,111.9030190476191
847.97,83.23855714285718
850.412,62.72770476190482
852.854,71.4663428571429
855.293,71.55028571428578
857.731,88.7897952380953
860.167,90.61458571428577
862.601,104.88324761904768
865.034,93.16856190476193
867.465,72.71005714285717
869.894,42.65234761904764
872.321,38.997157142857205
874.747,63.41322380952388
877.171,114.42693809523817
879.594,126.56427142857149
882.014,131.63733333333337
884.433,90.26789047619052
886.851,66.1727333333334
889.266,88.45021428571437
891.68,108.72247619047629
894.092,136.99282857142867
896.503,169.5028380952382
898.912,176.255761904762
901.319,179.3502857142858
903.724,193.8852857142858
906.128,185.6262857142858
908.53,156.76766666666674
910.931,151.6942380952382
913.329,163.64814285714294
915.726,149.06197619047626
918.122,136.3685714285715
920.516,130.9526428571429
922.908,99.15176190476197
925.298,105.06535714285721
927.687,133.88821904761912
930.074,125.1485190476191
932.459,110.56501428571433
934.843,85.3321883809524
937.225,33.216450761904774
939.605,23.412611047619087
941.984,33.59148352380955
944.361,49.2337748571429
946.736,41.34375266666668
949.11,49.11619695238098
951.482,44.84107714285717
953.853,44.95119952380954
956.222,40.11741238095241
958.589,46.39149190476193
960.954,44.0632390476191
963.318,56.61282904761909
965.68,68.1870885714286
968.041,68.26604761904765
970.4,57.32965714285717
972.757,60.47685238095242
975.113,67.99691238095241
977.467,53.65517095238097
979.819,23.40742380952382
982.17,37.256630952380995
984.519,44.920392380952435
986.866,69.59211761904768
989.212,97.17933047619054
991.556,113.35151809523816
993.899,110.06326190476197
996.24,120.12640000000005
998.579,111.11479047619054
1000.92,94.07800952380957
1003.25,92.63719047619054
1005.59,92.41311428571433
1007.92,87.93088095238099
1010.25,68.6683285714286
1012.58,49.2457285714286
1014.91,45.52154761904767
1017.24,73.73489047619054
1019.56,76.12451428571431
1021.88,69.16735714285717
1024.2,74.67330952380958
1026.52,63.404828571428624
1028.84,94.74303333333341
1031.16,128.02130476190482
1033.48,119.8111333333334
1035.79,142.06454761904774
1038.1,171.59038095238108
1040.41,176.436142857143
1042.72,202.3149523809525
1045.03,200.2740000000001
1047.33,164.9311904761906
1049.64,158.76185714285722
1051.94,142.00266666666676
1054.24,139.65257142857152
1056.54,148.18600952380962
1058.84,138.2208428571429
1061.13,116.8980190476191
1063.43,108.50201428571435
1065.72,112.03073333333344
1068.01,136.33912857142866
1070.3,169.52040000000008
1072.59,164.3821380952382
1074.87,127.01740952380959
1077.16,92.28117619047626
1079.44,93.5522476190477
1081.72,115.68490952380965
1084.0,180.58140000000017
1086.28,269.57286666666687
1088.56,369.1803333333336
1090.84,487.63919047619083
1093.11,574.709047619048
1095.38,583.815285714286
1097.65,513.9072380952383
1099.92,419.55409523809556
1102.19,330.65728571428593
1104.46,309.54752380952397
1106.72,296.07890476190494
1108.98,295.01028571428594
1111.24,324.5767142857145
1113.5,381.87080952380984
1115.76,431.8413809523812
1118.02,481.7714285714288
1120.28,482.2291428571431
1122.53,461.1165714285717
1124.78,441.0496190476193
1127.03,416.3584761904764
1129.28,360.611523809524
1131.53,282.3772380952382
1133.77,231.79552380952393
1136.02,183.72066666666677
1138.26,180.5303333333335
1140.5,199.65023809523822
1142.74,196.36347619047632
1144.98,206.76247619047632
1147.22,237.1774761904763
1149.45,206.6056666666668
1151.69,194.90146666666675
1153.92,153.11006190476198
1156.15,116.80035238095245
1158.38,87.30313809523814
1160.61,81.66322380952384
1162.83,59.59249523809527
1165.06,51.37437809523812
1167.28,27.101875714285732
1169.5,30.86812285714287
1171.72,11.813776666666682
1173.94,35.222504761904794
1176.16,43.37810523809526
1178.37,44.13588476190477
1180.58,38.54171333333335
1182.8,16.784411428571424
1185.01,8.767229523809554
1187.22,19.869700952380963
1189.42,31.566747619047646
1191.63,25.04770238095239
1193.84,38.787738095238126
1196.04,46.6430690476191
1198.24,74.42249047619053
1200.44,87.03010428571433
1202.64,79.79876380952383
1204.84,58.68047047619051
1207.03,39.15117904761907
1209.23,40.544116190476224
1211.42,28.430719047619064
1213.61,53.287498095238135
1215.8,50.209816190476225
1217.99,68.10287428571434
1220.18,61.53867857142859
1222.36,46.089414
1224.55,8.613115666666678
1226.73,-1.1270705714285771
1228.91,-12.796809476190464
1231.09,7.510113238095258
1233.27,25.366634238095262
1235.44,41.917293047619076
1237.62,45.116342857142875
1239.79,45.251428571428605
1241.96,44.32468095238099
1244.13,59.814542857142904
1246.3,65.96146190476195
1248.47,69.19651904761908
1250.64,59.61755238095242
1252.8,60.89393333333337
1254.96,70.31410952380959
1257.13,93.21421428571436
1259.29,127.1689476190477
1261.44,140.609561904762
1263.6,152.63462857142866
1265.76,140.1995238095239
1267.91,146.87894285714293
1270.06,133.00944285714294
1272.22,138.11826666666676
1274.37,143.49431904761914
1276.51,148.47450476190483
1278.66,129.91910952380962
1280.81,135.64103809523817
1282.95,144.7387142857144
1285.09,141.5490000000001
1287.23,163.26600000000008
1289.37,168.08362857142865
1291.51,134.14791428571434
1293.65,97.31913809523815
1295.78,71.50521904761906
1297.92,18.709580952380982
1300.05,30.649752380952428
1302.18,43.4240666666667
1304.31,56.89264761904768
1306.44,82.77278571428576
1308.57,86.63869047619053
1310.69,92.9694952380953
1312.82,119.14891904761912
1314.94,137.08430476190486
1317.06,152.87350952380962
1319.18,158.1857238095239
1321.3,140.4994761904763
1323.41,156.53190476190488
1325.53,178.28500000000014
1327.64,230.7610476190478
1329.75,273.67619047619064
1331.87,291.0326190476193
1333.98,302.9276666666669
1336.08,297.5538095238097
1338.19,288.5792857142859
1340.3,272.52976190476204
1342.4,226.31138095238103
1344.5,175.68766666666676
1346.6,160.9462000000001
1348.7,132.04039047619054
1350.8,119.06706666666675
1352.9,129.45570476190485
1354.99,124.16001904761914
1357.09,142.08548571428582
1359.18,181.37624761904775
1361.27,194.41409523809534
1363.36,199.00957142857155
1365.45,217.54357142857154
1367.54,204.9221904761906
1369.62,209.09766666666684
1371.7,214.97552380952396
1373.79,246.50838095238115
1375.87,271.4586190476192
1377.95,282.8259047619049
1380.03,274.5153809523811
1382.1,258.09828571428585
1384.18,226.09828571428588
1386.25,207.75295238095248
1388.33,177.87163809523818
1390.4,151.0252600000001
1392.47,109.45138619047624
1394.54,82.72099142857147
1396.6,62.833109047619075
1398.67,47.40586761904767
1400.74,79.43838428571433
1402.8,87.64380333333335
1404.86,75.73521523809528
1406.92,73.85419476190481
1408.98,71.95179619047623
1411.04,70.35991000000006
1413.09,88.83904571428576
1415.15,85.19694761904768
1417.2,96.00339523809532
1419.25,126.92329047619059
1421.3,150.90715238095248
1423.35,164.0006857142858
1425.4,131.1065428571429
1427.45,113.17527619047625
1429.49,105.77606666666674
1431.54,106.8116714285715
1433.58,102.56547619047625
1435.62,117.22610952380958
1437.66,93.07675238095246
1439.7,96.30593809523816
1441.74,109.29197142857149
1443.77,95.4135571428572
1445.81,93.00175238095245
1447.84,113.0067571428572
1449.87,123.09255238095245
1451.9,143.11432857142864
1453.93,128.3551142857143
1455.96,102.09858095238101
1457.98,99.24706666666674
1460.01,99.6552476190477
1462.03,121.70179047619057
1464.05,158.0990761904763
1466.07,141.55885714285725
1468.09,178.2696666666668
1470.11,220.5625714285716
1472.13,235.57842857142873
1474.14,274.3626190476192
1476.16,263.341761904762
1478.17,213.1328380952382
1480.18,187.21010000000007
1482.19,125.61958095238099
1484.2,74.12144285714291
1486.21,66.8567285714286
1488.21,54.06195142857147
1490.22,42.49758476190478
1492.22,59.01927714285716
1494.22,46.43525380952383
1496.22,22.696660952380963
1498.22,22.897602000000017
1500.22,20.798956761904762
1502.22,8.399809238095264
1504.21,24.84223371428572
1506.21,20.83979923809524
1508.2,16.39188533333336
1510.19,31.307484380952395
1512.18,29.014733333333357
1514.17,29.37036666666668
1516.16,38.659804761904795
1518.14,33.02563809523813
1520.13,50.18193333333338
1522.11,74.89048571428576
1524.09,73.81783809523813
1526.07,69.96391428571432
1528.05,75.51919523809528
1530.03,65.86460952380956
1532.01,55.095447619047654
1533.98,65.92605238095241
1535.96,43.45173809523811
1537.93,43.72021428571433
1539.9,47.0649285714286
1541.87,66.29547619047625
1543.84,68.98345714285719
1545.81,92.22397619047624
1547.78,79.25551428571433
1549.74,105.83989523809532
1551.7,132.07258095238106
1553.67,157.81102857142866
1555.63,163.62651428571436
1557.59,164.6142761904763
1559.55,134.86990476190482
1561.5,138.82170476190484
1563.46,129.70820476190482
1565.41,123.91045714285723
1567.37,121.04736666666675
1569.32,129.64307619047628
1571.27,124.07882380952388
1573.22,137.54480000000007
1575.17,128.75566666666674
1577.11,139.52090476190486
1579.06,147.45962857142868
1581.0,143.8576857142858
1582.95,114.81055238095244
1584.89,114.12759047619053
1586.83,97.14240000000007
1588.77,102.6648095238096
1590.7,128.2662476190477
1592.64,131.1372190476191
1594.58,136.13493333333338
1596.51,140.2355476190477
1598.44,144.10572857142873
