Raman Shift,Processed Intensity
331.095,-16.373248571428775
333.909,-57.55119476190473
336.721,-61.456944761904694
339.531,-40.6363219047619
342.339,-12.992782857142835
345.145,32.904268571428574
347.949,22.58235428571429
350.751,15.142019047619034
353.55,-18.695912380952393
356.348,-26.732970952380956
359.144,-16.721621428571428
361.937,-27.460530952380957
364.729,-13.365928095238061
367.518,37.814134761904846
370.306,113.1899814285716
373.091,253.30234380952405
375.874,369.0737142857145
378.656,398.4283619047621
381.435,350.00634285714295
384.212,247.8298857142858
386.988,110.44626190476194
389.761,43.59491904761909
392.532,33.73015714285721
395.301,70.45113809523815
398.068,90.02485238095242
400.833,78.48137142857144
403.596,43.233023809523814
406.358,5.883828571428577
409.117,-6.008638095238087
411.874,-16.88538571428572
414.629,2.3852380952381136
417.382,9.935761904761932
420.133,46.376242857142906
422.882,64.84133809523814
425.629,99.80072380952389
428.374,127.91528571428583
431.117,196.9894952380954
433.858,247.4956952380954
436.597,264.7640000000001
439.334,237.36347619047632
442.069,224.19776190476202
444.802,196.88504761904775
447.533,180.2347142857144
450.262,197.9144285714287
452.989,231.02057142857157
455.714,245.60281904761916
458.438,230.13993809523816
461.159,175.396780952381
463.878,115.66258571428578
466.595,86.51306666666675
469.31,108.2382238095239
472.024,134.1761714285715
474.735,125.37982857142863
477.444,121.09299047619055
480.152,120.41664761904768
482.857,123.11909523809533
485.561,123.39726190476198
488.262,117.2102952380953
490.962,113.56501428571434
493.659,100.27841428571435
496.355,97.88142380952388
499.048,121.71490000000009
501.74,144.9768095238096
504.43,141.7224714285715
507.118,161.14979047619056
509.804,134.1241333333334
512.488,132.98630476190485
515.17,152.26834285714295
517.85,164.5014857142858
520.528,166.97937142857154
523.204,156.85258571428577
525.878,123.74792380952388
528.551,107.10142380952387
531.221,97.2540571428572
533.89,81.40345238095243
536.556,89.65215142857147
539.221,59.19778000000002
541.883,52.09479333333338
544.544,63.492734285714334
547.203,70.7792552380953
549.86,92.72278000000009
552.515,130.94845619047626
555.168,125.50969523809532
557.819,142.45991904761914
560.469,170.99511428571438
563.116,144.5491238095239
565.761,114.98439047619055
568.405,115.73401904761911
571.047,112.51653333333343
573.687,126.86007619047629
576.324,149.3402190476191
578.96,142.15123809523817
581.594,122.34414285714293
584.227,112.30319047619054
586.857,116.79285714285722
589.485,132.1492761904763
592.112,138.61262380952388
594.737,119.89950000000005
597.359,92.39235238095242
599.98,76.99778571428577
602.599,73.52630000000008
605.216,99.12198571428578
607.831,114.35677619047624
610.445,104.61210952380956
613.056,95.84053904761909
615.666,68.99438904761907
618.274,43.59713523809528
620.88,49.36247285714292
623.484,66.62286380952389
626.086,109.04415571428581
628.686,149.00595809523819
631.284,158.6019904761906
633.881,176.4020000000001
636.476,175.73757142857153
639.068,186.22550476190486
641.659,179.00640952380957
644.249,143.8871333333334
646.836,96.29351428571434
649.421,69.60368571428575
652.005,37.43394761904766
654.587,38.9238904761905
657.166,46.832046666666685
659.745,40.583589523809536
662.321,18.889267142857157
664.895,15.60258190476191
667.468,14.767414761904773
670.038,16.951370476190505
672.607,38.00771571428574
675.174,30.884880952380957
677.739,21.76936666666668
680.303,24.13330000000002
682.864,24.115490476190494
685.424,29.092761904761925
687.982,48.156215238095264
690.538,40.30167952380955
693.092,23.57262809523812
695.645,46.44093571428576
698.195,47.23585000000002
700.744,39.47694761904765
703.291,41.87429190476191
705.836,35.280811904761926
708.38,15.454276190476234
710.921,55.628281428571476
713.461,80.94181619047623
715.999,72.53360000000002
718.535,70.59000952380956
721.069,71.15462380952384
723.602,40.98538095238097
726.133,43.316192380952415
728.662,32.19101142857143
731.189,15.51077523809526
733.714,16.700336190476207
736.238,25.137075238095257
738.759,36.00779238095243
741.279,81.64236380952386
743.798,77.2280904761905
746.314,87.47616666666671
748.829,93.43103809523816
751.342,94.42280190476197
753.853,79.11496619047624
756.362,83.21894666666668
758.869,42.82741476190478
761.375,32.60444666666672
763.879,54.88102809523815
766.381,76.89249714285718
768.882,76.01749047619053
771.38,85.96806190476194
773.877,92.4564952380953
776.372,85.90918571428577
778.866,82.5625428571429
781.357,83.31933809523815
783.847,99.51112571428578
786.335,79.75554952380958
788.821,84.24164190476195
791.306,80.44401714285719
793.789,81.40923238095246
796.27,106.23130666666674
798.749,158.2425733333334
801.227,150.63247619047627
803.702,157.2572380952382
806.176,158.30666666666676
808.649,155.49466666666675
811.119,153.15361904761912
813.588,156.95009523809534
816.055,158.7882857142858
818.521,161.85833333333343
820.984,165.25557142857153
823.446,179.55119047619058
825.906,164.98333333333343
828.365,144.12366666666676
830.821,167.21052380952392
833.276,159.43461904761912
835.729,168.32004761904773
838.181,181.05773333333343
840.631,139.02943333333337
843.079,99.33080000000005
845.525,86.15311428571431
847.97,50.97338095238099
850.412,42.9828047619048
852.854,68.75389523809528
855.293,73.57334761904768
857.731,90.68035238095246
860.167,109.55215238095245
862.601,115.09490476190481
865.034,87.59565714285719
867.465,76.722380952381
869.894,64.28608571428575
872.321,52.66917142857149
874.747,80.58740000000009
877.171,132.80428571428578
879.594,150.22641904761915
882.014,138.9983571428572
884.433,106.93159523809528
886.851,103.40888095238105
889.266,122.86078571428583
891.68,157.4316238095239
894.092,186.69511428571437
896.503,176.0341904761906
898.912,160.26090476190487
901.319,180.0440000000001
903.724,177.3856666666668
906.128,184.00233333333347
908.53,195.0391714285715
910.931,165.54602857142865
913.329,149.09686666666676
915.726,135.74159047619057
918.122,155.33977142857157
920.516,170.51350476190487
922.908,178.69379047619054
925.298,167.93053333333341
927.687,144.8929857142858
930.074,118.91702380952391
932.459,122.62437142857148
934.843,96.49423809523813
937.225,41.48163809523812
939.605,47.68452380952387
941.984,61.581795238095296
944.361,81.74775238095246
946.736,107.32785714285721
949.11,139.84889047619055
951.482,128.7900000000001
953.853,119.91600952380958
956.222,105.13412380952387
958.589,103.92366190476196
960.954,88.85848095238103
963.318,106.22716666666676
965.68,123.08018571428578
968.041,115.4674095238096
970.4,92.10547142857146
972.757,71.04468095238097
975.113,41.81105238095241
977.467,44.930528571428624
979.819,65.07221428571435
982.17,115.66646857142862
984.519,103.42936619047622
986.866,89.69606571428577
989.212,64.13481952380957
991.556,78.9849038095239
993.899,110.77209952380963
996.24,174.3071304761906
998.579,163.40073809523815
1000.92,145.62560476190484
1003.25,110.79230476190482
1005.59,92.56825238095244
1007.92,76.95460952380958
1010.25,82.90452857142861
1012.58,83.79970476190482
1014.91,97.59302857142866
1017.24,116.66619047619056
1019.56,145.4003142857144
1021.88,150.31973333333343
1024.2,139.7107095238096
1026.52,123.33541904761911
1028.84,117.0986714285715
1031.16,102.76275238095248
1033.48,145.56551904761915
1035.79,173.64982857142869
1038.1,202.20600000000013
1040.41,220.13871428571446
1042.72,238.82857142857156
1045.03,252.0373809523811
1047.33,273.0502857142858
1049.64,249.10514285714297
1051.94,215.63014285714294
1054.24,196.76747619047632
1056.54,196.56428571428583
1058.84,185.63904761904774
1061.13,191.32404761904775
1063.43,200.76161904761918
1065.72,171.1415238095239
1068.01,166.17714285714297
1070.3,157.20095238095243
1072.59,145.30719047619058
1074.87,176.39947619047635
1077.16,203.23885714285726
1079.44,212.77661904761922
1081.72,258.2500476190478
1084.0,278.1341428571431
1086.28,335.66542857142883
1088.56,434.50966666666693
1090.84,512.3798095238099
1093.11,567.0838095238098
1095.38,583.0490476190479
1097.65,510.7983809523811
1099.92,441.66352380952407
1102.19,386.2623809523812
1104.46,386.73614285714314
1106.72,375.36871428571453
1108.98,388.34942857142886
1111.24,405.39109523809543
1113.5,425.063904761905
1115.76,436.9850000000003
1118.02,474.7245714285717
1120.28,451.1378571428574
1122.53,475.9380000000003
1124.78,450.5038095238097
1127.03,398.31019047619077
1129.28,354.54595238095254
1131.53,312.5905523809525
1133.77,225.34707619047632
1136.02,196.0997714285715
1138.26,160.41825714285724
1140.5,145.87229523809535
1142.74,172.84136190476204
1144.98,212.32345714285728
1147.22,217.07904761904774
1149.45,216.10652380952394
1151.69,217.0712857142858
1153.92,184.35252380952392
1156.15,167.90085714285726
1158.38,149.4764761904763
1160.61,157.6015723809525
1162.83,132.32231285714292
1165.06,93.11357333333336
1167.28,55.73563476190479
1169.5,31.425001904761938
1171.72,35.3229033333334
1173.94,72.14217238095242
1176.16,81.31003333333337
1178.37,85.58689047619052
1180.58,82.25707142857146
1182.8,62.27160000000003
1185.01,46.00999523809526
1187.22,33.18533333333336
1189.42,42.41544761904767
1191.63,52.98487619047623
1193.84,81.89241904761911
1196.04,100.27996666666671
1198.24,87.38469523809528
1200.44,73.01520952380956
1202.64,72.69455238095242
1204.84,68.18390000000005
1207.03,67.57776666666669
1209.23,60.06620666666668
1211.42,19.601170952380954
1213.61,9.229965714285749
1215.8,19.19052904761908
1217.99,64.149360952381
1220.18,74.82091380952384
1222.36,77.72915904761908
1224.55,76.5886428571429
1226.73,70.25685714285717
1228.91,65.92478571428578
1231.09,75.21193809523812
1233.27,67.73815238095243
1235.44,77.027980952381
1237.62,86.36796666666672
1239.79,87.23540476190483
1241.96,104.96445238095244
1244.13,111.36576666666673
1246.3,107.15483809523815
1248.47,103.95199523809528
1250.64,76.66317619047626
1252.8,91.90906190476198
1254.96,121.69115714285725
1257.13,170.4393142857144
1259.29,202.53611428571443
1261.44,222.45952380952392
1263.6,219.6396190476192
1265.76,230.31623809523822
1267.91,232.8721904761906
1270.06,224.73733333333345
1272.22,188.72357142857152
1274.37,185.35638095238107
1276.51,179.68547619047632
1278.66,182.3316666666668
1280.81,182.7730000000001
1282.95,182.63057142857156
1285.09,161.95433333333347
1287.23,178.31704761904774
1289.37,166.95895238095247
1291.51,183.26293904761914
1293.65,144.3263771428572
1295.78,121.48499238095245
1297.92,98.16911809523816
1300.05,95.42817333333339
1302.18,80.50205809523817
1304.31,106.15487238095244
1306.44,115.38831904761912
1308.57,150.34740952380963
1310.69,195.46249047619057
1312.82,208.9738000000001
1314.94,201.59728571428582
1317.06,181.19219047619058
1319.18,184.1409523809525
1321.3,212.77876190476206
1323.41,236.01238095238108
1325.53,265.7004285714288
1327.64,296.5587619047621
1329.75,314.5418095238097
1331.87,315.5556666666668
1333.98,345.93561904761924
1336.08,342.9212380952383
1338.19,354.323523809524
1340.3,335.33438095238114
1342.4,301.05071428571443
1344.5,265.045142857143
1346.6,260.0335714285716
1348.7,220.9220000000001
1350.8,195.0929047619049
1352.9,185.4996666666668
1354.99,197.00066666666683
1357.09,232.7875714285716
1359.18,255.86142857142872
1361.27,237.27109523809534
1363.36,215.11280952380966
1365.45,216.43485714285728
1367.54,227.38138095238114
1369.62,256.0007142857144
1371.7,291.1030476190478
1373.79,320.2130000000002
1375.87,327.56938095238115
1377.95,315.83942857142875
1380.03,302.8333809523811
1382.1,276.9325714285716
1384.18,257.51804761904776
1386.25,242.40004761904774
1388.33,238.38828571428584
1390.4,214.34014285714295
1392.47,205.11295238095246
1394.54,188.23057142857152
1396.6,147.78795238095245
1398.67,119.8807238095239
1400.74,112.17504761904767
1402.8,71.48012857142861
1404.86,60.03397142857149
1406.92,87.74086190476197
1408.98,101.50513333333342
1411.04,128.18340476190482
1413.09,144.77484761904768
1415.15,128.61219047619056
1417.2,127.98047619047628
1419.25,141.9740000000001
1421.3,168.8774761904763
1423.35,167.07079047619055
1425.4,131.40998095238103
1427.45,108.41796190476197
1429.49,96.80782857142864
1431.54,98.57822857142867
1433.58,121.68012857142864
1435.62,127.96927619047625
1437.66,113.25380476190483
1439.7,137.6754380952382
1441.74,148.80400476190485
1443.77,147.73355238095246
1445.81,130.0336190476191
1447.84,109.46438095238102
1449.87,113.26252380952391
1451.9,152.14052380952393
1453.93,161.2395714285715
1455.96,155.3678095238096
1457.98,158.6662857142858
1460.01,146.32390476190488
1462.03,150.81514285714297
1464.05,184.1379523809525
1466.07,185.86204761904773
1468.09,203.50947619047633
1470.11,223.65009523809533
1472.13,241.6633809523811
1474.14,246.49952380952394
1476.16,240.10961904761916
1478.17,217.2059047619049
1480.18,203.73899047619057
1482.19,159.80260952380962
1484.2,155.68106666666677
1486.21,137.51516666666674
1488.21,119.97031428571437
1490.22,107.94933333333337
1492.22,89.06981904761908
1494.22,56.56842380952385
1496.22,41.348528571428595
1498.22,27.694304761904785
1500.22,29.747190476190493
1502.22,30.172533333333362
1504.21,33.20712761904764
1506.21,27.563991904761917
1508.2,19.48005523809525
1510.19,19.097011904761914
1512.18,11.604274285714293
1514.17,10.429381904761907
1516.16,0.3809190476190434
1518.14,1.7913385714285868
1520.13,9.850336190476206
1522.11,29.747619523809547
1524.09,30.29208666666668
1526.07,28.86409714285716
1528.05,38.22505714285718
1530.03,43.66025809523811
1532.01,46.02649619047622
1533.98,54.13300000000002
1535.96,34.97956095238097
1537.93,27.89934952380956
1539.9,44.511316190476215
1541.87,48.577361904761936
1543.84,58.19278095238099
1545.81,69.16720000000002
1547.78,54.215057142857184
1549.74,61.574685714285785
1551.7,105.38924285714295
1553.67,126.08759047619056
1555.63,160.09847619047628
1557.59,156.1367952380953
1559.55,109.39352857142863
1561.5,86.67860476190481
1563.46,85.37373809523815
1565.41,74.28898571428577
1567.37,85.94860000000004
1569.32,79.06773809523814
1571.27,78.8851190476191
1573.22,96.78217619047626
1575.17,90.1409952380953
1577.11,109.48614285714294
1579.06,130.6278952380953
1581.0,121.18625714285722
1582.95,117.9716476190477
1584.89,124.41332380952387
1586.83,106.79820000000008
1588.77,123.31745714285724
1590.7,151.4958857142858
1592.64,144.7630000000001
1594.58,142.6913333333334
1596.51,136.25804761904774
1598.44,124.63080952380975
