Raman Shift,Processed Intensity
331.095,76.89882619047593
333.909,-25.294192857142903
336.721,-44.155907142857004
339.531,-14.232466666666639
342.339,20.143852380952406
345.145,36.30800476190477
347.949,31.78695238095235
350.751,-19.79586190476194
353.55,-69.72045714285719
356.348,-56.17014285714284
359.144,-3.4222590476190113
361.937,27.34264809523813
364.729,60.46912000000006
367.518,113.25596142857151
370.306,153.71709142857156
373.091,255.05895761904782
375.874,345.29830761904776
378.656,350.73896190476205
381.435,274.63872857142866
384.212,186.30456190476195
386.988,86.47277333333338
389.761,27.310056666666696
392.532,20.41256095238099
395.301,30.94907190476192
398.068,41.23287047619052
400.833,49.2449523809524
403.596,47.53903095238096
406.358,10.860479523809516
409.117,1.3845709523809475
411.874,-27.521787142857146
414.629,-19.91909476190476
417.382,-8.533220952380942
420.133,8.7682523809524
422.882,32.30932380952387
425.629,85.60548571428579
428.374,131.8879523809525
431.117,180.67436190476204
433.858,201.7689523809525
436.597,198.5482857142858
439.334,174.34257142857152
442.069,165.38700000000014
444.802,166.87090476190488
447.533,184.93585714285726
450.262,217.8670952380954
452.989,265.42723809523824
455.714,261.7127142857144
458.438,272.2009714285716
461.159,226.6089238095239
463.878,175.224561904762
466.595,142.67026666666675
469.31,121.28365714285721
472.024,105.92568571428582
474.735,142.88678095238106
477.444,145.45766666666674
480.152,139.26240476190483
482.857,129.49714285714293
485.561,119.26314761904769
488.262,91.66190952380958
490.962,102.46212857142865
493.659,110.14651904761911
496.355,94.62660476190483
499.048,98.81429047619056
501.74,133.1452714285715
504.43,120.1030857142858
507.118,114.26663809523815
509.804,123.88132380952388
512.488,116.66911904761912
515.17,141.30461904761916
517.85,184.98575714285724
520.528,159.10106190476193
523.204,119.22964761904767
525.878,89.52178095238098
528.551,62.175552380952446
531.221,80.10335238095247
533.89,125.26454285714291
536.556,110.90470476190482
539.221,91.316680952381
541.883,81.36446190476195
544.544,69.2456714285715
547.203,109.77634761904771
549.86,147.58189047619055
552.515,164.38293333333343
555.168,164.47161904761913
557.819,166.47261904761913
560.469,169.20133333333348
563.116,178.75838095238103
565.761,140.86295238095246
568.405,151.61539047619056
571.047,139.87774761904768
573.687,123.36859047619056
576.324,144.473061904762
578.96,157.19501904761916
581.594,156.2044238095239
584.227,158.69532857142863
586.857,138.7656095238096
589.485,101.6087952380953
592.112,96.3703333333334
594.737,84.6711190476191
597.359,66.84642857142862
599.98,81.13574285714294
602.599,96.20680000000007
605.216,111.1084476190477
607.831,119.841280952381
610.445,109.88176190476194
613.056,82.08705238095244
615.666,95.2663190476191
618.274,83.08580000000006
620.88,94.35434761904769
623.484,96.26131904761912
626.086,140.28144285714296
628.686,156.69875714285726
631.284,184.84461904761915
633.881,196.47900000000013
636.476,199.9804285714287
639.068,200.25119047619063
641.659,215.76438095238106
644.249,199.56461904761915
646.836,200.64857142857153
649.421,168.6794964761905
652.005,106.70117433333336
654.587,70.94792009523812
657.166,26.653733761904768
659.745,4.719282000000027
662.321,15.37842671428574
664.895,36.19814409523813
667.468,42.03110952380957
670.038,72.58704285714289
672.607,71.52794190476193
675.174,50.087172857142875
677.739,34.212312380952405
680.303,37.803246190476216
682.864,34.14078380952384
685.424,41.88660619047622
687.982,49.1785704761905
690.538,61.77345333333338
693.092,54.999505714285746
695.645,73.89944723809529
698.195,59.51559533333335
700.744,44.366642095238134
703.291,49.73315419047623
705.836,63.70519352380955
708.38,55.896753428571486
710.921,87.35068342857147
713.461,85.58547142857148
715.999,77.11999523809529
718.535,88.0446952380953
721.069,100.40230476190482
723.602,86.33083047619051
726.133,63.30194476190477
728.662,38.97766571428572
731.189,21.353679047619075
733.714,17.28301809523813
736.238,36.332944761904784
738.759,56.16614476190481
741.279,101.54071428571437
743.798,108.40543809523815
746.314,113.42355714285718
748.829,81.92508571428573
751.342,39.90693333333337
753.853,36.98540952380958
756.362,82.82426190476194
758.869,71.51621428571433
761.375,67.77313333333336
763.879,78.92631904761909
766.381,70.68789047619053
768.882,81.29421904761911
771.38,73.41013809523812
773.877,60.60570000000004
776.372,71.40312380952388
778.866,83.46819523809529
781.357,95.1328238095239
783.847,125.6822190476191
786.335,93.25826666666671
788.821,84.14631428571435
791.306,100.53593333333339
793.789,86.56978571428579
796.27,94.72387619047626
798.749,125.23648095238102
801.227,131.4407714285715
803.702,162.6227666666668
806.176,203.25883809523822
808.649,216.44457142857155
811.119,194.1332380952382
813.588,169.99214285714297
816.055,169.1650000000001
818.521,158.60500000000008
820.984,159.5510000000001
823.446,166.33757142857152
825.906,156.5373333333334
828.365,148.10395238095248
830.821,150.0391428571429
833.276,129.39176190476195
835.729,125.40166666666676
838.181,135.689561904762
840.631,124.06665714285721
843.079,108.01074285714292
845.525,110.28614285714292
847.97,91.13259047619053
850.412,91.50463809523816
852.854,112.49970476190482
855.293,98.97713619047623
857.731,60.367617142857185
860.167,80.14985809523813
862.601,55.65947809523812
865.034,46.75591523809529
867.465,51.91826952380954
869.894,58.24406000000003
872.321,25.688242857142896
874.747,68.2535476190477
877.171,100.60923333333339
879.594,109.28180952380959
882.014,92.7978190476191
884.433,86.73161428571431
886.851,70.56194285714292
889.266,92.57779523809532
891.68,107.87700476190483
894.092,101.17667619047626
896.503,114.62257619047628
898.912,110.12273809523816
901.319,125.34652857142865
903.724,132.86882380952386
906.128,121.64462857142863
908.53,90.53398571428578
910.931,95.49223809523815
913.329,86.09399047619054
915.726,92.86606666666674
918.122,132.85944761904773
920.516,160.69565714285721
922.908,136.42553809523815
925.298,134.81407619047627
927.687,121.57853333333338
930.074,95.29331428571439
932.459,136.62839047619056
934.843,149.34811428571433
937.225,97.12238095238098
939.605,93.04918095238098
941.984,74.08394761904765
944.361,46.61049523809529
946.736,54.58430476190479
949.11,60.865090476190495
951.482,51.26525047619053
953.853,51.40632428571432
956.222,59.43406761904766
958.589,88.77976619047625
960.954,93.68390095238101
963.318,106.05369571428577
965.68,110.98678380952384
968.041,60.675966666666696
970.4,38.45682857142862
972.757,62.04596190476194
975.113,59.302347619047666
977.467,68.46609047619052
979.819,68.58663809523811
982.17,52.237152380952416
984.519,39.943085714285736
986.866,41.4202904761905
989.212,31.67016666666669
991.556,41.36075714285718
993.899,52.683780952381
996.24,79.87850000000005
998.579,79.23171428571432
1000.92,75.79197142857146
1003.25,70.60779523809526
1005.59,53.870424761904786
1007.92,20.24720333333335
1010.25,22.786354285714307
1012.58,34.34554904761909
1014.91,45.82993047619051
1017.24,65.28747000000003
1019.56,71.4326485714286
1021.88,55.836980952381
1024.2,62.35756190476195
1026.52,81.47059523809529
1028.84,94.46154285714292
1031.16,109.7110333333334
1033.48,144.45657619047628
1035.79,138.26911428571438
1038.1,166.0524761904763
1040.41,189.37771428571438
1042.72,211.48200000000017
1045.03,222.22157142857156
1047.33,240.40500000000011
1049.64,197.74566666666678
1051.94,183.62271428571438
1054.24,159.9878095238096
1056.54,137.74414285714295
1058.84,117.69961904761914
1061.13,146.0432380952382
1063.43,153.6309523809525
1065.72,152.55585714285723
1068.01,140.95957142857148
1070.3,151.03057142857153
1072.59,151.0049523809525
1074.87,183.8809523809525
1077.16,182.180761904762
1079.44,172.425761904762
1081.72,144.51885714285729
1084.0,194.41028571428592
1086.28,278.52628571428596
1088.56,402.1505714285717
1090.84,527.0902380952384
1093.11,603.962285714286
1095.38,594.1928571428575
1097.65,534.589285714286
1099.92,451.3396190476193
1102.19,374.06061904761924
1104.46,352.89233333333357
1106.72,341.1660000000003
1108.98,351.4979523809526
1111.24,375.7905238095241
1113.5,414.6128571428574
1115.76,449.81966666666693
1118.02,484.5031428571432
1120.28,483.47038095238116
1122.53,483.05242857142883
1124.78,462.19923809523834
1127.03,407.0987619047621
1129.28,361.0340476190478
1131.53,322.5737619047621
1133.77,258.2868571428573
1136.02,227.790142857143
1138.26,200.36695238095248
1140.5,187.53861904761916
1142.74,194.77871428571441
1144.98,229.7039047619049
1147.22,243.40671428571443
1149.45,232.55157142857152
1151.69,234.27909523809538
1153.92,220.20594285714293
1156.15,145.8061095238096
1158.38,136.9819904761906
1160.61,129.2075333333334
1162.83,104.05214285714295
1165.06,113.8471333333334
1167.28,109.35212857142861
1169.5,66.56520952380959
1171.72,78.5318333333334
1173.94,96.86925238095246
1176.16,117.90896666666674
1178.37,131.50626666666673
1180.58,126.42132857142863
1182.8,105.84295809523812
1185.01,69.62669476190479
1187.22,39.628119523809545
1189.42,24.27437952380954
1191.63,21.040246190476218
1193.84,28.16253380952385
1196.04,48.11616619047623
1198.24,61.32865333333337
1200.44,90.70355238095244
1202.64,90.52573809523815
1204.84,103.88977142857149
1207.03,108.0802952380953
1209.23,113.76373333333339
1211.42,81.89181428571433
1213.61,83.65444761904764
1215.8,44.24197619047622
1217.99,51.84491428571434
1220.18,58.12960000000006
1222.36,109.95353333333341
1224.55,108.4121714285715
1226.73,124.17267619047627
1228.91,130.14039523809532
1231.09,162.7919857142858
1233.27,132.69972619047624
1235.44,111.483380952381
1237.62,76.95360238095243
1239.79,80.82603809523818
1241.96,98.48269761904771
1244.13,145.40091428571438
1246.3,165.106161904762
1248.47,150.4095571428572
1250.64,145.5506857142858
1252.8,139.67430000000007
1254.96,143.2584000000001
1257.13,191.06679523809538
1259.29,230.10148571428581
1261.44,224.6979523809525
1263.6,209.8580000000001
1265.76,181.7747142857144
1267.91,189.25995238095254
1270.06,222.12542857142867
1272.22,224.6119523809525
1274.37,220.76938095238108
1276.51,216.31476190476204
1278.66,199.48890476190488
1280.81,202.53252380952392
1282.95,191.54333333333344
1285.09,182.85752380952397
1287.23,193.43004761904777
1289.37,214.788142857143
1291.51,209.74400000000009
1293.65,202.7291428571429
1295.78,160.79390476190483
1297.92,137.51283809523818
1300.05,123.36503333333343
1302.18,109.06799047619054
1304.31,88.7674333333334
1306.44,100.13302857142867
1308.57,141.26296666666678
1310.69,187.30334285714295
1312.82,235.92388571428586
1314.94,232.413142857143
1317.06,203.39338095238108
1319.18,196.67733333333348
1321.3,199.26752380952394
1323.41,221.59576190476207
1325.53,274.4745714285716
1327.64,320.00204761904786
1329.75,347.94333333333356
1331.87,381.34880952380973
1333.98,384.6971428571431
1336.08,383.61042857142877
1338.19,351.6630476190478
1340.3,333.66723809523825
1342.4,269.72080952380963
1344.5,229.39800000000014
1346.6,230.08218095238107
1348.7,194.34746666666678
1350.8,174.81540952380965
1352.9,197.10734285714295
1354.99,179.51136190476205
1357.09,185.74427619047634
1359.18,217.71289523809534
1361.27,201.7050952380954
1363.36,199.6273809523811
1365.45,227.33904761904776
1367.54,228.8418571428573
1369.62,252.4235714285716
1371.7,275.1810952380954
1373.79,303.7825714285716
1375.87,310.61061904761925
1377.95,320.9048095238097
1380.03,321.14223809523827
1382.1,308.27671428571443
1384.18,270.92819047619065
1386.25,263.8117619047621
1388.33,228.30952380952394
1390.4,195.2794285714287
1392.47,179.5313714285715
1394.54,146.97062857142862
1396.6,96.40700000000007
1398.67,98.6975714285715
1400.74,118.0330476190477
1402.8,118.1753333333334
1404.86,106.6955428571429
1406.92,92.30741904761909
1408.98,73.43914285714294
1411.04,109.42304761904774
1413.09,157.59192380952388
1415.15,165.1349333333334
1417.2,162.1940476190477
1419.25,167.76766666666674
1421.3,163.9974761904763
1423.35,188.78642857142867
1425.4,200.99011428571438
1427.45,187.1780714285715
1429.49,150.0630428571429
1431.54,121.78545238095244
1433.58,86.05780476190482
1435.62,85.97292857142864
1437.66,96.62372857142864
1439.7,121.19857142857151
1441.74,131.17120000000008
1443.77,143.96726666666675
1445.81,112.58437619047623
1447.84,99.54380000000005
1449.87,86.98548095238104
1451.9,108.7162761904763
1453.93,143.40028095238105
1455.96,160.6534476190477
1457.98,146.66342857142865
1460.01,151.33238095238104
1462.03,148.27590476190488
1464.05,186.96752380952398
1466.07,228.73757142857156
1468.09,266.0118095238097
1470.11,287.97766666666683
1472.13,277.3463809523811
1474.14,262.25785714285723
1476.16,262.3281904761906
1478.17,255.55423809523828
1480.18,250.60028571428583
1482.19,238.5108380952382
1484.2,188.9972476190477
1486.21,137.96174761904766
1488.21,96.44890476190481
1490.22,70.93223333333339
1492.22,78.17129523809531
1494.22,92.16328095238102
1496.22,83.28663809523813
1498.22,66.39609523809528
1500.22,70.48935238095244
1502.22,72.37360476190482
1504.21,70.57055714285715
1506.21,53.22085714285717
1508.2,44.51300952380956
1510.19,40.3023047619048
1512.18,49.92039523809526
1514.17,44.65125238095238
1516.16,10.826671428571439
1518.14,12.111761904761945
1520.13,50.69562857142863
1522.11,83.67248380952387
1524.09,83.66027904761907
1526.07,73.99141523809527
1528.05,62.66499238095243
1530.03,73.20370095238103
1532.01,91.32102666666673
1533.98,113.35001714285718
1535.96,94.76610476190481
1537.93,88.90244761904768
1539.9,104.1869714285715
1541.87,107.71471904761913
1543.84,98.15200000000007
1545.81,122.83250952380959
1547.78,110.42260476190482
1549.74,112.39850952380962
1551.7,138.56964285714295
1553.67,151.74595238095247
1555.63,141.83224285714294
1557.59,149.11503809523816
1559.55,133.02284761904772
1561.5,139.12760952380964
1563.46,130.5726476190477
1565.41,149.5965238095239
1567.37,148.0096476190477
1569.32,151.0033238095239
1571.27,152.86340000000013
1573.22,160.4484000000001
1575.17,149.33019047619058
1577.11,153.74766666666676
1579.06,145.55938095238102
1581.0,137.62342857142863
1582.95,121.94038095238103
1584.89,132.79733333333343
1586.83,132.24271428571436
1588.77,151.896761904762
1590.7,163.28457142857152
1592.64,169.93133333333344
1594.58,172.83800000000008
1596.51,176.00578571428588
1598.44,182.26919047619094
