Raman Shift,Processed Intensity
331.095,23.284529523809457
333.909,-31.064886190476283
336.721,-44.23191761904765
339.531,-29.601658095238083
342.339,9.678445714285733
345.145,22.699653333333327
347.949,4.3168314285714064
350.751,-21.042386666666687
353.55,-30.28231047619049
356.348,-32.73444761904761
359.144,21.89039809523813
361.937,41.31116952380954
364.729,41.24844380952385
367.518,62.47186857142865
370.306,111.51452000000015
373.091,231.4824123809526
375.874,355.3401219047621
378.656,397.2440952380954
381.435,370.7332752380953
384.212,258.34835857142866
386.988,122.63143619047624
389.761,60.98330809523812
392.532,8.710850476190485
395.301,-23.163008095238098
398.068,-12.661591428571441
400.833,-28.615840952380967
403.596,-25.760086190476187
406.358,-18.350793333333353
409.117,-17.261927619047626
411.874,-13.032503809523803
414.629,-0.15248095238095383
417.382,-3.2055428571428477
420.133,11.130747142857164
422.882,27.228090476190538
425.629,84.07818190476202
428.374,162.15035809523823
431.117,261.2483714285716
433.858,302.1771523809525
436.597,299.2667142857144
439.334,249.80066666666679
442.069,173.63464285714292
444.802,119.00633333333343
447.533,122.72573809523819
450.262,140.12757142857157
452.989,191.6424047619049
455.714,238.3210000000001
458.438,241.64292380952392
461.159,199.08874761904767
463.878,128.2350047619048
466.595,49.94446190476193
469.31,31.746738095238165
472.024,53.7914714285715
474.735,95.65710476190483
477.444,98.35124761904765
480.152,117.31049047619055
482.857,107.11443809523817
485.561,127.05724285714294
488.262,143.14795238095246
490.962,156.44374285714292
493.659,150.19183809523818
496.355,148.40220952380957
499.048,123.84649047619054
501.74,105.96322857142862
504.43,75.61988095238101
507.118,74.44601904761912
509.804,96.64197619047627
512.488,134.40902857142868
515.17,192.37651428571442
517.85,259.5072380952383
520.528,265.76385714285726
523.204,244.87119047619058
525.878,189.6490952380953
528.551,130.7745714285715
531.221,98.63880952380958
533.89,127.53721904761916
536.556,130.71759047619054
539.221,120.52294761904768
541.883,94.8676761904762
544.544,64.57042857142861
547.203,58.259638095238174
549.86,85.22959047619055
552.515,112.86965714285722
555.168,156.4738904761906
557.819,194.3362285714287
560.469,196.17852380952394
563.116,188.38933333333344
565.761,188.4519523809525
568.405,183.2776666666668
571.047,190.44438095238104
573.687,192.48238095238105
576.324,172.87354285714292
578.96,134.19456666666673
581.594,136.40275238095245
584.227,138.83595714285724
586.857,141.87951428571438
589.485,154.48980476190485
592.112,151.28937619047625
594.737,120.94790476190482
597.359,122.65860476190485
599.98,112.4235333333334
602.599,125.1020904761906
605.216,143.64803809523818
607.831,147.7766857142858
610.445,138.77434285714293
613.056,143.21315238095247
615.666,111.14038095238102
618.274,122.4130000000001
620.88,139.8871904761906
623.484,154.94285714285726
626.086,184.95900000000012
628.686,211.02933333333345
631.284,243.1513809523811
633.881,286.98919047619063
636.476,313.82523809523826
639.068,329.7517619047621
641.659,312.95547619047636
644.249,279.3371904761906
646.836,238.2735238095239
649.421,200.569561904762
652.005,161.3155761904763
654.587,136.173280952381
657.166,88.37558095238099
659.745,66.10733333333337
662.321,37.8390666666667
664.895,42.27934761904765
667.468,28.04120476190477
670.038,34.404273333333364
672.607,19.93381380952382
675.174,40.242689523809574
677.739,47.65789095238098
680.303,68.55399428571432
682.864,48.1151423809524
685.424,59.23975428571432
687.982,44.63577619047623
690.538,60.106476190476215
693.092,34.83602380952382
695.645,38.865809523809546
698.195,23.951688571428587
700.744,22.80190047619049
703.291,14.50581047619048
705.836,14.629009047619043
708.38,-6.786492380952376
710.921,-13.127166666666666
713.461,12.363525714285744
715.999,34.29944333333336
718.535,45.48508000000004
721.069,72.1059947619048
723.602,78.5860685714286
726.133,67.20637619047623
728.662,68.48625333333335
731.189,43.99282952380953
733.714,13.198068571428589
736.238,32.526732380952424
738.759,43.68903523809528
741.279,68.91929619047623
743.798,87.26152285714288
746.314,66.42651952380955
748.829,46.601424761904795
751.342,46.354680476190495
753.853,35.54019142857146
756.362,41.15507952380955
758.869,44.62511047619049
761.375,18.85242000000001
763.879,10.501192380952395
766.381,14.95001523809527
768.882,45.482455238095284
771.38,61.096450476190505
773.877,66.02817619047622
776.372,54.561585714285734
778.866,55.74269523809529
781.357,59.52237142857146
783.847,54.42310952380954
786.335,42.11039047619051
788.821,49.91636666666672
791.306,66.17361904761911
793.789,94.30976666666673
796.27,123.89574761904771
798.749,143.50224761904772
801.227,170.5572380952382
803.702,177.01314285714298
806.176,179.29819047619057
808.649,176.69800000000012
811.119,195.2128000000001
813.588,188.74744285714294
816.055,166.9211238095239
818.521,155.3061761904763
820.984,158.5693142857144
823.446,161.66346190476202
825.906,164.35120000000006
828.365,129.53837142857148
830.821,100.60669523809531
833.276,102.60499047619055
835.729,110.15344761904768
838.181,114.11020952380959
840.631,127.85760000000008
843.079,115.15914761904769
845.525,109.15891428571435
847.97,114.76349047619054
850.412,105.49840476190482
852.854,83.41293333333338
855.293,72.60417142857145
857.731,39.1217285714286
860.167,42.68168571428576
862.601,54.429214285714316
865.034,67.4140428571429
867.465,73.97172857142861
869.894,78.9617590476191
872.321,57.005570952380985
874.747,46.867480000000015
877.171,40.02628142857147
879.594,44.9607371428572
882.014,83.76859476190484
884.433,112.64314952380957
886.851,121.58737142857149
889.266,120.08002380952388
891.68,133.98124761904768
894.092,138.2939476190477
896.503,176.73520952380963
898.912,177.68895238095246
901.319,177.72990476190486
903.724,172.95614285714296
906.128,160.56109523809533
908.53,166.97676190476201
910.931,179.39666666666673
913.329,166.10942857142865
915.726,140.26142857142864
918.122,121.14157142857151
920.516,105.18119047619055
922.908,125.43134285714294
925.298,115.79983333333338
927.687,98.67067619047624
930.074,88.85660476190482
932.459,76.313280952381
934.843,79.09128095238101
937.225,115.95553809523815
939.605,100.2902428571429
941.984,84.0031752380953
944.361,60.4305061904762
946.736,32.099126666666706
949.11,29.916641428571474
951.482,59.93344571428575
953.853,66.81918238095243
956.222,80.76705619047623
958.589,65.11305238095241
960.954,73.43146666666672
963.318,83.96281428571434
965.68,103.90006190476197
968.041,109.8647571428572
970.4,103.85926666666671
972.757,81.21926952380956
975.113,59.85196885714287
977.467,28.806975761904773
979.819,6.514951523809524
982.17,-6.593508619047614
984.519,-6.32601419047617
986.866,29.79533004761909
989.212,49.105761238095276
991.556,80.32101428571434
993.899,101.30004761904767
996.24,127.99642857142867
998.579,140.8878095238096
1000.92,164.1177333333334
1003.25,154.11621428571436
1005.59,114.83642380952385
1007.92,83.89836666666672
1010.25,73.44556666666672
1012.58,62.621609523809575
1014.91,67.99799047619052
1017.24,86.09925238095242
1019.56,79.11594761904769
1021.88,93.85742380952388
1024.2,109.37137619047627
1026.52,121.89588571428581
1028.84,157.90657142857154
1031.16,185.2607142857144
1033.48,192.57690476190487
1035.79,208.66357142857154
1038.1,213.99657142857154
1040.41,242.4323333333335
1042.72,280.6837619047621
1045.03,273.0362380952382
1047.33,251.6314285714287
1049.64,235.46790476190486
1051.94,214.49723809523823
1054.24,219.14661904761917
1056.54,214.84314285714294
1058.84,183.63304761904772
1061.13,175.37161904761916
1063.43,181.29561904761917
1065.72,197.21295238095252
1068.01,206.88376190476205
1070.3,207.25866666666678
1072.59,198.7643809523811
1074.87,211.97019047619065
1077.16,232.30300000000017
1079.44,262.6654285714287
1081.72,285.43633333333355
1084.0,311.6137619047621
1086.28,379.00500000000034
1088.56,491.4171428571433
1090.84,619.3720952380957
1093.11,720.867285714286
1095.38,756.0435714285718
1097.65,696.7078571428575
1099.92,566.5720000000002
1102.19,453.2527619047621
1104.46,389.604904761905
1106.72,390.2925714285717
1108.98,432.1230952380955
1111.24,491.665047619048
1113.5,522.7733809523812
1115.76,564.0646190476194
1118.02,592.8217619047623
1120.28,613.5184761904766
1122.53,588.5809523809526
1124.78,543.1970476190479
1127.03,476.26914285714304
1129.28,385.69947619047633
1131.53,309.1043809523811
1133.77,256.4337142857144
1136.02,222.30423809523825
1138.26,209.1419047619049
1140.5,233.84942857142872
1142.74,239.4244285714287
1144.98,265.864142857143
1147.22,279.83280952380966
1149.45,279.47104761904774
1151.69,235.8239523809525
1153.92,225.17504761904772
1156.15,190.23661904761914
1158.38,196.81571428571442
1160.61,188.48185714285725
1162.83,171.99485714285723
1165.06,124.63823809523818
1167.28,114.55263809523817
1169.5,86.49824285714291
1171.72,89.853880952381
1173.94,104.09414761904769
1176.16,102.88382380952386
1178.37,91.84022857142863
1180.58,80.05686666666669
1182.8,57.10362380952384
1185.01,37.69325428571432
1187.22,31.77663523809525
1189.42,12.257203809523821
1191.63,17.181283809523833
1193.84,27.07141809523813
1196.04,52.640825714285754
1198.24,72.36463047619051
1200.44,75.33718571428574
1202.64,80.65293238095241
1204.84,65.93026571428574
1207.03,56.073406666666706
1209.23,47.60580714285715
1211.42,18.622453333333336
1213.61,3.599497619047633
1215.8,21.298906666666674
1217.99,9.24479666666668
1220.18,16.770965714285726
1222.36,18.544742857142865
1224.55,25.947885714285754
1226.73,41.41000952380957
1228.91,77.21797619047624
1231.09,76.80173333333336
1233.27,52.686580952380965
1235.44,34.06467142857146
1237.62,42.937771428571466
1239.79,44.21254285714291
1241.96,87.79585238095244
1244.13,107.54696190476196
1246.3,127.89673809523819
1248.47,151.46654285714294
1250.64,168.6872380952382
1252.8,179.51414285714299
1254.96,217.5210952380954
1257.13,240.33009523809542
1259.29,292.9440000000002
1261.44,308.98471428571446
1263.6,325.88376190476214
1265.76,305.739761904762
1267.91,279.5080476190478
1270.06,264.81095238095253
1272.22,259.0803809523811
1274.37,225.7480952380954
1276.51,222.43676190476205
1278.66,196.24485714285728
1280.81,187.0809047619049
1282.95,185.75780952380964
1285.09,164.04138095238102
1287.23,150.45885714285725
1289.37,150.20438095238106
1291.51,161.56742857142868
1293.65,163.31371428571435
1295.78,143.7801904761905
1297.92,121.73238095238104
1300.05,126.55509523809532
1302.18,124.01397619047626
1304.31,120.06528571428579
1306.44,120.04645238095245
1308.57,136.0085238095239
1310.69,149.43159523809533
1312.82,164.93823809523818
1314.94,167.81823809523817
1317.06,175.8846190476192
1319.18,200.33157142857158
1321.3,262.8768571428573
1323.41,293.0483809523811
1325.53,309.03980952380977
1327.64,320.33147619047634
1329.75,332.9264285714288
1331.87,341.4471904761907
1333.98,356.7067142857145
1336.08,342.4702380952383
1338.19,318.7888571428573
1340.3,281.14219047619065
1342.4,264.77109523809537
1344.5,243.58352380952394
1346.6,213.05871428571436
1348.7,163.5804428571429
1350.8,115.29460952380958
1352.9,74.53738571428579
1354.99,94.16858095238102
1357.09,110.14281904761911
1359.18,105.98661428571434
1361.27,109.74983333333341
1363.36,114.05375714285722
1365.45,121.32946190476201
1367.54,141.578861904762
1369.62,158.4226476190477
1371.7,159.52952380952394
1373.79,194.13904761904777
1375.87,231.01452380952395
1377.95,264.6340952380954
1380.03,256.95104761904776
1382.1,237.06157142857157
1384.18,204.82414285714296
1386.25,175.00109523809533
1388.33,142.59309523809532
1390.4,136.07703142857147
1392.47,91.9769147619048
1394.54,68.91192476190481
1396.6,56.97744714285718
1398.67,54.12545333333337
1400.74,57.06997190476195
1402.8,71.19128380952384
1404.86,60.869633333333375
1406.92,67.96120952380956
1408.98,55.0839666666667
1411.04,56.998395238095284
1413.09,66.70306190476195
1415.15,79.1486333333334
1417.2,88.19034761904769
1419.25,114.15923809523815
1421.3,114.33890952380958
1423.35,103.96488571428574
1425.4,91.27271428571433
1427.45,84.21194285714289
1429.49,61.01766190476195
1431.54,56.877109523809565
1433.58,70.54892380952387
1435.62,82.45840476190483
1437.66,105.31654285714292
1439.7,123.26228095238103
1441.74,129.48242857142864
1443.77,122.63979047619054
1445.81,115.25424285714291
1447.84,108.79815238095243
1449.87,102.79141428571435
1451.9,92.99130952380959
1453.93,100.58431904761912
1455.96,105.89925238095246
1457.98,131.59869523809533
1460.01,164.67839523809536
1462.03,196.41951428571443
1464.05,198.38914285714296
1466.07,222.01142857142875
1468.09,246.56757142857163
1470.11,311.2914761904764
1472.13,375.3690952380955
1474.14,418.17700000000025
1476.16,399.37738095238115
1478.17,369.2992857142859
1480.18,303.8909523809525
1482.19,263.81471428571444
1484.2,227.44733333333346
1486.21,191.0703476190477
1488.21,140.5366333333334
1490.22,113.9851952380953
1492.22,102.03153809523818
1494.22,110.33824285714292
1496.22,116.85417619047624
1498.22,97.05174761904765
1500.22,73.64185714285719
1502.22,65.04960000000004
1504.21,46.60545238095239
1506.21,28.163266666666686
1508.2,22.577333333333346
1510.19,19.749642857142888
1512.18,32.15381428571431
1514.17,56.12074761904764
1516.16,42.12439047619049
1518.14,30.305500000000016
1520.13,31.090765714285734
1522.11,24.002220476190494
1524.09,26.657350476190505
1526.07,38.48333190476191
1528.05,34.47892666666669
1530.03,30.738235714285736
1532.01,20.403211904761907
1533.98,21.52068761904765
1535.96,37.28048714285717
1537.93,46.92024476190481
1539.9,72.05864619047624
1541.87,80.17163428571432
1543.84,61.163947619047676
1545.81,75.94036190476197
1547.78,78.45346666666671
1549.74,97.22730000000007
1551.7,130.92907619047628
1553.67,154.51153333333343
1555.63,170.641961904762
1557.59,185.13077142857153
1559.55,170.97876190476202
1561.5,156.52019047619055
1563.46,138.0420000000001
1565.41,141.83085714285724
1567.37,148.84009523809533
1569.32,157.1665714285715
1571.27,153.3353333333334
1573.22,130.25266666666676
1575.17,126.34847619047628
1577.11,145.2910095238096
1579.06,135.1294857142858
1581.0,145.4371142857144
1582.95,145.07294285714295
1584.89,147.94344761904773
1586.83,154.76462857142866
1588.77,154.6812476190477
1590.7,148.79038095238107
1592.64,165.85580952380963
1594.58,183.6415000000001
1596.51,185.91135714285724
1598.44,158.66738095238105
