Raman Shift,Processed Intensity
331.095,29.624321428571253
333.909,0.2882714285712993
336.721,3.339485714285619
339.531,23.39841428571431
342.339,29.1566285714286
345.145,51.82990952380956
347.949,75.42096666666667
350.751,39.64768095238096
353.55,3.7051571428571215
356.348,-32.639000000000024
359.144,-47.568671428571406
361.937,12.305376190476267
364.729,88.89678095238105
367.518,133.74005714285724
370.306,199.27520000000015
373.091,257.8962857142859
375.874,327.9981428571431
378.656,390.78670476190496
381.435,355.84982476190487
384.212,222.7771914285715
386.988,124.87352476190478
389.761,38.58823619047622
392.532,-7.199771428571409
395.301,6.961126666666682
398.068,11.429004761904757
400.833,-3.151079999999993
403.596,-10.180330476190488
406.358,2.4176780952380916
409.117,-20.94586142857144
411.874,-22.95361976190476
414.629,-10.905912857142855
417.382,12.565042142857171
420.133,24.35211571428576
422.882,73.96846500000005
425.629,94.40504238095247
428.374,137.17730476190488
431.117,232.56408095238112
433.858,299.3689333333334
436.597,322.15847619047634
439.334,276.88138095238105
442.069,216.86833333333348
444.802,163.49795238095248
447.533,158.53114285714298
450.262,166.20557142857155
452.989,221.47414285714302
455.714,260.2908857142859
458.438,264.4194333333335
461.159,227.24305714285725
463.878,178.52709047619055
466.595,131.60858095238106
469.31,129.3013857142858
472.024,141.9914333333334
474.735,120.4457047619048
477.444,98.1461333333334
480.152,104.19421904761913
482.857,113.92986666666677
485.561,153.12202857142867
488.262,176.49196666666677
490.962,178.76141904761914
493.659,157.84300000000007
496.355,132.83971428571434
499.048,123.52185714285724
501.74,140.23119047619056
504.43,150.21409523809535
507.118,169.19357142857154
509.804,205.32114285714297
512.488,216.9387142857144
515.17,232.53114285714298
517.85,225.82185714285723
520.528,201.48595238095248
523.204,183.72319047619055
525.878,166.54221904761914
528.551,134.52307142857148
531.221,116.15042380952387
533.89,95.90931142857147
536.556,58.71245666666669
539.221,47.66390380952385
541.883,52.91422428571434
544.544,78.28114666666674
547.203,120.01068047619054
549.86,136.20561142857147
552.515,131.30198095238103
555.168,141.11660476190485
557.819,136.79907619047628
560.469,136.16591904761916
563.116,175.93794285714296
565.761,164.5023333333334
568.405,198.81752380952398
571.047,223.84157142857157
573.687,237.3890666666668
576.324,192.5604714285715
578.96,164.59832380952386
581.594,119.79319523809532
584.227,111.2918476190477
586.857,109.28847142857151
589.485,146.1674952380953
592.112,138.55095238095248
594.737,148.53645714285727
597.359,155.12690952380962
599.98,135.4667238095239
602.599,127.22423333333342
605.216,136.21062857142866
607.831,147.759861904762
610.445,155.6344571428572
613.056,157.12038095238103
615.666,143.16976190476197
618.274,128.2582380952382
620.88,144.52785714285727
623.484,157.4060000000001
626.086,160.7007142857144
628.686,181.88647619047632
631.284,197.05638095238106
633.881,201.20804761904776
636.476,237.7668571428573
639.068,229.1584761904763
641.659,235.33189523809534
644.249,203.9502047619048
646.836,154.00943333333342
649.421,123.2673371428572
652.005,91.86217666666668
654.587,42.170618571428605
657.166,24.235456190476192
659.745,14.003965238095256
662.321,3.994822857142882
664.895,24.631128095238118
667.468,19.002809047619063
670.038,51.24707142857147
672.607,50.83443619047622
675.174,63.80669904761908
677.739,71.8722704761905
680.303,59.16805428571431
682.864,46.021391428571484
685.424,70.42618190476193
687.982,74.18588571428576
690.538,66.91343809523812
693.092,61.36468571428573
695.645,39.10499523809526
698.195,30.414095238095257
700.744,29.90508571428574
703.291,30.714938095238097
705.836,8.79029523809524
708.38,10.5064761904762
710.921,-8.618209523809528
713.461,13.791657142857185
715.999,42.63587619047622
718.535,45.52843809523813
721.069,66.41704761904768
723.602,101.4874047619048
726.133,82.44929047619053
728.662,96.86973809523815
731.189,94.64950476190481
733.714,67.54647619047626
736.238,76.84280952380958
738.759,96.53448571428575
741.279,77.23729047619054
743.798,94.42420000000007
746.314,98.94909047619053
748.829,82.76142857142864
751.342,106.1916333333334
753.853,130.37974190476197
756.362,96.0853252380953
758.869,83.8297504761905
761.375,66.42037476190481
763.879,51.75986476190482
766.381,61.13189190476196
768.882,101.1538133333334
771.38,85.15741428571431
773.877,87.99816190476197
776.372,93.86546190476196
778.866,88.37715238095244
781.357,88.62721904761912
783.847,101.75772380952385
786.335,91.19675238095245
788.821,116.3240476190477
791.306,125.2822095238096
793.789,148.88054285714298
796.27,180.3089714285715
798.749,159.1390000000001
801.227,159.98980952380964
803.702,154.76576190476197
806.176,158.27676190476203
808.649,182.6184761904763
811.119,197.17214285714294
813.588,186.0812380952382
816.055,194.91809523809536
818.521,177.49285714285722
820.984,151.09219047619055
823.446,142.8600000000001
825.906,141.84461904761915
828.365,141.3805238095239
830.821,153.5167142857144
833.276,158.82614285714294
835.729,136.64352380952388
838.181,135.63723809523816
840.631,144.37985714285725
843.079,139.1112952380953
845.525,109.4523666666667
847.97,89.3099428571429
850.412,59.923857142857166
852.854,48.24854000000005
855.293,45.09544476190478
857.731,49.22875619047622
860.167,36.03162190476193
862.601,44.93488476190479
865.034,37.17894476190478
867.465,47.24239714285717
869.894,38.55623809523813
872.321,67.74213238095243
874.747,65.18350142857146
877.171,56.6448266666667
879.594,66.98601761904769
882.014,98.01933619047627
884.433,118.41397285714295
886.851,134.22053238095245
889.266,127.15591428571436
891.68,111.12802857142864
894.092,103.23498095238104
896.503,134.9083238095239
898.912,140.96026190476198
901.319,130.10825714285724
903.724,141.40278571428578
906.128,154.0850380952382
908.53,155.44371904761914
910.931,176.00579047619055
913.329,168.25038095238105
915.726,149.7042857142858
918.122,133.60859047619056
920.516,123.63306666666674
922.908,112.6380428571429
925.298,97.19801428571435
927.687,85.83971904761908
930.074,81.47069047619053
932.459,71.76059523809529
934.843,89.95054761904768
937.225,103.8054190476191
939.605,95.89952857142862
941.984,90.09289047619053
944.361,83.34070952380956
946.736,64.50288571428577
949.11,74.43923809523815
951.482,71.24775714285718
953.853,75.07399523809529
956.222,71.73001904761908
958.589,63.932666666666705
960.954,42.63680476190477
963.318,48.41614761904766
965.68,42.41605238095242
968.041,69.06746285714289
970.4,64.18204761904764
972.757,48.80959619047619
975.113,4.9045328571428675
977.467,15.040112380952403
979.819,14.075572857142879
982.17,32.631728571428596
984.519,26.90075380952382
986.866,43.78918571428575
989.212,50.39367142857148
991.556,71.81088571428576
993.899,69.8517285714286
996.24,57.94602380952382
998.579,30.428233333333363
1000.92,36.9186285714286
1003.25,44.84657142857146
1005.59,39.45104666666667
1007.92,22.113780000000006
1010.25,13.359274285714298
1012.58,7.188067619047629
1014.91,15.791140952380974
1017.24,23.21643714285716
1019.56,40.03581809523814
1021.88,64.4875952380953
1024.2,91.66672857142865
1026.52,128.71623809523817
1028.84,149.4932952380953
1031.16,129.99747619047625
1033.48,133.03819047619055
1035.79,157.90080952380964
1038.1,178.0606666666668
1040.41,220.6129047619049
1042.72,237.0330476190477
1045.03,236.17723809523824
1047.33,235.6162380952382
1049.64,219.72995238095245
1051.94,196.4220476190477
1054.24,167.16800000000012
1056.54,145.58566666666675
1058.84,136.4835238095239
1061.13,160.24128571428582
1063.43,166.8572857142858
1065.72,198.80633333333344
1068.01,202.65861904761914
1070.3,193.17447619047627
1072.59,172.1620000000001
1074.87,167.00047619047632
1077.16,182.64052380952396
1079.44,234.9374761904764
1081.72,281.69914285714304
1084.0,325.8762857142859
1086.28,363.561904761905
1088.56,441.32576190476226
1090.84,566.023047619048
1093.11,666.1752380952385
1095.38,701.4471428571431
1097.65,642.3607619047622
1099.92,518.3897619047622
1102.19,433.4371428571431
1104.46,375.214904761905
1106.72,372.81566666666697
1108.98,384.4280000000002
1111.24,405.28771428571457
1113.5,453.3924285714289
1115.76,499.83509523809556
1118.02,534.0419523809528
1120.28,558.1533333333336
1122.53,544.7386666666669
1124.78,511.4620476190479
1127.03,456.84514285714306
1129.28,383.74219047619073
1131.53,338.05604761904783
1133.77,270.7838571428573
1136.02,227.78071428571445
1138.26,213.37738095238103
1140.5,195.61909523809538
1142.74,201.07461904761917
1144.98,226.45609523809534
1147.22,229.9989047619049
1149.45,226.89166666666677
1151.69,237.41757142857153
1153.92,220.57380952380964
1156.15,187.5965238095239
1158.38,170.14985714285723
1160.61,147.0886857142858
1162.83,123.31542857142864
1165.06,117.44675714285721
1167.28,114.33733333333339
1169.5,86.46145714285721
1171.72,86.00741428571432
1173.94,62.40158095238098
1176.16,63.97500476190481
1178.37,51.10658095238099
1180.58,61.88940952380956
1182.8,50.32150476190478
1185.01,51.44845333333336
1187.22,28.125439047619068
1189.42,31.39814476190477
1191.63,14.502794285714302
1193.84,26.58044000000002
1196.04,29.867481904761924
1198.24,36.12414380952384
1200.44,48.0631666666667
1202.64,62.730738095238124
1204.84,60.506414285714314
1207.03,48.53179047619048
1209.23,27.80574761904762
1211.42,-4.196554761904753
1213.61,-1.333109523809501
1215.8,25.87157190476193
1217.99,35.035952857142874
1220.18,55.68340333333337
1222.36,48.71847095238095
1224.55,27.47442476190478
1226.73,16.284700476190487
1228.91,17.86389333333335
1231.09,20.164866666666704
1233.27,45.52161904761906
1235.44,43.26838095238099
1237.62,52.596504761904804
1239.79,79.31698095238102
1241.96,103.3836095238096
1244.13,121.75012380952387
1246.3,138.51342857142865
1248.47,152.2944761904763
1250.64,152.85714285714297
1252.8,169.25142857142868
1254.96,188.67000000000013
1257.13,215.54376190476208
1259.29,254.9703809523811
1261.44,273.47657142857156
1263.6,264.3984761904763
1265.76,230.50100000000015
1267.91,217.97738095238108
1270.06,198.73576190476203
1272.22,182.1125238095239
1274.37,165.73019047619056
1276.51,155.30614285714296
1278.66,154.89181904761915
1280.81,143.58560476190482
1282.95,135.58192380952391
1285.09,157.5986142857144
1287.23,152.0680714285715
1289.37,163.66085238095246
1291.51,159.9999142857143
1293.65,105.66044285714293
1295.78,98.26551428571435
1297.92,105.96197619047625
1300.05,113.80155714285723
1302.18,140.16929047619055
1304.31,141.25960000000006
1306.44,143.4097142857144
1308.57,155.9097142857144
1310.69,169.62095238095253
1312.82,195.11895238095246
1314.94,202.8838571428573
1317.06,211.68161904761917
1319.18,230.421142857143
1321.3,227.43990476190487
1323.41,239.55147619047634
1325.53,246.2360952380954
1327.64,286.25961904761925
1329.75,324.38790476190496
1331.87,348.52966666666686
1333.98,337.64090476190495
1336.08,324.63038095238113
1338.19,288.311142857143
1340.3,262.7822857142859
1342.4,231.57123809523821
1344.5,191.06219047619058
1346.6,157.30652380952392
1348.7,145.92676190476197
1350.8,136.30678095238102
1352.9,115.11659047619054
1354.99,115.69251428571435
1357.09,112.98974285714293
1359.18,118.5353238095239
1361.27,129.56975238095248
1363.36,122.7623714285715
1365.45,112.21099047619057
1367.54,139.63240952380963
1369.62,170.59994285714296
1371.7,208.83044761904776
1373.79,236.37297142857153
1375.87,239.9438095238097
1377.95,256.87795238095254
1380.03,264.31976190476206
1382.1,252.27023809523823
1384.18,208.68333333333342
1386.25,171.32161904761912
1388.33,147.56685714285726
1390.4,134.99110476190484
1392.47,110.40426190476197
1394.54,88.75891428571431
1396.6,50.53128571428574
1398.67,39.29252380952384
1400.74,43.6136285714286
1402.8,50.16063809523813
1404.86,49.504142857142895
1406.92,58.88113333333338
1408.98,74.90940476190482
1411.04,84.96835714285722
1413.09,103.91354761904768
1415.15,101.31443809523813
1417.2,92.50231428571436
1419.25,97.04646666666675
1421.3,112.37302857142863
1423.35,113.90799047619055
1425.4,111.36311428571433
1427.45,78.21166190476194
1429.49,57.92691428571432
1431.54,40.26785238095242
1433.58,58.27858476190481
1435.62,52.86077523809526
1437.66,59.05864095238099
1439.7,59.582986666666706
1441.74,73.71595523809529
1443.77,66.31104190476196
1445.81,95.31665619047622
1447.84,91.49112857142862
1449.87,81.97345714285719
1451.9,68.09306190476194
1453.93,76.03643809523814
1455.96,83.84711904761912
1457.98,103.6639714285715
1460.01,124.91141904761913
1462.03,140.34741904761913
1464.05,154.3964285714287
1466.07,191.29228571428587
1468.09,237.5549047619049
1470.11,266.13252380952395
1472.13,303.21138095238115
1474.14,334.0252380952383
1476.16,335.1416190476192
1478.17,331.74676190476214
1480.18,307.55133333333345
1482.19,244.26523809523823
1484.2,198.4085238095239
1486.21,152.9770571428572
1488.21,120.34824380952386
1490.22,85.32771523809525
1492.22,68.48327809523812
1494.22,35.47762285714289
1496.22,42.16451142857147
1498.22,56.016615238095284
1500.22,73.93533904761908
1502.22,51.77449047619049
1504.21,58.388001904761936
1506.21,38.20131619047621
1508.2,38.449546666666706
1510.19,51.082160000000044
1512.18,69.33433238095243
1514.17,84.96531619047626
1516.16,106.35357809523813
1518.14,88.63951428571431
1520.13,67.43984761904764
1522.11,44.9904642857143
1524.09,5.860528571428576
1526.07,14.762521428571459
1528.05,20.69470476190478
1530.03,32.13157380952385
1532.01,53.30976190476194
1533.98,63.56129523809527
1535.96,79.21839333333341
1537.93,89.04192428571433
1539.9,86.07860571428576
1541.87,78.51816142857147
1543.84,78.83599142857149
1545.81,91.79370523809533
1547.78,128.53370761904768
1549.74,136.29375238095244
1551.7,144.78818095238103
1553.67,141.63576190476198
1555.63,138.50323809523817
1557.59,146.96233333333342
1559.55,147.29890476190485
1561.5,158.60838095238108
1563.46,159.65347619047628
1565.41,149.95819047619057
1567.37,144.95200000000008
1569.32,143.20685714285722
1571.27,146.00942857142866
1573.22,156.40795238095248
1575.17,170.0228095238096
1577.11,160.5213333333334
1579.06,152.61928571428578
1581.0,144.7935714285715
1582.95,154.71242857142866
1584.89,170.94866666666678
1586.83,184.69419047619058
1588.77,164.52142857142866
1590.7,133.71819047619056
1592.64,120.1425238095239
1594.58,126.86783333333332
1596.51,141.25290476190474
1598.44,157.29940476190495
