Raman Shift,Processed Intensity
331.095,103.3625952380951
333.909,62.50826428571429
336.721,48.27505000000007
339.531,49.11865238095242
342.339,42.58984761904764
345.145,43.76344761904765
347.949,45.072033333333366
350.751,78.80559047619053
353.55,77.87402857142861
356.348,70.6162142857143
359.144,61.13369047619051
361.937,43.62355714285718
364.729,65.28397142857153
367.518,104.02767142857151
370.306,169.48294285714303
373.091,263.8024761904764
375.874,376.85461904761934
378.656,413.6987142857144
381.435,388.7285038095239
384.212,243.62425380952385
386.988,109.3531766666667
389.761,23.78832714285717
392.532,-10.529023238095228
395.301,-8.342220142857133
398.068,-6.679217904761924
400.833,-26.75702176190478
403.596,-31.505486000000012
406.358,-25.948283476190493
409.117,-33.77424752380953
411.874,-26.718357142857155
414.629,-1.609304761904756
417.382,-16.893400000000003
420.133,-1.7297857142856916
422.882,23.676423809523843
425.629,58.50238095238103
428.374,122.64079523809536
431.117,223.36658571428586
433.858,272.71806666666686
436.597,291.06833333333344
439.334,268.64866666666677
442.069,222.78647619047626
444.802,170.85795238095247
447.533,161.9546666666668
450.262,200.64528571428585
452.989,244.6900952380954
455.714,300.3262571428573
458.438,280.60135714285724
461.159,191.9924714285715
463.878,117.97730000000004
466.595,86.36755714285724
469.31,85.73767142857155
472.024,154.23391904761914
474.735,156.00344761904768
477.444,133.19388571428578
480.152,116.09591428571434
482.857,126.71555238095247
485.561,129.86851428571438
488.262,148.0374190476191
490.962,139.75295238095248
493.659,143.07014285714294
496.355,150.47301904761915
499.048,147.44559047619055
501.74,134.85332380952389
504.43,102.13283809523816
507.118,114.00684761904775
509.804,155.34135238095251
512.488,208.57416190476204
515.17,238.4756190476192
517.85,244.00757142857157
520.528,215.511761904762
523.204,215.80709523809537
525.878,208.80728571428583
528.551,186.09280952380965
531.221,176.2915238095239
533.89,151.60300000000007
536.556,129.22642857142864
539.221,129.21804761904772
541.883,125.443380952381
544.544,117.86309523809533
547.203,118.10457142857148
549.86,114.50900000000006
552.515,116.65571428571437
555.168,139.07590476190487
557.819,153.91966666666679
560.469,180.24185714285727
563.116,212.7636666666668
565.761,221.3961904761906
568.405,228.14566666666676
571.047,217.49433333333343
573.687,208.82814285714298
576.324,190.48614285714294
578.96,174.7589047619049
581.594,171.651142857143
584.227,174.16676190476204
586.857,172.50052380952394
589.485,197.4172857142858
592.112,186.92095238095249
594.737,168.0614761904763
597.359,166.460761904762
599.98,154.7394761904763
602.599,133.18542857142864
605.216,118.18042857142864
607.831,95.24995238095244
610.445,114.58471428571438
613.056,142.75661904761915
615.666,152.8608095238096
618.274,160.89671428571435
620.88,148.43509523809533
623.484,126.90347619047628
626.086,153.8242380952382
628.686,185.86228571428586
631.284,196.6346190476192
633.881,257.75795238095253
636.476,294.23004761904775
639.068,269.28552380952397
641.659,253.7310000000001
644.249,203.89619047619055
646.836,155.72952380952393
649.421,133.70347619047627
652.005,130.6236095238096
654.587,103.10427619047624
657.166,102.85552380952386
659.745,85.53911428571435
662.321,81.95968095238099
664.895,78.73143333333338
667.468,53.897095238095254
670.038,51.07037619047624
672.607,50.198595238095265
675.174,41.13362380952384
677.739,53.25118095238099
680.303,73.16510952380955
682.864,44.584438095238134
685.424,67.02783714285718
687.982,63.06151333333335
690.538,40.156504761904785
693.092,31.35534571428572
695.645,8.653060952380942
698.195,-20.383865238095225
700.744,2.2874828571428685
703.291,6.376566666666671
705.836,14.59312000000002
708.38,33.45643523809525
710.921,28.866906666666672
713.461,7.534635714285728
715.999,28.26480476190479
718.535,29.101242857142903
721.069,71.46869523809532
723.602,115.6491095238096
726.133,101.44832380952386
728.662,89.76776666666674
731.189,101.12748571428577
733.714,102.42914285714293
736.238,105.71714285714292
738.759,105.98831428571434
741.279,81.5255333333334
743.798,95.9928095238096
746.314,114.4346714285715
748.829,110.13421428571432
751.342,98.70777619047624
753.853,89.2481571428572
756.362,92.27702380952388
758.869,108.22067619047624
761.375,100.60064761904765
763.879,73.55774761904767
766.381,65.1375666666667
768.882,63.43336666666673
771.38,87.82466190476197
773.877,107.78577142857148
776.372,99.64850952380958
778.866,80.41134285714288
781.357,74.025380952381
783.847,68.48912857142862
786.335,69.80171904761909
788.821,80.29537619047625
791.306,82.63556666666672
793.789,98.05964285714295
796.27,128.6621380952382
798.749,122.58521904761912
801.227,127.54242857142867
803.702,150.86685714285724
806.176,189.6532380952382
808.649,210.04404761904772
811.119,208.13442857142869
813.588,172.8768095238096
816.055,154.93761904761914
818.521,145.60290476190488
820.984,170.3492380952382
823.446,168.79557142857152
825.906,162.94223809523817
828.365,166.02823809523818
830.821,163.10142857142867
833.276,149.40060952380958
835.729,134.83162380952388
838.181,105.82377619047624
840.631,79.71122380952387
843.079,82.44780000000004
845.525,77.55812857142861
847.97,84.28152190476195
850.412,65.47668380952383
852.854,47.47830952380955
855.293,21.145098571428584
857.731,19.764499047619083
860.167,48.05229666666672
862.601,66.91526285714289
865.034,71.45058714285719
867.465,81.32692285714288
869.894,55.59399523809527
872.321,52.396819047619104
874.747,73.07076666666671
877.171,87.4756095238096
879.594,105.08975238095245
882.014,107.48709523809528
884.433,103.76538095238101
886.851,89.1653571428572
889.266,88.88000952380962
891.68,123.34097619047628
894.092,137.36016190476198
896.503,155.55972857142868
898.912,169.9900380952382
901.319,166.70161904761915
903.724,164.268761904762
906.128,170.59914285714294
908.53,142.98138095238102
910.931,131.18090476190483
913.329,115.00990476190483
915.726,115.70957142857151
918.122,124.61669523809532
920.516,137.63876666666673
922.908,116.30297619047623
925.298,94.70782857142859
927.687,66.28476190476192
930.074,40.56081904761908
932.459,31.015576190476224
934.843,33.17584761904765
937.225,54.14023809523815
939.605,79.1498428571429
941.984,96.82688666666672
944.361,78.98403428571429
946.736,50.33868761904763
949.11,21.27491333333335
951.482,22.891216190476218
953.853,24.904815238095267
956.222,47.08066761904766
958.589,66.23130952380959
960.954,90.50240476190481
963.318,104.4684571428572
965.68,100.03712857142861
968.041,80.97314285714289
970.4,50.66016666666669
972.757,26.624666666666688
975.113,26.011957142857167
977.467,22.443780952380962
979.819,18.636847619047632
982.17,22.545909523809527
984.519,11.411314285714298
986.866,15.616161904761936
989.212,30.353004761904792
991.556,56.814080952381005
993.899,92.14430000000006
996.24,101.3929285714286
998.579,83.03770952380955
1000.92,60.22294285714287
1003.25,32.14041904761909
1005.59,40.83876190476195
1007.92,54.08114761904764
1010.25,52.48744285714288
1012.58,50.772728571428594
1014.91,47.890023809523846
1017.24,60.36368571428576
1019.56,64.05118571428574
1021.88,53.00037619047621
1024.2,34.16371428571432
1026.52,54.303061904761975
1028.84,85.46571428571438
1031.16,152.12768571428583
1033.48,179.05013333333343
1035.79,179.89938095238105
1038.1,180.24600000000015
1040.41,192.75580952380963
1042.72,213.37990476190492
1045.03,238.87938095238107
1047.33,233.44319047619058
1049.64,203.78452380952393
1051.94,188.1873333333334
1054.24,170.84066666666678
1056.54,176.21866666666676
1058.84,147.70092857142862
1061.13,136.66642857142864
1063.43,113.49407142857152
1065.72,126.65814285714296
1068.01,150.01359523809535
1070.3,199.0342380952382
1072.59,200.00371428571444
1074.87,196.06223809523823
1077.16,186.77857142857155
1079.44,202.00776190476208
1081.72,236.3660476190478
1084.0,292.4698571428574
1086.28,370.4121428571432
1088.56,480.9993333333337
1090.84,605.1809047619051
1093.11,706.8115238095243
1095.38,755.1262857142862
1097.65,701.1696190476194
1099.92,596.5102380952384
1102.19,497.90695238095265
1104.46,415.02338095238116
1106.72,377.9997142857145
1108.98,400.83280952380983
1111.24,434.1386190476194
1113.5,478.342666666667
1115.76,543.2990952380956
1118.02,571.4808095238099
1120.28,554.7418095238098
1122.53,514.5553809523813
1124.78,465.44223809523834
1127.03,419.4472380952383
1129.28,368.75757142857157
1131.53,323.79885714285734
1133.77,261.52042857142874
1136.02,195.34804761904778
1138.26,204.1358571428573
1140.5,222.07157142857156
1142.74,232.3900476190478
1144.98,237.27942857142872
1147.22,242.8318571428573
1149.45,231.52085714285727
1151.69,259.677142857143
1153.92,257.86980952380964
1156.15,221.5245714285715
1158.38,162.8774761904763
1160.61,137.258761904762
1162.83,118.90466666666677
1165.06,134.52671428571438
1167.28,139.07571428571435
1169.5,125.26352380952387
1171.72,114.89785714285722
1173.94,116.59561904761912
1176.16,109.06943809523814
1178.37,97.55532380952386
1180.58,85.95669523809528
1182.8,79.93862857142861
1185.01,53.02358095238098
1187.22,42.06743809523812
1189.42,35.78317142857145
1191.63,19.360242857142882
1193.84,35.36912857142861
1196.04,64.04708666666669
1198.24,46.06004142857145
1200.44,52.78833238095242
1202.64,43.46956523809525
1204.84,30.912862857142887
1207.03,26.546491904761915
1209.23,37.227419047619065
1211.42,31.193687619047648
1213.61,47.731006666666694
1215.8,38.934819047619065
1217.99,44.47207142857146
1220.18,49.00965714285719
1222.36,86.35784761904767
1224.55,78.23153809523812
1226.73,66.5362285714286
1228.91,63.55870952380957
1231.09,74.25228571428578
1233.27,83.23720000000006
1235.44,97.6578904761905
1237.62,69.03962857142861
1239.79,61.431633333333394
1241.96,91.16925714285723
1244.13,148.2067761904763
1246.3,170.49852857142864
1248.47,173.18976190476198
1250.64,154.13995238095248
1252.8,153.82757142857156
1254.96,193.58857142857158
1257.13,247.80657142857154
1259.29,274.5319047619049
1261.44,292.91028571428586
1263.6,288.51623809523824
1265.76,277.7338095238097
1267.91,265.70885714285725
1270.06,228.1111904761906
1272.22,181.23014285714297
1274.37,166.92580952380962
1276.51,157.0590476190477
1278.66,161.58590476190486
1280.81,169.6048476190477
1282.95,155.7861952380953
1285.09,124.8004714285715
1287.23,126.60353809523818
1289.37,123.5803476190477
1291.51,129.8774714285715
1293.65,140.87948095238102
1295.78,131.59056190476198
1297.92,116.53845714285723
1300.05,105.10781428571435
1302.18,108.68353333333341
1304.31,112.98385238095244
1306.44,124.20291428571437
1308.57,149.67829047619057
1310.69,176.31879047619057
1312.82,177.98538095238106
1314.94,192.34880952380962
1317.06,201.12728571428585
1319.18,211.3719523809525
1321.3,242.56323809523826
1323.41,246.8475714285716
1325.53,264.41947619047636
1327.64,274.71128571428585
1329.75,300.29809523809547
1331.87,321.6599523809526
1333.98,347.4197142857145
1336.08,354.0568571428573
1338.19,338.81304761904784
1340.3,277.6915714285716
1342.4,226.0292380952382
1344.5,174.44890476190488
1346.6,159.52496190476202
1348.7,154.83220000000006
1350.8,140.94516190476202
1352.9,131.91422857142865
1354.99,136.31401904761913
1357.09,137.67106666666675
1359.18,142.79751428571436
1361.27,114.93427619047624
1363.36,100.98874285714294
1365.45,106.58214285714294
1367.54,124.14561904761915
1369.62,151.4428380952382
1371.7,176.3333523809525
1373.79,195.1047142857144
1375.87,238.71114285714302
1377.95,254.63033333333348
1380.03,258.3400952380954
1382.1,257.27030476190487
1384.18,192.99361428571436
1386.25,155.3206095238096
1388.33,131.9664142857143
1390.4,92.0745352380953
1392.47,64.97902095238098
1394.54,56.72780380952382
1396.6,28.51155378095241
1398.67,29.949405995238113
1400.74,26.13637770476192
1402.8,21.500711766666676
1404.86,24.660894847619083
1406.92,39.520925995238144
1408.98,83.69896520952388
1411.04,110.00342380952387
1413.09,114.48064761904767
1415.15,92.55775714285718
1417.2,65.13790000000002
1419.25,46.504880952381
1421.3,59.56163333333339
1423.35,78.16321904761911
1425.4,104.0217190476191
1427.45,89.13469047619051
1429.49,81.07118095238101
1431.54,81.35216190476194
1433.58,60.975033333333364
1435.62,59.317852380952424
1437.66,62.044423809523835
1439.7,60.81813333333339
1441.74,75.35040476190483
1443.77,92.68551428571432
1445.81,75.43924761904765
1447.84,73.56057619047621
1449.87,50.76035714285716
1451.9,43.320619047619076
1453.93,26.85697142857146
1455.96,49.79441428571434
1457.98,67.03393333333341
1460.01,111.38133809523819
1462.03,142.11851904761915
1464.05,176.28956190476202
1466.07,189.1764761904763
1468.09,249.82290476190494
1470.11,278.27271428571447
1472.13,297.90314285714305
1474.14,296.1865238095239
1476.16,289.0713809523811
1478.17,253.36371428571442
1480.18,247.53538095238105
1482.19,214.6308095238096
1484.2,178.74154285714297
1486.21,150.19728571428578
1488.21,116.13711904761911
1490.22,87.79586666666673
1492.22,78.59832380952383
1494.22,51.11290476190478
1496.22,36.240852380952404
1498.22,29.35992380952382
1500.22,16.22884952380954
1502.22,10.41598047619049
1504.21,23.251684761904777
1506.21,24.114069047619065
1508.2,25.524117619047637
1510.19,27.288689047619062
1512.18,30.452735714285723
1514.17,23.01378952380954
1516.16,20.874166190476206
1518.14,22.650601904761917
1520.13,28.674180952380976
1522.11,33.60946190476192
1524.09,23.263890476190483
1526.07,25.968890476190495
1528.05,21.00832857142859
1530.03,24.713823809523845
1532.01,46.41709523809526
1533.98,63.354737142857175
1535.96,42.477727619047634
1537.93,41.213336190476205
1539.9,24.36994380952383
1541.87,31.136955238095283
1543.84,51.46580857142861
1545.81,77.83184190476196
1547.78,88.85336190476197
1549.74,94.62490476190483
1551.7,99.6700476190477
1553.67,131.5595380952382
1555.63,157.10279047619056
1557.59,167.01371428571437
1559.55,163.81576190476198
1561.5,154.55666666666676
1563.46,150.09395238095246
1565.41,150.37976190476198
1567.37,146.27157142857152
1569.32,137.34100000000007
1571.27,127.6360476190477
1573.22,127.53819047619056
1575.17,123.71490476190485
1577.11,125.7855238095239
1579.06,136.32195238095247
1581.0,157.89666666666676
1582.95,162.74819047619053
1584.89,145.3061428571429
1586.83,124.5238095238096
1588.77,111.83052380952388
1590.7,119.98942857142868
1592.64,155.09694285714295
1594.58,177.36813333333316
1596.51,164.4948047619045
1598.44,93.31147380952339
