Raman Shift,Processed Intensity
331.095,92.74035952380935
333.909,5.422361904761843
336.721,-23.270280952380986
339.531,-13.380385714285692
342.339,8.33471809523813
345.145,39.16565857142857
347.949,29.070479047619056
350.751,35.67464238095241
353.55,41.22328857142859
356.348,32.72416190476193
359.144,27.661986666666678
361.937,30.855371904761938
364.729,23.98121333333339
367.518,70.81230714285724
370.306,165.31288000000018
373.091,265.40029523809545
375.874,337.75465238095256
378.656,383.05672380952393
381.435,355.2747523809525
384.212,261.7108857142858
386.988,190.90666666666672
389.761,100.16644761904762
392.532,12.271828571428593
395.301,-14.327828571428558
398.068,-4.133923809523802
400.833,1.1149914285714488
403.596,25.34839857142857
406.358,16.30659714285713
409.117,-5.697412857142866
411.874,-26.63504266666669
414.629,-34.762048857142865
417.382,-39.76149390476191
420.133,-31.07702495238093
422.882,-8.769818666666634
425.629,66.09980971428581
428.374,151.90152209523825
431.117,245.4349333333335
433.858,296.40522857142867
436.597,288.8996380952382
439.334,216.86406666666676
442.069,165.53041904761912
444.802,136.98931428571439
447.533,130.5702285714287
450.262,146.3650666666668
452.989,202.6093047619049
455.714,214.8731904761906
458.438,211.393761904762
461.159,198.79006666666672
463.878,141.72959047619054
466.595,97.21339047619054
469.31,91.052880952381
472.024,86.48887619047626
474.735,92.90493809523815
477.444,90.01855714285718
480.152,98.92928095238103
482.857,114.87895714285722
485.561,111.3011238095239
488.262,128.7725571428572
490.962,139.91743809523817
493.659,116.97971428571435
496.355,98.29894285714289
499.048,89.11898095238101
501.74,101.44644761904772
504.43,127.33581904761915
507.118,142.36523809523817
509.804,140.63705714285723
512.488,141.92009523809534
515.17,186.65004761904777
517.85,231.35771428571442
520.528,231.2885238095239
523.204,212.54539047619056
525.878,146.3735333333334
528.551,134.25635238095248
531.221,145.20103809523818
533.89,145.64309523809536
536.556,126.30372857142864
539.221,124.28546666666671
541.883,86.92808571428577
544.544,86.14323809523816
547.203,106.3182000000001
549.86,124.64982857142866
552.515,151.0013285714287
555.168,186.90254285714298
557.819,231.4546190476192
560.469,238.37719047619063
563.116,246.2944285714287
565.761,205.54480952380965
568.405,166.2282380952382
571.047,156.968142857143
573.687,160.86442857142868
576.324,189.9205523809525
578.96,186.4736000000001
581.594,186.05100952380963
584.227,179.75063809523817
586.857,189.9087238095239
589.485,157.67055238095247
592.112,167.27631428571436
594.737,136.39442857142868
597.359,139.74076190476202
599.98,148.55480952380964
602.599,162.69452380952387
605.216,177.44638095238105
607.831,197.33433333333346
610.445,200.7870476190477
613.056,185.18509523809533
615.666,153.52814285714294
618.274,122.52938095238105
620.88,132.23576190476203
623.484,150.21709523809537
626.086,183.75776190476205
628.686,213.80809523809538
631.284,233.0804761904763
633.881,235.4773809523811
636.476,252.90100000000018
639.068,262.825142857143
641.659,265.24680952380965
644.249,256.3059047619049
646.836,243.4755904761906
649.421,185.65728095238103
652.005,150.32374285714295
654.587,88.56708095238098
657.166,39.14556571428573
659.745,11.627203809523818
662.321,-2.277320952380956
664.895,-17.33335857142857
667.468,-16.925359047619054
670.038,0.9434395238095767
672.607,58.174160952381015
675.174,107.9539452380953
677.739,122.70805238095244
680.303,117.67126190476193
682.864,85.07838761904766
685.424,61.35496476190479
687.982,43.92612380952383
690.538,23.360123809523813
693.092,8.082364761904786
695.645,23.80395619047623
698.195,56.18836476190479
700.744,66.23243904761908
703.291,53.075938095238115
705.836,36.00142857142859
708.38,36.29157142857146
710.921,35.32428095238098
713.461,47.144109523809554
715.999,43.12901904761906
718.535,26.70464761904764
721.069,34.82040952380957
723.602,63.47346190476195
726.133,75.66095619047623
728.662,65.95152285714286
731.189,67.86624095238099
733.714,34.116762857142874
736.238,32.93841238095243
738.759,57.80516571428576
741.279,74.76197047619051
743.798,81.04455809523814
746.314,86.07917238095239
748.829,48.05411142857145
751.342,21.633780000000012
753.853,16.959306666666684
756.362,11.552320000000023
758.869,22.649110476190497
761.375,37.48597142857146
763.879,61.34693333333337
766.381,64.46844285714289
768.882,77.27754761904765
771.38,60.915652380952395
773.877,47.04805714285718
776.372,41.76870000000003
778.866,60.12395714285719
781.357,54.87457142857147
783.847,80.30538571428576
786.335,73.89141904761908
788.821,52.86979523809527
791.306,50.57323333333339
793.789,68.71494761904768
796.27,91.53267142857152
798.749,140.35898571428578
801.227,161.57425714285722
803.702,158.1302857142858
806.176,170.21747619047628
808.649,161.50204761904772
811.119,148.84085714285723
813.588,141.1382380952382
816.055,135.87052380952392
818.521,151.08519047619058
820.984,164.40147619047627
823.446,180.05742857142866
825.906,156.14821428571437
828.365,137.53147619047627
830.821,114.2549571428572
833.276,102.08090476190482
835.729,81.48589047619053
838.181,74.85113333333338
840.631,61.46300000000006
843.079,75.65547619047625
845.525,87.19104761904768
847.97,96.83232380952384
850.412,76.43721904761907
852.854,58.29220000000004
855.293,56.779014285714325
857.731,54.327057142857186
860.167,62.080295238095275
862.601,55.46827142857145
865.034,56.68248571428576
867.465,67.58120952380956
869.894,77.4037285714286
872.321,69.38932380952383
874.747,56.920266666666684
877.171,45.99776666666672
879.594,73.90910476190483
882.014,107.51253333333342
884.433,128.80967619047627
886.851,142.46867619047626
889.266,151.39580952380965
891.68,171.25938095238106
894.092,169.68023809523817
896.503,173.70723809523818
898.912,152.81842857142865
901.319,136.3964761904763
903.724,159.15761904761916
906.128,173.2465714285715
908.53,162.04614285714297
910.931,161.6537142857144
913.329,141.45171428571436
915.726,122.82332380952388
918.122,120.6276571428572
920.516,113.91407619047628
922.908,101.35153333333339
925.298,96.56155238095245
927.687,110.45070476190484
930.074,122.11656190476198
932.459,124.18004761904771
934.843,138.8340000000001
937.225,145.27140000000009
939.605,119.82785238095245
941.984,128.79138285714293
944.361,97.02132571428577
946.736,66.28187523809528
949.11,55.242331428571475
951.482,63.857522857142904
953.853,84.8916676190477
956.222,88.20437714285717
958.589,95.6555314285715
960.954,104.67602952380959
963.318,105.64935047619055
965.68,120.29218000000007
968.041,121.22635142857145
970.4,69.21637619047624
972.757,66.69365714285718
975.113,61.660595238095276
977.467,32.50080000000002
979.819,35.835804761904775
982.17,21.38275714285716
984.519,17.572842857142888
986.866,22.504023809523837
989.212,47.5121666666667
991.556,58.55256666666673
993.899,89.67528095238102
996.24,130.07346190476198
998.579,147.89253333333338
1000.92,133.46830476190482
1003.25,101.51730000000002
1005.59,62.9467666666667
1007.92,43.806309523809574
1010.25,61.669414285714346
1012.58,69.34745238095242
1014.91,88.46119047619052
1017.24,75.3454666666667
1019.56,54.95405238095242
1021.88,57.95489523809528
1024.2,63.87274761904766
1026.52,64.8036952380953
1028.84,90.36728571428577
1031.16,124.2308857142858
1033.48,131.25174285714294
1035.79,146.66797142857152
1038.1,168.67004761904775
1040.41,200.87700000000015
1042.72,258.1928095238097
1045.03,287.52190476190486
1047.33,264.24461904761915
1049.64,231.40738095238106
1051.94,189.81904761904772
1054.24,186.47852380952395
1056.54,197.6702857142858
1058.84,181.86880952380966
1061.13,178.97780952380964
1063.43,174.37609523809536
1065.72,172.53857142857157
1068.01,211.12980952380966
1070.3,233.67200000000014
1072.59,249.97204761904774
1074.87,245.07576190476206
1077.16,244.21904761904779
1079.44,251.44714285714304
1081.72,278.6148095238097
1084.0,326.2911428571431
1086.28,408.9017619047622
1088.56,508.58738095238135
1090.84,647.1073333333338
1093.11,738.5535714285719
1095.38,736.2093333333337
1097.65,675.9288571428574
1099.92,575.1378095238098
1102.19,470.26209523809547
1104.46,434.0130476190478
1106.72,415.86371428571454
1108.98,410.8586190476193
1111.24,433.18519047619077
1113.5,455.79280952380975
1115.76,487.6309047619051
1118.02,528.2680952380955
1120.28,554.653666666667
1122.53,551.5462380952383
1124.78,535.1808571428575
1127.03,468.3637142857145
1129.28,408.5207142857145
1131.53,344.1728095238097
1133.77,283.26933333333346
1136.02,223.75985714285727
1138.26,215.97452380952393
1140.5,194.67252380952397
1142.74,205.23195238095252
1144.98,232.2690952380954
1147.22,264.304904761905
1149.45,271.6228095238097
1151.69,264.4103333333335
1153.92,246.7604285714287
1156.15,201.14685714285724
1158.38,166.99557142857154
1160.61,163.73298095238104
1162.83,137.54757619047626
1165.06,107.00846190476196
1167.28,75.44692380952382
1169.5,58.52787142857147
1171.72,55.77305238095243
1173.94,74.08568095238101
1176.16,89.60703809523814
1178.37,85.8118645714286
1180.58,44.0797483809524
1182.8,42.83799580952383
1185.01,31.37128733333335
1187.22,16.250080571428576
1189.42,12.330756476190476
1191.63,12.23169323809524
1193.84,-5.000001571428555
1196.04,17.873416857142885
1198.24,36.66131204761906
1200.44,32.506479714285724
1202.64,33.50429319047621
1204.84,29.79786485714286
1207.03,21.292359047619065
1209.23,12.369270476190477
1211.42,15.076908571428584
1213.61,12.511315714285725
1215.8,4.5306271428571545
1217.99,21.80245000000004
1220.18,50.23285285714288
1222.36,65.91839666666672
1224.55,78.14621476190479
1226.73,72.25116285714287
1228.91,40.75869523809528
1231.09,58.24170476190483
1233.27,77.08314761904768
1235.44,106.95175714285722
1237.62,114.80179047619053
1239.79,115.3018952380953
1241.96,96.12100952380959
1244.13,96.11833333333341
1246.3,107.34394285714293
1248.47,136.41950476190485
1250.64,137.10905238095245
1252.8,155.2724095238096
1254.96,180.48352380952392
1257.13,203.07823809523825
1259.29,224.48804761904776
1261.44,230.76342857142868
1263.6,220.04985714285726
1265.76,214.6359523809525
1267.91,221.04838095238108
1270.06,222.76633333333345
1272.22,216.31666666666678
1274.37,197.5597142857144
1276.51,199.0221904761906
1278.66,178.80235238095247
1280.81,143.1890428571429
1282.95,124.99494285714293
1285.09,117.98500476190483
1287.23,123.11518095238107
1289.37,136.91232857142865
1291.51,140.85582857142862
1293.65,125.6633333333334
1295.78,133.0044000000001
1297.92,118.26335238095243
1300.05,126.58640000000008
1302.18,115.45293809523815
1304.31,96.00897619047625
1306.44,98.68663333333342
1308.57,126.29824285714295
1310.69,142.13290952380964
1312.82,171.14610000000013
1314.94,203.1029523809525
1317.06,193.81604761904774
1319.18,203.66933333333347
1321.3,210.18980952380969
1323.41,220.33300000000014
1325.53,240.2448095238097
1327.64,269.9758095238097
1329.75,284.05276190476206
1331.87,302.3829523809526
1333.98,309.3980000000002
1336.08,312.4340476190478
1338.19,309.01785714285734
1340.3,288.15176190476205
1342.4,267.8386190476192
1344.5,227.27138095238107
1346.6,198.83353333333343
1348.7,162.8130476190477
1350.8,124.87910000000007
1352.9,94.50975238095243
1354.99,84.802880952381
1357.09,75.04619047619053
1359.18,100.09893809523817
1361.27,102.15334761904768
1363.36,114.11600000000008
1365.45,118.60761428571439
1367.54,154.3921904761906
1369.62,179.56627142857155
1371.7,224.5600571428573
1373.79,229.7558571428573
1375.87,242.82114285714303
1377.95,241.51904761904777
1380.03,241.8506666666668
1382.1,221.8646666666668
1384.18,207.18076190476202
1386.25,190.32366666666678
1388.33,173.19828571428582
1390.4,161.56721904761912
1392.47,138.28764761904768
1394.54,103.7408190476191
1396.6,57.68843809523812
1398.67,42.79715238095241
1400.74,39.542780952380994
1402.8,67.7821190476191
1404.86,75.75259523809528
1406.92,76.78683809523814
1408.98,68.74091904761909
1411.04,80.5664952380953
1413.09,87.9288952380953
1415.15,91.30299523809528
1417.2,88.40169047619051
1419.25,69.12811428571432
1421.3,61.81375714285719
1423.35,67.93330000000005
1425.4,66.19884761904765
1427.45,58.560785714285764
1429.49,88.0644571428572
1431.54,91.61242380952386
1433.58,80.01182857142861
1435.62,66.16489523809527
1437.66,68.06900000000005
1439.7,65.29281904761909
1441.74,74.07150000000004
1443.77,80.78320476190478
1445.81,50.710619047619055
1447.84,40.08873333333338
1449.87,53.104795238095264
1451.9,56.61270952380957
1453.93,75.46610476190483
1455.96,101.13787619047625
1457.98,93.24355714285721
1460.01,105.97020476190482
1462.03,120.31399047619057
1464.05,155.1284000000001
1466.07,198.88579047619058
1468.09,239.15403809523823
1470.11,269.7387619047621
1472.13,295.1602857142859
1474.14,325.08119047619067
1476.16,351.30719047619067
1478.17,329.40595238095256
1480.18,300.4688095238097
1482.19,251.7776666666668
1484.2,205.51952380952395
1486.21,177.83338095238105
1488.21,132.8585238095239
1490.22,105.73423809523817
1492.22,104.98040000000005
1494.22,86.64119047619052
1496.22,84.23693333333338
1498.22,76.52609523809525
1500.22,41.029257142857176
1502.22,44.886109523809566
1504.21,58.998100000000036
1506.21,61.40991590476193
1508.2,53.68998090476192
1510.19,42.83549514285715
1512.18,16.27232052380953
1514.17,-3.2877953333333307
1516.16,4.533623761904783
1518.14,16.353368285714303
1520.13,34.7407047619048
1522.11,47.97930000000004
1524.09,68.30545714285718
1526.07,60.95554761904766
1528.05,75.83273333333338
1530.03,69.84040952380956
1532.01,67.1677666666667
1533.98,42.43265714285717
1535.96,49.49125238095242
1537.93,43.199742857142894
1539.9,57.89072857142861
1541.87,55.18260952380955
1543.84,53.122519047619086
1545.81,71.42422857142863
1547.78,96.46857619047627
1549.74,107.11228571428578
1551.7,125.87940476190484
1553.67,133.05535238095246
1555.63,129.3072857142858
1557.59,159.96866666666676
1559.55,198.1349523809525
1561.5,211.3302380952382
1563.46,200.22214285714296
1565.41,168.38238095238103
1567.37,126.09752380952389
1569.32,110.2730000000001
1571.27,123.95728571428579
1573.22,139.2942857142858
1575.17,147.856761904762
1577.11,147.02642857142865
1579.06,144.7090000000001
1581.0,152.9535142857144
1582.95,133.5709428571429
1584.89,117.27698095238101
1586.83,116.31115238095246
1588.77,120.9604095238096
1590.7,128.22627619047628
1592.64,158.91994285714293
1594.58,162.1144904761905
1596.51,164.28789047619068
1598.44,172.77520952381008
