Raman Shift,Processed Intensity
331.095,4.827405238095039
333.909,-20.324791904761856
336.721,-17.444886190476097
339.531,-1.0881409523809378
342.339,-5.857852380952379
345.145,21.11944761904763
347.949,14.361595238095244
350.751,25.721054761904757
353.55,-2.662761904761912
356.348,-19.458521428571448
359.144,-32.61918095238093
361.937,15.85599761904767
364.729,53.01713809523817
367.518,111.72520476190486
370.306,161.4619285714287
373.091,251.99631428571453
375.874,354.19400000000024
378.656,418.58900000000017
381.435,380.19334285714297
384.212,284.49683333333337
386.988,122.61009047619049
389.761,22.359647619047628
392.532,-32.09306
395.301,-50.34649333333332
398.068,-20.61646761904759
400.833,17.121217142857137
403.596,7.987642857142854
406.358,-1.846663809523819
409.117,-4.733291428571432
411.874,-21.593505714285712
414.629,3.1292304761904965
417.382,29.088267619047638
420.133,25.414779523809543
422.882,26.336519047619092
425.629,57.46387380952389
428.374,115.17053809523824
431.117,221.49785476190496
433.858,321.441223809524
436.597,333.7111904761906
439.334,292.4957142857144
442.069,226.55547619047627
444.802,174.41409523809534
447.533,157.50047619047632
450.262,189.76919047619063
452.989,222.31766666666684
455.714,275.7210476190478
458.438,300.6500000000001
461.159,266.6811904761906
463.878,199.15323809523818
466.595,138.26319047619052
469.31,93.77966666666674
472.024,123.6155238095239
474.735,147.15933333333342
477.444,161.61060000000006
480.152,150.40660000000003
482.857,133.69986666666674
485.561,110.9284476190477
488.262,135.76977142857154
490.962,163.85320000000013
493.659,170.99915238095247
496.355,149.31381904761915
499.048,141.28503809523815
501.74,113.01898095238103
504.43,86.00363809523817
507.118,128.01277142857154
509.804,159.82008571428585
512.488,221.91335238095257
515.17,292.0192095238097
517.85,314.43476190476207
520.528,279.36223809523824
523.204,247.57557142857155
525.878,186.27719047619058
528.551,162.95417142857153
531.221,135.95176666666674
533.89,109.37605714285722
536.556,125.76185238095248
539.221,141.8822476190477
541.883,140.17660476190485
544.544,131.41686666666672
547.203,120.3752476190477
549.86,103.53759047619059
552.515,127.77086666666678
555.168,159.4651238095239
557.819,160.1056476190477
560.469,156.74857142857155
563.116,163.68757142857152
565.761,174.50200000000012
568.405,197.6283809523811
571.047,214.50204761904774
573.687,204.3204285714287
576.324,197.13709523809533
578.96,196.1007142857144
581.594,183.45461904761916
584.227,192.72785714285726
586.857,179.067761904762
589.485,170.38328571428582
592.112,157.91590476190487
594.737,160.04985714285726
597.359,180.40685714285726
599.98,188.41790476190485
602.599,191.13200000000012
605.216,194.59833333333344
607.831,172.0080000000001
610.445,151.5993523809525
613.056,134.0868047619048
615.666,91.94580000000008
618.274,98.08000476190485
620.88,117.77389523809535
623.484,182.54932857142873
626.086,254.21368571428587
628.686,282.7640952380954
631.284,320.6257142857145
633.881,353.12852380952404
636.476,380.0777619047621
639.068,406.8024285714288
641.659,377.34561904761927
644.249,325.0829523809525
646.836,274.53262857142875
649.421,204.73661428571438
652.005,148.59342380952387
654.587,103.28728571428576
657.166,76.71620476190483
659.745,82.58773809523815
662.321,87.08519047619052
664.895,79.58223333333336
667.468,52.16666190476192
670.038,39.40232380952384
672.607,46.70993333333336
675.174,31.7961523809524
677.739,37.51047142857148
680.303,56.130552380952416
682.864,64.69616380952387
685.424,63.770925714285724
687.982,58.347041904761916
690.538,33.988260000000025
693.092,22.30621809523811
695.645,21.10274190476192
698.195,17.89431809523809
700.744,11.578513333333346
703.291,-1.3755495238095206
705.836,11.263384761904769
708.38,14.774378095238104
710.921,6.960549523809528
713.461,9.958538095238119
715.999,25.857609523809543
718.535,40.651985714285765
721.069,75.9553571428572
723.602,104.90523333333338
726.133,108.63925238095243
728.662,104.77180952380958
731.189,92.53638571428576
733.714,80.16670000000005
736.238,66.3253428571429
738.759,66.7224190476191
741.279,83.5445190476191
743.798,84.02626666666673
746.314,96.64057142857149
748.829,90.00311428571433
751.342,79.77748571428577
753.853,76.48460476190482
756.362,89.3122428571429
758.869,96.68653809523816
761.375,96.65299523809529
763.879,81.39973809523813
766.381,89.16294285714291
768.882,89.60740476190482
771.38,93.9218428571429
773.877,96.34293809523813
776.372,65.8693523809524
778.866,43.30940000000004
781.357,52.090638095238134
783.847,57.21213809523814
786.335,87.10180476190482
788.821,98.47326666666672
791.306,96.46879047619055
793.789,126.42143809523817
796.27,130.90263809523816
798.749,155.62640952380968
801.227,203.11683809523822
803.702,224.18338095238107
806.176,260.77880952380974
808.649,284.9987142857144
811.119,260.65328571428586
813.588,246.31457142857158
816.055,218.9834285714287
818.521,195.1845238095239
820.984,192.39509523809534
823.446,159.71109523809537
825.906,143.94328571428582
828.365,159.99800000000013
830.821,173.11461904761916
833.276,184.0090000000001
835.729,174.53966666666673
838.181,154.5655238095239
840.631,141.65938095238104
843.079,155.06153333333344
845.525,143.20223809523816
847.97,124.511980952381
850.412,87.56420476190482
852.854,102.64696190476198
855.293,103.1905095238096
857.731,128.9118095238096
860.167,111.47954285714289
862.601,92.32463809523816
865.034,68.83034761904767
867.465,87.71358095238101
869.894,93.02424761904769
872.321,100.76498571428576
874.747,85.65256666666673
877.171,77.78489047619053
879.594,94.83108095238104
882.014,129.50850000000005
884.433,113.15280952380957
886.851,112.62403809523815
889.266,113.68669523809531
891.68,121.10570476190486
894.092,164.2644000000001
896.503,192.02320952380958
898.912,177.95604761904775
901.319,185.3993333333334
903.724,194.92704761904776
906.128,197.59000000000012
908.53,212.72414285714297
910.931,192.99914285714297
913.329,200.0370952380954
915.726,193.03123809523822
918.122,187.36552380952392
920.516,171.9951714285715
922.908,134.58986190476196
925.298,110.86672380952388
927.687,116.97172857142864
930.074,110.86010000000005
932.459,111.63023333333336
934.843,108.28484761904767
937.225,79.30318571428579
939.605,91.59311428571434
941.984,84.87164761904766
944.361,90.04655752380958
946.736,76.88272323809527
949.11,70.19266552380957
951.482,69.12217009523813
953.853,78.00769314285718
956.222,53.2329484761905
958.589,52.56276038095239
960.954,28.428693809523843
963.318,42.881217142857196
965.68,68.16143000000005
968.041,90.93889428571434
970.4,84.93077142857148
972.757,72.6637428571429
975.113,74.092980952381
977.467,60.60217619047622
979.819,42.81327619047621
982.17,25.44326190476192
984.519,25.87577619047623
986.866,39.9705952380953
989.212,80.206480952381
991.556,92.68134285714292
993.899,112.44521428571434
996.24,110.78602380952388
998.579,110.99173809523815
1000.92,110.58830952380958
1003.25,92.3873047619048
1005.59,59.152623809523845
1007.92,41.3621523809524
1010.25,38.68407619047623
1012.58,38.072195238095276
1014.91,58.76591904761909
1017.24,74.38512380952385
1019.56,87.55007142857147
1021.88,90.0231952380953
1024.2,104.09096190476197
1026.52,115.42039523809532
1028.84,145.3448761904763
1031.16,175.95960476190487
1033.48,180.12205714285722
1035.79,168.11780952380963
1038.1,159.42276190476204
1040.41,202.51271428571445
1042.72,259.67247619047635
1045.03,281.42533333333347
1047.33,239.19890476190483
1049.64,201.75457142857152
1051.94,176.1384761904763
1054.24,171.25433333333342
1056.54,162.81495238095243
1058.84,161.10495238095245
1061.13,140.26547619047628
1063.43,136.58071428571438
1065.72,161.572761904762
1068.01,164.81147619047627
1070.3,156.43747619047627
1072.59,167.68714285714293
1074.87,179.41557142857152
1077.16,180.57276190476202
1079.44,203.96647619047633
1081.72,234.92771428571444
1084.0,279.7871904761907
1086.28,341.92366666666686
1088.56,463.76328571428604
1090.84,608.7320952380957
1093.11,713.6368571428576
1095.38,733.4275238095241
1097.65,665.4345238095241
1099.92,544.9888095238098
1102.19,461.1350000000003
1104.46,422.0610476190479
1106.72,391.71614285714304
1108.98,389.4790952380955
1111.24,392.1558095238098
1113.5,452.55338095238125
1115.76,524.7638095238099
1118.02,568.4986190476193
1120.28,561.1834761904765
1122.53,559.1968095238099
1124.78,517.3446190476194
1127.03,472.14780952380977
1129.28,410.41300000000024
1131.53,328.7564285714287
1133.77,244.9371904761906
1136.02,216.19047619047632
1138.26,207.4180476190477
1140.5,199.99757142857155
1142.74,211.11704761904775
1144.98,223.34528571428586
1147.22,225.25085714285728
1149.45,234.73566666666682
1151.69,246.4636666666668
1153.92,228.47961904761917
1156.15,200.30500000000006
1158.38,180.84185714285724
1160.61,175.94484761904772
1162.83,145.89722857142866
1165.06,141.36327619047626
1167.28,101.24541904761908
1169.5,62.16049047619052
1171.72,38.29652857142861
1173.94,50.270585714285744
1176.16,45.461552380952426
1178.37,57.581809523809554
1180.58,57.39130952380956
1182.8,67.79308571428575
1185.01,49.49973714285716
1187.22,29.843091904761916
1189.42,13.440798095238092
1191.63,-4.898868095238076
1193.84,8.822998095238129
1196.04,52.70063952380956
1198.24,74.16179904761908
1200.44,84.25342380952385
1202.64,74.0225741904762
1204.84,40.80215776190477
1207.03,18.544258380952392
1209.23,3.391471285714297
1211.42,7.629415523809551
1213.61,42.21056252380957
1215.8,64.70643609523813
1217.99,71.35532857142861
1220.18,76.87186666666669
1222.36,54.923157142857164
1224.55,40.2716904761905
1226.73,23.394428571428566
1228.91,5.482633333333341
1231.09,4.156295238095261
1233.27,25.65460952380956
1235.44,50.26454761904767
1237.62,73.27320952380957
1239.79,79.39632380952385
1241.96,80.82621428571434
1244.13,102.70733333333341
1246.3,104.7561095238096
1248.47,128.3556380952382
1250.64,148.6985000000001
1252.8,212.31063809523826
1254.96,244.71849047619065
1257.13,302.44803809523825
1259.29,328.88333333333355
1261.44,359.5507142857145
1263.6,340.45314285714306
1265.76,353.68842857142874
1267.91,311.83104761904775
1270.06,271.88409523809537
1272.22,231.18447619047632
1274.37,211.59242857142868
1276.51,181.2064761904763
1278.66,189.6964761904763
1280.81,188.68468571428582
1282.95,158.27013809523817
1285.09,130.075561904762
1287.23,142.19967142857152
1289.37,159.40789523809536
1291.51,188.37075714285726
1293.65,207.56805714285724
1295.78,166.81315714285722
1297.92,135.6336000000001
1300.05,120.74727142857151
1302.18,110.3008857142858
1304.31,112.39349047619054
1306.44,128.79103809523818
1308.57,130.2590000000001
1310.69,157.89661904761914
1312.82,180.326761904762
1314.94,188.31509523809535
1317.06,188.4369523809525
1319.18,212.5055714285716
1321.3,243.85809523809542
1323.41,282.26009523809546
1325.53,333.8104285714288
1327.64,366.3701904761907
1329.75,396.2288095238098
1331.87,397.3420000000002
1333.98,380.1897142857145
1336.08,334.8228571428573
1338.19,277.05423809523825
1340.3,238.74466666666683
1342.4,213.2784285714287
1344.5,196.7063809523811
1346.6,197.8889523809525
1348.7,187.78169523809532
1350.8,150.00652857142865
1352.9,136.7568952380953
1354.99,100.749880952381
1357.09,91.84520952380959
1359.18,89.99816666666672
1361.27,93.44951428571436
1363.36,105.05855238095248
1365.45,131.25645714285722
1367.54,151.90238095238104
1369.62,177.09357142857155
1371.7,210.73685714285727
1373.79,245.02480952380967
1375.87,265.9113809523811
1377.95,267.0172857142859
1380.03,245.6769523809525
1382.1,215.41580952380963
1384.18,207.13961904761916
1386.25,198.5638380952382
1388.33,160.1653952380953
1390.4,125.08763333333337
1392.47,75.61661904761908
1394.54,60.27684761904767
1396.6,54.16372857142861
1398.67,53.56289047619051
1400.74,46.47399523809528
1402.8,54.51575714285718
1404.86,48.59230952380956
1406.92,71.27432380952385
1408.98,54.846561904761934
1411.04,60.16482380952386
1413.09,61.79923809523814
1415.15,82.03416190476197
1417.2,96.15344285714292
1419.25,111.1551571428572
1421.3,101.22747142857149
1423.35,107.60641428571435
1425.4,103.67038095238102
1427.45,111.51228095238102
1429.49,96.93877619047623
1431.54,81.04226666666672
1433.58,71.29582380952385
1435.62,59.45860000000003
1437.66,52.669961904761934
1439.7,55.92679523809527
1441.74,52.320904761904806
1443.77,77.03935428571434
1445.81,73.88812571428575
1447.84,63.95885619047621
1449.87,43.00983142857146
1451.9,44.65632761904767
1453.93,78.22813523809533
1455.96,134.34047333333342
1457.98,151.08474285714297
1460.01,168.55226666666675
1462.03,185.40619047619063
1464.05,216.0708095238097
1466.07,259.39990476190496
1468.09,306.86566666666687
1470.11,364.7023333333336
1472.13,410.23933333333355
1474.14,456.806285714286
1476.16,461.35152380952405
1478.17,435.6332380952383
1480.18,395.2191904761907
1482.19,338.39138095238116
1484.2,276.05095238095254
1486.21,222.19406666666677
1488.21,161.15068095238104
1490.22,121.34562857142865
1492.22,115.77544285714292
1494.22,78.72255238095241
1496.22,74.94549047619053
1498.22,64.48851428571432
1500.22,54.110361904761945
1502.22,34.66505714285717
1504.21,37.72078095238098
1506.21,33.65577142857147
1508.2,55.75277142857147
1510.19,63.43767619047623
1512.18,70.46968095238098
1514.17,66.13200952380956
1516.16,45.85080000000002
1518.14,35.004723809523824
1520.13,8.54395238095238
1522.11,11.085547619047649
1524.09,19.246623809523836
1526.07,42.834971428571464
1528.05,42.42044285714288
1530.03,66.33462857142862
1532.01,78.14786190476197
1533.98,111.47790000000005
1535.96,95.75217142857146
1537.93,87.77908571428576
1539.9,60.272052380952424
1541.87,64.08727619047625
1543.84,80.74802380952389
1545.81,103.01546666666673
1547.78,96.55547619047626
1549.74,121.12957142857152
1551.7,142.16585714285725
1553.67,139.71166666666673
1555.63,158.9097142857144
1557.59,180.42642857142872
1559.55,172.45214285714297
1561.5,200.6059523809525
1563.46,200.41147619047626
1565.41,170.24976190476204
1567.37,182.93052380952395
1569.32,206.88252380952395
1571.27,197.20152380952396
1573.22,205.03042857142867
1575.17,178.36990476190485
1577.11,142.93471428571436
1579.06,125.72519047619058
1581.0,136.59914285714294
1582.95,150.27128571428582
1584.89,164.2660000000001
1586.83,182.63180952380964
1588.77,181.46504761904774
1590.7,184.814142857143
1592.64,189.58438095238105
1594.58,193.91950000000003
1596.51,185.41557142857147
1598.44,155.74009523809522
