Raman Shift,Processed Intensity
331.095,5.078206190476203
333.909,-21.926770952380988
336.721,-39.224325238095275
339.531,-45.20531333333335
342.339,-28.73736666666667
345.145,-12.56820952380953
347.949,-10.514928571428594
350.751,-22.0120523809524
353.55,-32.15900476190478
356.348,-45.14879523809524
359.144,-23.60123809523808
361.937,-8.562885714285699
364.729,22.064428571428635
367.518,76.80884285714296
370.306,166.29602857142874
373.091,286.67677142857167
375.874,401.3420000000002
378.656,419.4459523809525
381.435,366.1924285714287
384.212,240.26267619047627
386.988,140.76881523809533
389.761,82.20516523809529
392.532,38.496606666666686
395.301,30.66461761904765
398.068,15.684868095238098
400.833,22.867902380952422
403.596,26.62123476190476
406.358,28.544465714285725
409.117,11.381694761904782
411.874,32.7833923809524
414.629,9.21109523809524
417.382,9.31842857142857
420.133,5.1412380952381245
422.882,20.33620476190482
425.629,72.18066190476202
428.374,167.4290761904763
431.117,243.64696190476207
433.858,288.6390952380954
436.597,310.401761904762
439.334,271.1232380952382
442.069,206.8025714285715
444.802,154.96342857142866
447.533,126.606761904762
450.262,137.0676190476192
452.989,213.87266666666682
455.714,282.7396190476192
458.438,279.81590476190485
461.159,259.67790476190487
463.878,172.61730952380955
466.595,102.87890476190482
469.31,87.66030952380959
472.024,89.58828571428579
474.735,105.10007142857155
477.444,167.3469523809525
480.152,166.767261904762
482.857,152.51385714285723
485.561,153.69169047619056
488.262,149.02566666666678
490.962,149.71735714285725
493.659,173.06338095238104
496.355,161.78990476190484
499.048,164.71782857142867
501.74,159.00170952380958
504.43,152.65365714285724
507.118,156.44767142857154
509.804,177.1576095238096
512.488,198.22470952380965
515.17,252.47040000000015
517.85,250.47857142857157
520.528,243.26157142857156
523.204,242.02201904761915
525.878,192.248161904762
528.551,161.7140857142858
531.221,144.00283809523816
533.89,138.31672380952392
536.556,134.47679523809532
539.221,134.11348095238102
541.883,109.23813809523817
544.544,110.43309047619053
547.203,112.89946190476198
549.86,129.6475380952382
552.515,167.9731142857144
555.168,180.45766666666674
557.819,175.9205238095239
560.469,180.2277142857144
563.116,172.1025238095239
565.761,165.5534285714287
568.405,174.73119047619056
571.047,177.59619047619057
573.687,180.44176190476202
576.324,190.13157142857153
578.96,215.48181904761915
581.594,205.35615238095247
584.227,179.14087619047626
586.857,183.22237142857153
589.485,174.84378095238105
592.112,173.91377142857158
594.737,195.19850476190484
597.359,153.98728095238104
599.98,138.09241904761913
602.599,144.37400476190484
605.216,140.69141904761915
607.831,167.14124285714297
610.445,167.53474285714293
613.056,131.82478095238102
615.666,119.05956190476198
618.274,113.95330476190485
620.88,134.4103904761906
623.484,179.5249142857144
626.086,223.72447619047637
628.686,254.95947619047638
631.284,281.7042380952383
633.881,328.0512380952383
636.476,333.95023809523826
639.068,311.6833333333335
641.659,303.3898095238097
644.249,291.4944285714287
646.836,248.1831904761906
649.421,221.6419523809525
652.005,165.77088571428578
654.587,108.65956666666672
657.166,63.73102857142862
659.745,51.7894142857143
662.321,30.590554285714294
664.895,3.6521590476190653
667.468,15.682503809523835
670.038,43.48452000000003
672.607,37.28981619047621
675.174,49.710855238095256
677.739,45.35996571428573
680.303,31.754253333333374
682.864,51.4582790476191
685.424,82.75108857142862
687.982,67.81635142857145
690.538,55.36158714285715
693.092,9.856198095238089
695.645,-8.7541157142857
698.195,-5.142749523809508
700.744,21.92200142857146
703.291,42.576484761904794
705.836,73.8619828571429
708.38,64.10557571428573
710.921,49.15828000000002
713.461,35.0616842857143
715.999,14.476561428571443
718.535,16.873257619047664
721.069,41.15090142857146
723.602,60.11331047619052
726.133,77.32661952380958
728.662,97.26169333333337
731.189,81.43712380952385
733.714,89.89553333333338
736.238,74.39380000000003
738.759,69.9269666666667
741.279,58.01426190476193
743.798,51.365376190476226
746.314,41.404471428571476
748.829,71.41305238095242
751.342,58.910738095238116
753.853,51.322095238095265
756.362,45.30993333333337
758.869,62.156252380952424
761.375,54.238480952380996
763.879,74.02952857142861
766.381,81.85939523809529
768.882,84.20112380952386
771.38,103.81390476190481
773.877,105.07565714285717
776.372,82.69824761904768
778.866,83.345780952381
781.357,104.77763809523816
783.847,106.4681095238096
786.335,121.55804761904768
788.821,113.5694571428572
791.306,96.16736666666675
793.789,119.11175238095248
796.27,125.11556666666674
798.749,149.08236190476205
801.227,188.6774904761906
803.702,230.2812285714287
806.176,240.79723809523824
808.649,246.9389523809525
811.119,214.22985714285727
813.588,202.9550000000001
816.055,190.35238095238105
818.521,177.4218095238096
820.984,176.40119047619058
823.446,150.052761904762
825.906,143.9481904761906
828.365,151.94509523809535
830.821,160.42476190476202
833.276,170.24490476190488
835.729,170.16809523809533
838.181,155.67190476190484
840.631,147.42390476190482
843.079,160.9016095238096
845.525,163.58210476190487
847.97,137.6098095238096
850.412,119.08141904761911
852.854,94.14180952380957
855.293,95.98310476190484
857.731,84.46456666666671
860.167,78.68333333333338
862.601,63.403538095238154
865.034,95.10370476190481
867.465,86.21499047619054
869.894,105.40651904761908
872.321,68.01448571428574
874.747,62.94609047619054
877.171,75.25190476190484
879.594,120.07773809523819
882.014,143.52204285714296
884.433,173.5406000000001
886.851,170.8982857142858
889.266,157.78857142857152
891.68,155.92952380952391
894.092,170.46700000000016
896.503,228.166523809524
898.912,240.8890952380953
901.319,230.01895238095244
903.724,213.79780952380963
906.128,196.70566666666681
908.53,191.9836190476192
910.931,215.87371428571436
913.329,198.71309523809538
915.726,190.17204761904773
918.122,189.0162857142858
920.516,168.96342857142866
922.908,159.01714285714294
925.298,140.75271428571438
927.687,144.3164761904763
930.074,153.2358476190477
932.459,144.41906666666674
934.843,104.2503190476191
937.225,77.5430190476191
939.605,78.87156666666674
941.984,83.04890952380958
944.361,93.88792857142862
946.736,87.10600000000002
949.11,65.27762380952386
951.482,45.07269047619051
953.853,52.63659523809527
956.222,40.87712380952383
958.589,41.65407619047622
960.954,35.446271428571464
963.318,64.11334761904766
965.68,72.46719047619052
968.041,71.65291428571432
970.4,68.72028000000003
972.757,48.957041904761915
975.113,34.603260000000034
977.467,20.89887714285715
979.819,34.226336190476225
982.17,29.920765714285746
984.519,54.4122371428572
986.866,73.74965238095244
989.212,108.83927619047627
991.556,136.34906666666677
993.899,172.08940000000007
996.24,171.15691428571435
998.579,148.12401428571434
1000.92,104.75340476190482
1003.25,84.14126190476198
1005.59,101.57417619047625
1007.92,95.95737142857149
1010.25,105.10108095238101
1012.58,95.52972380952384
1014.91,76.76758571428576
1017.24,73.29121428571435
1019.56,80.00592857142861
1021.88,91.62609523809533
1024.2,123.77091904761913
1026.52,141.774061904762
1028.84,184.92111428571442
1031.16,232.68833333333347
1033.48,234.8374761904763
1035.79,239.94000000000014
1038.1,258.13847619047635
1040.41,235.67095238095254
1042.72,267.3465714285716
1045.03,292.6410952380953
1047.33,255.7919047619049
1049.64,215.13214285714298
1051.94,209.47083809523818
1054.24,155.28355238095247
1056.54,155.56972380952388
1058.84,137.99506666666673
1061.13,132.70158095238105
1063.43,127.97445714285725
1065.72,168.14621904761918
1068.01,171.83480952380964
1070.3,214.37266666666682
1072.59,216.13990476190486
1074.87,227.75423809523824
1077.16,211.024142857143
1079.44,219.3296666666668
1081.72,224.4787142857145
1084.0,258.94661904761927
1086.28,327.7321904761908
1088.56,438.92900000000037
1090.84,546.9165714285718
1093.11,651.4558095238099
1095.38,672.4495714285716
1097.65,597.8491904761908
1099.92,500.12914285714305
1102.19,410.5262380952383
1104.46,345.8957619047622
1106.72,339.04580952380974
1108.98,351.8793333333336
1111.24,386.77566666666695
1113.5,447.7330000000003
1115.76,515.8453333333337
1118.02,559.9198571428575
1120.28,550.5742380952385
1122.53,531.8064761904765
1124.78,488.80528571428596
1127.03,442.758904761905
1129.28,404.0943809523812
1131.53,369.28571428571456
1133.77,291.4741904761907
1136.02,234.84828571428585
1138.26,202.83466666666678
1140.5,199.57376190476205
1142.74,232.73066666666685
1144.98,264.1128095238097
1147.22,275.52761904761917
1149.45,272.782523809524
1151.69,251.30409523809539
1153.92,244.89952380952394
1156.15,214.233761904762
1158.38,171.39966666666677
1160.61,166.34765714285723
1162.83,146.55176190476197
1165.06,120.15284761904768
1167.28,97.33908571428572
1169.5,62.87032380952385
1171.72,43.45858095238099
1173.94,44.72092380952384
1176.16,40.940857142857176
1178.37,51.87815714285717
1180.58,56.10210000000005
1182.8,57.03910000000003
1185.01,58.87756657142859
1187.22,41.80586204761906
1189.42,21.67910695238096
1191.63,4.2095570000000055
1193.84,-0.6523482857142819
1196.04,2.948557761904789
1198.24,32.43907990476194
1200.44,57.293585238095275
1202.64,61.17711619047622
1204.84,74.46885428571431
1207.03,59.88183285714288
1209.23,45.84323238095241
1211.42,49.54235190476193
1213.61,43.549483809523814
1215.8,9.482726190476196
1217.99,3.1030219047619063
1220.18,8.790969523809553
1222.36,36.02221333333338
1224.55,71.7012990476191
1226.73,98.63767142857147
1228.91,79.78387142857144
1231.09,56.18786666666671
1233.27,61.4693190476191
1235.44,89.67639047619055
1237.62,101.1908476190477
1239.79,119.68050476190483
1241.96,100.00356666666671
1244.13,92.20891428571436
1246.3,101.6789857142858
1248.47,124.51060952380962
1250.64,151.6105095238096
1252.8,187.69491428571442
1254.96,217.19409523809537
1257.13,256.87209523809537
1259.29,273.96933333333345
1261.44,266.53571428571445
1263.6,283.09795238095256
1265.76,289.89642857142877
1267.91,295.4573333333335
1270.06,294.92671428571447
1272.22,257.97414285714297
1274.37,217.74528571428584
1276.51,197.71957142857156
1278.66,184.3281904761906
1280.81,175.0507142857144
1282.95,190.8429523809525
1285.09,201.75571428571442
1287.23,220.55461904761918
1289.37,224.4811904761906
1291.51,217.68157142857152
1293.65,196.20680952380962
1295.78,167.06052380952391
1297.92,165.81757142857157
1300.05,159.52942857142864
1302.18,145.77142857142866
1304.31,167.21361904761918
1306.44,176.81195238095248
1308.57,181.42761904761917
1310.69,210.06395238095251
1312.82,222.10585714285725
1314.94,213.60476190476203
1317.06,220.8499047619049
1319.18,227.9881904761906
1321.3,230.1658571428573
1323.41,254.1008095238097
1325.53,300.891904761905
1327.64,345.20938095238114
1329.75,385.72338095238115
1331.87,406.62804761904783
1333.98,389.40314285714305
1336.08,387.1949523809526
1338.19,367.24490476190493
1340.3,331.22314285714305
1342.4,307.98961904761916
1344.5,256.69052380952394
1346.6,211.66233333333346
1348.7,206.0032380952382
1350.8,181.57366666666678
1352.9,174.47152380952394
1354.99,167.60433333333341
1357.09,161.35566666666676
1359.18,160.20395238095247
1361.27,171.24719047619055
1363.36,164.67833333333343
1365.45,182.26119047619056
1367.54,168.66495238095249
1369.62,176.1770000000001
1371.7,203.3229047619049
1373.79,212.43795238095254
1375.87,248.42838095238113
1377.95,271.2480476190477
1380.03,255.04133333333348
1382.1,251.95204761904776
1384.18,235.9809238095239
1386.25,177.03354285714292
1388.33,159.30090476190486
1390.4,125.59324285714291
1392.47,92.72039523809529
1394.54,88.25396952380957
1396.6,65.14606238095242
1398.67,44.92029142857147
1400.74,33.90947571428573
1402.8,37.54152952380956
1404.86,41.62509095238099
1406.92,63.206674285714335
1408.98,77.09445238095243
1411.04,96.5727190476191
1413.09,77.44932380952386
1415.15,88.43652380952388
1417.2,90.8181190476191
1419.25,109.1632857142858
1421.3,134.13592857142865
1423.35,136.35295238095244
1425.4,134.382761904762
1427.45,145.2222857142858
1429.49,134.4878333333334
1431.54,144.31898380952387
1433.58,119.71222428571433
1435.62,72.04543904761911
1437.66,81.02874238095245
1439.7,99.51576285714293
1441.74,96.1694814285715
1443.77,123.8906314285715
1445.81,124.72278571428579
1447.84,117.75702857142866
1449.87,119.41763809523816
1451.9,129.70074285714293
1453.93,124.60177619047627
1455.96,134.59259047619057
1457.98,166.66879523809533
1460.01,175.3496761904763
1462.03,176.9166190476192
1464.05,235.74600000000015
1466.07,289.73800000000017
1468.09,344.50752380952406
1470.11,410.7645714285717
1472.13,421.3618095238097
1474.14,406.866285714286
1476.16,387.3688095238097
1478.17,337.7698571428573
1480.18,283.3034761904764
1482.19,255.39423809523822
1484.2,209.1809285714287
1486.21,179.7070838095239
1488.21,120.20731714285719
1490.22,85.96351523809528
1492.22,69.97215333333338
1494.22,46.944202380952404
1496.22,47.495353333333384
1498.22,41.52705380952381
1500.22,36.46526000000004
1502.22,53.211768095238135
1504.21,68.33539904761908
1506.21,53.30995238095241
1508.2,51.89510285714286
1510.19,7.898350476190487
1512.18,5.556059047619062
1514.17,8.628324761904771
1516.16,4.923193809523819
1518.14,21.296526666666683
1520.13,23.413809047619054
1522.11,24.940759047619075
1524.09,32.3050823809524
1526.07,65.36336952380958
1528.05,76.35314761904768
1530.03,94.75024761904767
1532.01,80.12591428571433
1533.98,78.48005714285719
1535.96,59.57470000000005
1537.93,90.74343809523816
1539.9,94.70086666666671
1541.87,93.4951190476191
1543.84,80.50763809523815
1545.81,90.02490000000006
1547.78,102.95260952380963
1549.74,137.7201000000001
1551.7,138.56673809523818
1553.67,137.63651428571436
1555.63,135.45429047619055
1557.59,130.54527619047627
1559.55,142.62532857142867
1561.5,161.07688571428582
1563.46,141.42539047619056
1565.41,133.57725714285723
1567.37,135.91503809523817
1569.32,126.86911428571437
1571.27,149.58458095238106
1573.22,173.63477142857153
1575.17,165.02148571428577
1577.11,132.12786666666673
1579.06,123.38454285714295
1581.0,116.17465714285724
1582.95,138.02444761904772
1584.89,145.55510476190486
1586.83,152.24481904761913
1588.77,149.0962857142858
1590.7,151.58785714285725
1592.64,151.24557142857154
1594.58,147.73876190476196
1596.51,157.71276190476206
1598.44,192.33673809523847
