Raman Shift,Processed Intensity
331.095,52.27258190476169
333.909,-29.8316542857144
336.721,-59.37854571428576
339.531,-54.75741238095239
342.339,-36.23908380952381
345.145,-30.49842857142861
347.949,-28.49375714285714
350.751,-14.515223809523818
353.55,-16.136876190476197
356.348,-17.073842857142857
359.144,3.055704761904763
361.937,0.683042857142893
364.729,21.146071428571474
367.518,65.16510000000008
370.306,146.74829523809538
373.091,259.4290428571431
375.874,365.838123809524
378.656,406.3696857142858
381.435,320.8478761904763
384.212,225.05106857142863
386.988,130.90216285714294
389.761,62.37317666666671
392.532,15.67638666666668
395.301,7.644402380952389
398.068,11.111352380952416
400.833,22.008560476190482
403.596,14.220951428571432
406.358,34.20684285714287
409.117,16.330648571428583
411.874,-1.279584761904741
414.629,37.07692095238097
417.382,33.864665714285735
420.133,24.216225714285763
422.882,56.93205809523813
425.629,90.81412476190485
428.374,143.61801428571445
431.117,229.86245238095256
433.858,284.25780000000015
436.597,280.0394285714287
439.334,222.2532857142858
442.069,174.04161904761915
444.802,139.9283333333334
447.533,114.581761904762
450.262,156.6704285714287
452.989,208.43533333333346
455.714,253.59480952380972
458.438,273.29599428571436
461.159,212.06784666666672
463.878,125.01170761904768
466.595,78.94349619047622
469.31,39.29866476190481
472.024,63.989751428571495
474.735,93.78656571428577
477.444,116.7451238095239
480.152,129.0649095238096
482.857,132.18395238095243
485.561,125.3500095238096
488.262,140.6205523809525
490.962,163.91056190476203
493.659,191.32575238095248
496.355,182.59093333333342
499.048,143.6696476190477
501.74,123.57272380952386
504.43,110.83497142857152
507.118,129.8964380952382
509.804,183.7685523809525
512.488,247.93836190476208
515.17,263.17923809523825
517.85,291.8833333333335
520.528,261.49034285714293
523.204,192.63050952380965
525.878,154.83863809523817
528.551,127.64926190476197
531.221,86.59702857142864
533.89,112.21640476190483
536.556,102.89870952380957
539.221,96.93967619047626
541.883,117.92072857142865
544.544,129.899380952381
547.203,114.12318571428578
549.86,141.982161904762
552.515,130.770761904762
555.168,136.83071428571438
557.819,155.45619047619056
560.469,192.46485714285728
563.116,185.24528571428584
565.761,214.75690476190488
568.405,209.29214285714298
571.047,201.66709523809538
573.687,201.07828571428587
576.324,212.67419047619057
578.96,190.7931904761906
581.594,201.58285714285728
584.227,219.28595238095252
586.857,222.334761904762
589.485,216.39974285714297
592.112,173.483980952381
594.737,142.208961904762
597.359,129.14844761904772
599.98,133.39962857142865
602.599,137.2016000000001
605.216,153.5554095238096
607.831,150.36614285714296
610.445,151.39561904761914
613.056,133.16723809523816
615.666,124.63290476190484
618.274,120.83919047619057
620.88,132.40328571428583
623.484,156.94204761904774
626.086,204.97676190476207
628.686,267.456904761905
631.284,326.2364761904764
633.881,354.74095238095254
636.476,329.7279523809525
639.068,314.43128571428593
641.659,294.41785714285726
644.249,257.11100000000016
646.836,221.8865904761906
649.421,177.6440571428572
652.005,115.75835238095246
654.587,106.27120952380959
657.166,86.12885238095241
659.745,37.32464000000002
662.321,18.757075238095243
664.895,-1.7236038095238113
667.468,-9.790869523809508
670.038,-1.3088076190476068
672.607,30.334643809523836
675.174,33.846694285714314
677.739,59.93453333333338
680.303,65.49583380952383
682.864,44.61870095238097
685.424,26.153204285714306
687.982,32.52088190476192
690.538,28.857643333333378
693.092,58.58518857142861
695.645,70.74440476190478
698.195,25.757238095238087
700.744,12.283928571428579
703.291,-3.205614285714278
705.836,14.996824761904803
708.38,37.123481904761924
710.921,45.21631142857143
713.461,23.031813333333368
715.999,56.18376380952387
718.535,71.09574857142863
721.069,100.76291047619054
723.602,127.79958952380957
726.133,99.8203585714286
728.662,83.10660000000004
731.189,71.41603142857144
733.714,39.411387619047645
736.238,24.184044761904794
738.759,31.016012380952397
741.279,20.52288047619052
743.798,76.17731142857149
746.314,88.21436190476196
748.829,93.82143333333339
751.342,91.23373809523812
753.853,69.35328571428575
756.362,43.225114285714334
758.869,66.46570000000004
761.375,51.3109285714286
763.879,60.71117142857148
766.381,82.52122380952387
768.882,107.78689047619054
771.38,115.64943333333339
773.877,108.86915238095241
776.372,76.34933333333336
778.866,57.08881428571433
781.357,65.27653333333339
783.847,77.72103809523813
786.335,66.08811904761907
788.821,61.4246190476191
791.306,89.20600476190485
793.789,125.71735714285724
796.27,159.52965238095248
798.749,189.2139904761906
801.227,193.81785714285726
803.702,197.96047619047633
806.176,232.45095238095254
808.649,270.9085714285716
811.119,282.52419047619065
813.588,285.3933809523811
816.055,262.99266666666676
818.521,220.08476190476208
820.984,211.3844285714287
823.446,213.17814285714297
825.906,197.27657142857154
828.365,188.63304761904772
830.821,167.34357142857152
833.276,148.1712857142858
835.729,144.68923809523815
838.181,135.2793333333334
840.631,128.60995238095245
843.079,136.58741904761914
845.525,124.92752857142861
847.97,105.15575714285718
850.412,72.89317619047621
852.854,51.712919047619096
855.293,59.90277142857148
857.731,75.36949047619052
860.167,70.92475238095241
862.601,76.95169523809528
865.034,63.21450476190479
867.465,55.14406380952384
869.894,24.17137333333335
872.321,43.0131990476191
874.747,53.67212666666673
877.171,94.38879904761913
879.594,112.49927333333338
882.014,135.29200190476197
884.433,125.24600952380962
886.851,151.3642952380953
889.266,148.9828095238096
891.68,172.67605714285725
894.092,155.68510476190485
896.503,153.63201904761914
898.912,151.85341904761916
901.319,157.92349523809534
903.724,157.98820000000012
906.128,171.95562857142866
908.53,158.20985714285726
910.931,170.32557142857158
913.329,199.63933333333347
915.726,221.5349904761906
918.122,194.68275238095242
920.516,149.37140952380958
922.908,98.89015238095244
925.298,93.4322857142858
927.687,101.00107619047625
930.074,104.88551428571432
932.459,76.46974285714288
934.843,53.70928095238098
937.225,48.083666666666716
939.605,56.07178571428575
941.984,46.77222857142861
944.361,77.85461428571435
946.736,87.75055523809527
949.11,71.32016000000003
951.482,64.09019142857144
953.853,40.92062095238097
956.222,19.43338666666672
958.589,64.25009142857148
960.954,65.1832247619048
963.318,71.61618666666672
965.68,87.1708066666667
968.041,80.61146761904766
970.4,81.46437428571434
972.757,85.77932190476191
975.113,58.36825142857146
977.467,45.75690333333334
979.819,28.32848571428572
982.17,3.703983333333342
984.519,1.7899914285714438
986.866,11.58827190476194
989.212,44.5291390476191
991.556,80.23295904761912
993.899,111.17765714285721
996.24,129.7930952380953
998.579,120.12792380952385
1000.92,107.32608476190482
1003.25,74.8647823809524
1005.59,51.41136000000003
1007.92,34.63352714285716
1010.25,27.055640952380976
1012.58,35.487649047619094
1014.91,65.40611809523814
1017.24,74.90657619047624
1019.56,85.46533809523814
1021.88,93.17782380952386
1024.2,96.94841904761913
1026.52,103.72969047619056
1028.84,122.23557619047628
1031.16,153.60829523809534
1033.48,183.94276190476202
1035.79,195.61961904761918
1038.1,233.35223809523825
1040.41,279.56866666666684
1042.72,295.0775714285716
1045.03,285.73480952380964
1047.33,237.7778571428572
1049.64,174.92019047619058
1051.94,162.6366666666668
1054.24,169.25928571428582
1056.54,181.35833333333343
1058.84,175.31314285714296
1061.13,155.88423809523817
1063.43,162.40366666666677
1065.72,167.20320952380962
1068.01,133.04330476190486
1070.3,138.3033238095239
1072.59,141.26717142857152
1074.87,169.17122857142868
1077.16,184.72778095238104
1079.44,194.83997142857154
1081.72,177.36309523809535
1084.0,209.86666666666684
1086.28,264.92019047619067
1088.56,374.80747619047645
1090.84,507.0023809523814
1093.11,609.9791904761908
1095.38,637.1645714285718
1097.65,595.8896190476194
1099.92,489.390285714286
1102.19,365.09319047619067
1104.46,334.18671428571446
1106.72,322.5258571428574
1108.98,335.1561428571431
1111.24,361.5514761904765
1113.5,407.51900000000023
1115.76,431.24714285714316
1118.02,496.3054761904765
1120.28,537.6440476190479
1122.53,555.8795238095241
1124.78,528.8196190476193
1127.03,469.60485714285744
1129.28,373.4232857142859
1131.53,303.27333333333354
1133.77,234.91466666666676
1136.02,213.63061904761918
1138.26,226.9908571428573
1140.5,236.18385714285733
1142.74,262.58852380952396
1144.98,283.2030952380954
1147.22,264.12080952380967
1149.45,247.67276190476204
1151.69,228.42857142857156
1153.92,206.2915238095239
1156.15,191.78366666666676
1158.38,164.85557142857152
1160.61,141.69610476190485
1162.83,124.49390000000007
1165.06,89.91410000000005
1167.28,106.24131619047625
1169.5,85.52134714285718
1171.72,62.80053238095242
1173.94,61.410986190476216
1176.16,67.9228047619048
1178.37,47.382429047619084
1180.58,61.741341904761924
1182.8,45.33168000000002
1185.01,33.104940000000035
1187.22,37.91737428571432
1189.42,43.1015480952381
1191.63,16.799613333333333
1193.84,11.010991904761916
1196.04,-2.264835714285708
1198.24,16.495563333333372
1200.44,37.43471761904764
1202.64,43.647644761904786
1204.84,49.18185190476193
1207.03,50.03736857142859
1209.23,22.738063809523826
1211.42,19.284156190476192
1213.61,-1.8002457142857147
1215.8,7.675553333333373
1217.99,28.664548571428597
1220.18,57.834000000000046
1222.36,72.70833809523813
1224.55,79.90730952380956
1226.73,56.66983809523813
1228.91,61.5204904761905
1231.09,43.41272857142861
1233.27,48.20472380952385
1235.44,54.42139523809528
1237.62,76.73051904761911
1239.79,90.4191095238096
1241.96,93.345680952381
1244.13,105.08281428571436
1246.3,128.0131238095239
1248.47,154.8999047619049
1250.64,198.07823809523822
1252.8,220.40671428571443
1254.96,234.31547619047637
1257.13,258.90138095238115
1259.29,284.78533333333354
1261.44,295.9692857142859
1263.6,318.2169523809526
1265.76,301.9110476190478
1267.91,302.6724285714287
1270.06,281.36052380952395
1272.22,248.9297142857144
1274.37,204.57261904761916
1276.51,205.7196666666668
1278.66,211.5633333333335
1280.81,238.20071428571447
1282.95,255.30104761904775
1285.09,221.24761904761914
1287.23,202.8519523809525
1289.37,195.68780952380965
1291.51,183.70952380952392
1293.65,181.7289523809525
1295.78,190.17700000000008
1297.92,165.4849047619049
1300.05,163.70214285714297
1302.18,164.25985714285721
1304.31,157.11257142857153
1306.44,161.4530476190477
1308.57,193.3786666666668
1310.69,188.8921904761906
1312.82,201.94761904761918
1314.94,201.07171428571442
1317.06,199.8857142857144
1319.18,210.48704761904776
1321.3,248.06852380952395
1323.41,257.9655714285716
1325.53,310.70419047619066
1327.64,345.33452380952406
1329.75,385.7634761904764
1331.87,418.94552380952405
1333.98,406.12104761904783
1336.08,371.14914285714303
1338.19,336.55590476190497
1340.3,318.0100952380954
1342.4,305.7993333333335
1344.5,283.7351904761906
1346.6,228.05795238095249
1348.7,181.29333333333344
1350.8,150.77638095238106
1352.9,145.79476190476203
1354.99,152.96947619047629
1357.09,159.63547619047628
1359.18,170.84228571428582
1361.27,182.87733333333347
1363.36,193.12276190476203
1365.45,225.10428571428588
1367.54,240.2521904761906
1369.62,254.32952380952398
1371.7,258.0044285714287
1373.79,267.18300000000016
1375.87,274.7710000000002
1377.95,317.10352380952395
1380.03,313.4672380952382
1382.1,302.33933333333346
1384.18,252.8160000000001
1386.25,210.37433333333342
1388.33,171.443761904762
1390.4,150.78719047619057
1392.47,129.64328571428578
1394.54,125.91714285714292
1396.6,114.51442857142864
1398.67,113.24479047619054
1400.74,107.01336190476196
1402.8,106.48737142857149
1404.86,77.8096666666667
1406.92,80.45624761904769
1408.98,76.47501428571435
1411.04,99.67525714285725
1413.09,129.29463333333342
1415.15,153.42839047619054
1417.2,156.36172857142867
1419.25,166.99889523809532
1421.3,143.33914285714292
1423.35,141.762761904762
1425.4,140.55432380952388
1427.45,118.71339523809532
1429.49,127.14374285714293
1431.54,123.89216666666672
1433.58,112.05240476190482
1435.62,103.33750000000006
1437.66,108.84122380952387
1439.7,99.99100000000007
1441.74,110.11854761904769
1443.77,122.12759047619053
1445.81,127.34964761904769
1447.84,122.40214285714293
1449.87,124.23552380952387
1451.9,116.46695238095245
1453.93,118.23766666666675
1455.96,133.45047619047628
1457.98,154.38914285714296
1460.01,169.57561904761917
1462.03,185.7219047619049
1464.05,210.111523809524
1466.07,247.6947619047621
1468.09,311.46947619047637
1470.11,366.90933333333356
1472.13,405.2030476190479
1474.14,404.44290476190497
1476.16,393.0078095238097
1478.17,353.6570952380954
1480.18,326.38847619047635
1482.19,269.86571428571443
1484.2,235.42001904761915
1486.21,170.4292714285715
1488.21,133.17697142857148
1490.22,81.5176190476191
1492.22,76.59135238095243
1494.22,69.68126666666673
1496.22,83.78465714285718
1498.22,65.66065714285718
1500.22,56.496995238095266
1502.22,53.19586190476196
1504.21,65.18294761904767
1506.21,96.16970000000006
1508.2,102.39150000000004
1510.19,85.51228095238099
1512.18,67.14834761904766
1514.17,62.34477142857146
1516.16,47.52730000000005
1518.14,81.93160000000005
1520.13,56.697914285714305
1522.11,53.109533333333374
1524.09,37.6879142857143
1526.07,36.19275714285718
1528.05,37.47908571428575
1530.03,59.30703809523812
1532.01,56.57930952380958
1533.98,72.48462857142862
1535.96,79.78327619047624
1537.93,87.75934761904767
1539.9,87.0303571428572
1541.87,90.45220000000006
1543.84,89.30917619047624
1545.81,88.83830952380958
1547.78,95.60993809523815
1549.74,99.62298095238103
1551.7,127.63829523809534
1553.67,159.79815238095247
1555.63,170.6251904761906
1557.59,183.59542857142867
1559.55,161.27966666666674
1561.5,155.86761904761914
1563.46,158.45395238095247
1565.41,165.18161904761917
1567.37,168.7642380952382
1569.32,171.1067142857144
1571.27,176.11357142857156
1573.22,172.83209523809532
1575.17,152.5955238095239
1577.11,145.0235714285715
1579.06,133.44919047619058
1581.0,143.3964761904763
1582.95,177.05614285714296
1584.89,181.28585714285722
1586.83,193.18085714285726
1588.77,183.5992857142858
1590.7,172.11247619047631
1592.64,168.7210000000001
1594.58,161.44935714285722
1596.51,167.8458571428574
1598.44,197.74450000000053
