Raman Shift,Processed Intensity
331.095,75.04580714285683
333.909,-24.008130952381094
336.721,-46.416088095238194
339.531,-25.398980952380942
342.339,-12.416304761904756
345.145,1.5969047619047352
347.949,-18.125847619047644
350.751,-35.77826666666668
353.55,-36.647742857142866
356.348,-31.591538095238104
359.144,-18.941552380952377
361.937,1.4480714285714598
364.729,39.725023809523876
367.518,99.65725714285725
370.306,148.10981904761914
373.091,234.75895238095256
375.874,307.235123809524
378.656,341.31300000000016
381.435,337.8638571428572
384.212,261.66550000000007
386.988,167.44966666666676
389.761,103.71192380952382
392.532,31.616284761904772
395.301,-4.005274761904751
398.068,-20.176530476190486
400.833,-19.109612857142828
403.596,17.032296190476195
406.358,13.659326190476186
409.117,5.3259152380952495
411.874,36.54046761904765
414.629,27.86056952380955
417.382,53.70241238095242
420.133,46.62656190476191
422.882,34.147285714285765
425.629,48.58991428571437
428.374,122.2809142857144
431.117,193.07165714285728
433.858,247.05310476190488
436.597,246.79352380952395
439.334,226.67171428571436
442.069,168.16295238095248
444.802,141.02909523809535
447.533,150.22314285714296
450.262,167.27080952380965
452.989,218.41280952380964
455.714,237.84309523809534
458.438,249.42280952380966
461.159,218.1570238095239
463.878,165.43242857142863
466.595,133.68383333333344
469.31,144.72758095238103
472.024,128.38060476190483
474.735,149.46006666666676
477.444,118.11739523809528
480.152,91.74263809523816
482.857,105.20193809523819
485.561,152.7906761904763
488.262,172.9475000000001
490.962,189.44438095238104
493.659,173.0062380952382
496.355,152.78690476190485
499.048,142.79689523809532
501.74,120.52368095238103
504.43,128.26450476190485
507.118,126.7445095238096
509.804,147.59440952380965
512.488,193.11168095238108
515.17,229.8311809523811
517.85,256.7647142857145
520.528,285.59057142857154
523.204,236.89104761904775
525.878,184.2490476190477
528.551,131.15214285714293
531.221,131.51593333333346
533.89,148.06592380952392
536.556,145.67005714285722
539.221,121.86253333333337
541.883,85.5583952380953
544.544,85.33947619047629
547.203,112.88206190476197
549.86,116.48161904761912
552.515,123.38565238095245
555.168,123.88876190476199
557.819,124.66628571428583
560.469,164.3937142857144
563.116,168.17409523809533
565.761,188.9677142857144
568.405,196.06757142857154
571.047,194.62333333333345
573.687,197.2132857142858
576.324,184.84366666666676
578.96,168.85385714285724
581.594,172.77276190476198
584.227,165.79600000000008
586.857,178.40409523809535
589.485,183.64890476190484
592.112,168.5817333333334
594.737,139.39666190476197
597.359,123.14360952380959
599.98,116.06371904761913
602.599,140.63465714285724
605.216,147.23866190476198
607.831,160.92482857142863
610.445,154.64602857142864
613.056,135.87850476190482
615.666,111.95548571428577
618.274,108.5904952380953
620.88,97.54420000000009
623.484,121.29150476190487
626.086,188.92550476190493
628.686,252.729523809524
631.284,328.8432857142859
633.881,392.5020476190478
636.476,383.6543333333335
639.068,351.3439047619049
641.659,342.42361904761924
644.249,283.41233333333344
646.836,245.87648571428585
649.421,205.04890476190482
652.005,130.0664857142858
654.587,80.39956190476197
657.166,78.32760952380957
659.745,48.32007142857147
662.321,49.13230952380957
664.895,46.28110952380955
667.468,51.99743809523813
670.038,55.79782857142861
672.607,61.9129285714286
675.174,58.66855238095242
677.739,74.24747619047623
680.303,65.54685238095242
682.864,79.9875190476191
685.424,81.2760285714286
687.982,57.16655714285717
690.538,50.8419066666667
693.092,45.389597142857156
695.645,34.65929904761908
698.195,44.6911504761905
700.744,42.23978
703.291,5.8218542857142825
705.836,8.668582857142866
708.38,9.15419047619049
710.921,-2.108714285714284
713.461,5.921261904761916
715.999,33.23837619047621
718.535,26.503547619047655
721.069,50.37817142857147
723.602,67.00008095238097
726.133,58.07870952380957
728.662,74.41921904761911
731.189,80.8269904761905
733.714,74.48836190476194
736.238,65.16144761904765
738.759,56.46165238095242
741.279,43.33788571428575
743.798,73.8822190476191
746.314,73.52029523809529
748.829,76.77309047619052
751.342,74.44766190476194
753.853,93.82706190476198
756.362,94.6235095238096
758.869,124.78707619047627
761.375,115.50645714285719
763.879,97.3513047619048
766.381,74.70113333333337
768.882,70.60199523809528
771.38,76.67189047619053
773.877,80.76671904761908
776.372,70.98086666666671
778.866,83.3610190476191
781.357,80.00189523809527
783.847,64.09348571428575
786.335,60.73063809523813
788.821,66.96065238095244
791.306,84.21223333333342
793.789,118.15172857142866
796.27,148.01765238095248
798.749,148.19097142857152
801.227,173.71961904761918
803.702,203.1281904761906
806.176,235.70323809523825
808.649,251.1591904761906
811.119,238.116142857143
813.588,225.62257142857158
816.055,218.15542857142873
818.521,206.04957142857154
820.984,199.87733333333344
823.446,179.3065238095239
825.906,142.52914285714294
828.365,149.02300000000008
830.821,150.50338095238104
833.276,160.35304761904771
835.729,171.33500000000012
838.181,162.73709523809532
840.631,160.56109523809533
843.079,153.33247619047629
845.525,146.71971428571436
847.97,136.24849047619054
850.412,118.87280952380958
852.854,77.97589523809528
855.293,78.70239047619052
857.731,60.38767619047623
860.167,57.60540952380956
862.601,58.16699523809526
865.034,40.83646666666668
867.465,22.99685714285717
869.894,26.554857142857163
872.321,35.27457142857148
874.747,77.63450476190482
877.171,89.54130952380956
879.594,88.66382857142862
882.014,87.76597619047622
884.433,101.94526666666675
886.851,142.48936666666677
889.266,165.54360476190485
891.68,152.014561904762
894.092,149.04724285714295
896.503,135.35822857142867
898.912,144.42609047619058
901.319,167.96696190476197
903.724,140.26882380952387
906.128,111.19079047619054
908.53,111.92546190476197
910.931,130.37988571428582
913.329,145.84215714285725
915.726,172.7428000000001
918.122,163.17938095238102
920.516,152.10614285714297
922.908,153.33486666666676
925.298,160.01062857142864
927.687,129.65963809523814
930.074,106.66489523809527
932.459,85.5048571428572
934.843,75.13389523809529
937.225,92.83981904761912
939.605,98.2917666666667
941.984,72.49190952380957
944.361,59.44236190476194
946.736,55.66910000000003
949.11,59.93627142857149
951.482,76.76969047619052
953.853,80.17175238095241
956.222,59.287442857142885
958.589,58.02373809523814
960.954,48.1447285714286
963.318,69.70018095238102
965.68,91.78757714285719
968.041,90.74244380952385
970.4,65.5193542857143
972.757,48.07288952380952
975.113,6.500468571428579
977.467,-5.481441904761885
979.819,22.27224857142859
982.17,14.668419047619063
984.519,32.56660000000004
986.866,61.68311904761908
989.212,56.11538571428575
991.556,73.96078571428578
993.899,101.9834428571429
996.24,118.5189857142858
998.579,146.14099523809531
1000.92,151.42278571428577
1003.25,99.50922619047621
1005.59,65.16408095238097
1007.92,19.627373809523828
1010.25,13.4724666666667
1012.58,33.081688095238135
1014.91,63.31388571428576
1017.24,78.64669523809529
1019.56,93.65286666666671
1021.88,69.52402380952384
1024.2,48.880200000000045
1026.52,54.15090000000007
1028.84,99.47987619047629
1031.16,147.24845714285726
1033.48,176.5999000000001
1035.79,200.82021904761916
1038.1,228.43357142857158
1040.41,250.3448571428573
1042.72,311.26852380952397
1045.03,307.2993809523811
1047.33,279.8178571428573
1049.64,262.3950476190478
1051.94,241.4589047619049
1054.24,211.34197142857155
1056.54,181.13885238095247
1058.84,127.27694285714294
1061.13,107.70771904761912
1063.43,107.38280000000009
1065.72,127.44366190476201
1068.01,147.26987619047628
1070.3,152.00280952380962
1072.59,171.87904761904772
1074.87,204.27776190476203
1077.16,214.43590476190488
1079.44,211.63714285714303
1081.72,240.92714285714302
1084.0,269.44714285714304
1086.28,321.10019047619073
1088.56,436.16923809523837
1090.84,523.0335714285718
1093.11,587.6909047619051
1095.38,622.3295238095242
1097.65,557.5663809523812
1099.92,454.25657142857165
1102.19,384.25414285714305
1104.46,322.03314285714305
1106.72,315.35328571428596
1108.98,332.45004761904784
1111.24,351.2731428571431
1113.5,401.34414285714314
1115.76,453.51704761904796
1118.02,496.98014285714316
1120.28,531.7308571428574
1122.53,497.2901904761907
1124.78,460.84623809523833
1127.03,419.77709523809546
1129.28,375.79428571428593
1131.53,349.0382380952383
1133.77,335.12509523809535
1136.02,260.8616666666668
1138.26,238.43595238095253
1140.5,188.89261904761918
1142.74,189.32457142857157
1144.98,210.68166666666679
1147.22,236.9609047619049
1149.45,242.8263809523811
1151.69,259.2279523809525
1153.92,219.06804761904775
1156.15,217.96309523809535
1158.38,196.19638095238105
1160.61,154.28903809523817
1162.83,117.81016190476197
1165.06,88.42422380952384
1167.28,69.17660952380959
1169.5,76.87430476190482
1171.72,96.37247619047626
1173.94,103.9545571428572
1176.16,108.66597142857151
1178.37,101.50477619047625
1180.58,116.13591809523814
1182.8,89.08109428571431
1185.01,57.81480285714287
1187.22,47.906672380952415
1189.42,37.83108380952383
1191.63,26.39609904761908
1193.84,52.981365714285744
1196.04,62.39480000000003
1198.24,60.777957142857204
1200.44,88.79642380952384
1202.64,93.92521428571432
1204.84,77.59200000000004
1207.03,68.55786952380954
1209.23,55.53643142857144
1211.42,10.81285333333333
1213.61,-0.1369885714285548
1215.8,9.924815238095256
1217.99,27.331664761904804
1220.18,54.36951238095242
1222.36,67.70542380952382
1224.55,41.006676190476206
1226.73,30.60740952380954
1228.91,17.127633333333346
1231.09,24.75891428571431
1233.27,29.788247619047638
1235.44,31.31220952380955
1237.62,42.2848428571429
1239.79,68.89804285714293
1241.96,103.20143333333341
1244.13,120.3872190476191
1246.3,120.26681904761912
1248.47,106.50910000000007
1250.64,115.02127619047629
1252.8,135.04347142857154
1254.96,198.05430476190492
1257.13,234.05647619047636
1259.29,259.38542857142875
1261.44,305.520523809524
1263.6,344.5120000000002
1265.76,336.07695238095255
1267.91,314.7894761904763
1270.06,257.60542857142866
1272.22,209.432142857143
1274.37,199.27309523809535
1276.51,182.9882380952382
1278.66,174.1049047619049
1280.81,150.91180952380964
1282.95,159.17452380952392
1285.09,170.03909523809534
1287.23,166.84223809523814
1289.37,153.6822857142858
1291.51,144.84878095238102
1293.65,108.01159047619053
1295.78,113.41256190476196
1297.92,92.76955238095242
1300.05,85.37180000000006
1302.18,98.50844761904767
1304.31,110.08787619047627
1306.44,135.7805238095239
1308.57,160.78014285714295
1310.69,169.61419047619057
1312.82,187.3340476190477
1314.94,188.0859523809525
1317.06,169.7304285714287
1319.18,185.65219047619058
1321.3,199.37838095238106
1323.41,221.1028571428573
1325.53,281.73419047619063
1327.64,330.7991904761907
1329.75,350.58728571428594
1331.87,385.19690476190493
1333.98,372.9170000000002
1336.08,351.94114285714306
1338.19,336.32023809523827
1340.3,291.1522857142859
1342.4,253.91700000000017
1344.5,227.95071428571438
1346.6,186.9701904761906
1348.7,185.0740000000001
1350.8,183.02661904761914
1352.9,171.16390476190486
1354.99,173.82195238095247
1357.09,162.38414285714293
1359.18,159.51928571428581
1361.27,162.56357142857152
1363.36,156.5665238095239
1365.45,157.57790476190485
1367.54,166.21904761904773
1369.62,170.586761904762
1371.7,186.8257142857144
1373.79,219.6996190476192
1375.87,244.8763809523811
1377.95,270.2147142857144
1380.03,274.95423809523817
1382.1,239.76247619047632
1384.18,208.4975238095239
1386.25,181.6842380952382
1388.33,147.46585714285726
1390.4,152.27182857142867
1392.47,147.00726666666677
1394.54,121.33903333333338
1396.6,93.17194761904766
1398.67,52.83943333333335
1400.74,28.579119047619095
1402.8,48.152614285714336
1404.86,71.1307047619048
1406.92,72.27450000000003
1408.98,87.91642380952388
1411.04,88.91245238095243
1413.09,84.40420000000005
1415.15,79.96161904761908
1417.2,82.67834761904767
1419.25,72.64804285714293
1421.3,112.15429047619057
1423.35,151.62391904761913
1425.4,154.53080952380964
1427.45,158.77738095238104
1429.49,156.9325714285715
1431.54,117.61311904761911
1433.58,102.95890476190482
1435.62,102.25326190476197
1437.66,106.35019047619056
1439.7,127.05616666666673
1441.74,143.3205714285715
1443.77,131.0448752380953
1445.81,91.22567523809526
1447.84,61.193040952381004
1449.87,64.18144857142863
1451.9,94.71116476190485
1453.93,117.20715619047627
1455.96,129.80852761904768
1457.98,130.27337619047628
1460.01,126.45500952380964
1462.03,165.11114761904776
1464.05,207.7618380952382
1466.07,239.35547619047634
1468.09,266.9834761904764
1470.11,297.97509523809543
1472.13,300.46904761904784
1474.14,325.8421428571431
1476.16,325.5187142857145
1478.17,326.4472380952383
1480.18,292.1000000000001
1482.19,255.61604761904772
1484.2,225.9910761904763
1486.21,178.74524285714293
1488.21,130.20770000000007
1490.22,105.08899523809528
1492.22,84.76639523809531
1494.22,88.3793190476191
1496.22,97.92381904761908
1498.22,64.77756190476192
1500.22,16.270404761904768
1502.22,11.922746666666697
1504.21,16.2075323809524
1506.21,32.93130761904765
1508.2,49.32918190476192
1510.19,29.588774285714287
1512.18,10.51692285714288
1514.17,28.87295619047621
1516.16,40.55920000000004
1518.14,54.04958571428575
1520.13,66.72289523809526
1522.11,41.24383095238097
1524.09,17.658190476190498
1526.07,30.44037857142861
1528.05,59.16036761904766
1530.03,55.7691747619048
1532.01,68.26548285714289
1533.98,56.791060952380974
1535.96,42.868701904761956
1537.93,58.97372476190481
1539.9,95.05768190476195
1541.87,82.69157619047624
1543.84,79.54160952380956
1545.81,67.55984761904766
1547.78,65.69837619047625
1549.74,77.86202380952389
1551.7,121.14594761904772
1553.67,143.12176666666676
1555.63,164.55147619047628
1557.59,163.00690476190485
1559.55,149.29785714285723
1561.5,133.2825238095239
1563.46,143.15204761904772
1565.41,146.66904761904772
1567.37,176.07207619047628
1569.32,160.50505238095246
1571.27,151.9687714285715
1573.22,150.60751904761915
1575.17,159.0892000000001
1577.11,156.7961476190477
1579.06,161.87255238095244
1581.0,136.5578095238096
1582.95,133.13880952380958
1584.89,129.90290476190486
1586.83,131.13752380952388
1588.77,154.4635238095239
1590.7,156.0255238095239
1592.64,168.92033333333342
1594.58,179.31626190476186
1596.51,187.73904761904762
1598.44,193.02385714285728
