Raman Shift,Processed Intensity
331.095,37.457754761904646
333.909,-45.926480952381006
336.721,-71.5448380952381
339.531,-59.78693333333334
342.339,-36.85240952380953
345.145,-16.98784761904761
347.949,13.990719999999996
350.751,9.078186190476192
353.55,8.842287142857147
356.348,-2.90967095238096
359.144,-2.0831452380952147
361.937,15.084569047619084
364.729,47.78608619047624
367.518,68.88264476190483
370.306,117.47470476190486
373.091,199.42642857142874
375.874,297.65102857142875
378.656,350.30127619047636
381.435,323.4364238095239
384.212,213.87957142857144
386.988,96.26447619047623
389.761,43.75065238095242
392.532,24.213300000000025
395.301,11.481695238095234
398.068,2.815604761904748
400.833,-34.71397428571432
403.596,-56.320262380952386
406.358,-40.35744
409.117,-23.987512380952378
411.874,-11.275455238095232
414.629,20.81064038095238
417.382,10.161560380952386
420.133,4.6693936190476455
422.882,22.94234628571433
425.629,79.58989219047629
428.374,151.794150857143
431.117,250.21520895238115
433.858,297.41880952380967
436.597,291.0672380952382
439.334,247.10985714285727
442.069,231.7827142857144
444.802,200.1323333333335
447.533,194.77819047619062
450.262,221.2923809523811
452.989,247.58171428571447
455.714,304.172723809524
458.438,318.4022000000001
461.159,246.22694761904768
463.878,163.03296190476198
466.595,96.8259190476191
469.31,55.80304761904771
472.024,114.0188238095239
474.735,127.48065714285723
477.444,151.67278095238106
480.152,180.41330476190487
482.857,190.85428571428582
485.561,198.24338095238107
488.262,213.0661904761906
490.962,202.0947142857144
493.659,204.05357142857153
496.355,187.09633333333343
499.048,175.9960000000001
501.74,141.95416666666674
504.43,115.88647619047629
507.118,147.280642857143
509.804,174.57700000000014
512.488,231.9773095238097
515.17,294.01700000000017
517.85,289.80309523809535
520.528,254.53733333333346
523.204,224.70761904761912
525.878,174.08785714285725
528.551,176.30809523809535
531.221,179.61795238095246
533.89,174.07619047619056
536.556,144.836761904762
539.221,149.76785714285728
541.883,170.16625714285726
544.544,145.3754714285715
547.203,135.54894285714295
549.86,110.31564761904765
552.515,100.01908571428584
555.168,131.4309238095239
557.819,186.37030476190486
560.469,170.03640476190486
563.116,200.8669047619049
565.761,212.34652380952394
568.405,234.48328571428584
571.047,226.61857142857153
573.687,245.09333333333348
576.324,229.20014285714296
578.96,213.32680952380963
581.594,214.14619047619058
584.227,218.0927142857144
586.857,220.64809523809538
589.485,254.9603333333335
592.112,234.55809523809535
594.737,232.06437142857158
597.359,195.19741904761912
599.98,167.10355238095246
602.599,151.64239047619057
605.216,180.19760000000014
607.831,170.3427523809525
610.445,200.26937142857156
613.056,193.40757142857154
615.666,177.04361904761916
618.274,166.84452380952393
620.88,194.14361904761918
623.484,220.55923809523827
626.086,246.85200000000017
628.686,290.87795238095254
631.284,320.11128571428594
633.881,352.93133333333355
636.476,373.2400000000002
639.068,382.03400000000016
641.659,348.9294285714287
644.249,316.1130666666668
646.836,252.29512380952391
649.421,175.37645238095246
652.005,138.4000476190477
654.587,103.17043333333339
657.166,111.06419047619055
659.745,100.8377666666667
662.321,85.20004761904764
664.895,38.193233333333346
667.468,17.57362857142858
670.038,13.954519047619094
672.607,35.85415238095239
675.174,47.07616666666672
677.739,79.18593333333337
680.303,98.03467619047626
682.864,113.33091428571436
685.424,123.0210047619048
687.982,99.19427619047624
690.538,76.55908571428574
693.092,44.25204761904765
695.645,47.31485714285718
698.195,56.83697380952383
700.744,38.09821714285715
703.291,22.18804571428571
705.836,-9.994465714285726
708.38,-13.788302857142835
710.921,10.610560285714302
713.461,9.768123380952396
715.999,41.48864390476196
718.535,66.48137090476195
721.069,105.93166961904771
723.602,136.16779909523817
726.133,129.61348790476194
728.662,83.31160952380958
731.189,77.92426190476195
733.714,49.39950476190481
736.238,78.97074761904767
738.759,85.72899523809528
741.279,92.33672857142861
743.798,87.64687142857147
746.314,95.84609047619053
748.829,76.07313809523815
751.342,87.13350952380958
753.853,89.69032380952386
756.362,82.02565238095241
758.869,68.27879523809527
761.375,70.25607619047622
763.879,63.76354285714291
766.381,61.559909523809566
768.882,71.40399523809529
771.38,92.81669523809532
773.877,107.27117619047627
776.372,126.66965238095244
778.866,138.58046666666672
781.357,128.62043809523817
783.847,125.26326666666675
786.335,136.3161714285715
788.821,138.15780952380962
791.306,141.7862857142858
793.789,150.10395238095248
796.27,136.44238095238103
798.749,135.51414285714296
801.227,164.7936666666668
803.702,202.56533333333346
806.176,218.25652380952397
808.649,230.48466666666678
811.119,208.91509523809535
813.588,196.45161904761918
816.055,212.56952380952393
818.521,228.3155714285716
820.984,219.6891904761906
823.446,193.7847142857144
825.906,193.6494285714287
828.365,208.9973809523811
830.821,230.06638095238108
833.276,227.57066666666677
835.729,189.12914285714294
838.181,144.40857142857152
840.631,151.17109523809535
843.079,166.94114285714295
845.525,185.81413333333342
847.97,168.12451904761912
850.412,124.63472380952386
852.854,95.91718571428578
855.293,101.49646666666672
857.731,79.23106666666669
860.167,69.26497619047622
862.601,58.599795238095254
865.034,34.85602857142861
867.465,58.60697619047626
869.894,93.47315238095243
872.321,102.74238095238104
874.747,114.41668571428576
877.171,93.06972380952384
879.594,69.2749952380953
882.014,78.51153333333338
884.433,79.59112857142864
886.851,108.51638095238103
889.266,155.4804857142858
891.68,174.4387142857144
894.092,206.34628571428584
896.503,210.39704761904773
898.912,203.11752380952393
901.319,193.98738095238105
903.724,182.53342857142866
906.128,163.47357142857155
908.53,154.1922857142858
910.931,155.64542857142868
913.329,170.5506666666668
915.726,184.38819047619057
918.122,192.4949523809525
920.516,209.44633333333346
922.908,216.19857142857157
925.298,183.13657142857153
927.687,169.83590476190486
930.074,146.34800000000004
932.459,112.77242857142865
934.843,125.35115238095246
937.225,142.08851428571433
939.605,98.32222190476196
941.984,65.19958380952383
944.361,38.53418190476193
946.736,41.663840000000064
949.11,59.64046523809528
951.482,77.27811238095241
953.853,67.1050480952381
956.222,38.4114428571429
958.589,62.72536428571437
960.954,99.24182380952385
963.318,110.72712857142862
965.68,108.85229523809528
968.041,80.5740285714286
970.4,49.27749047619051
972.757,45.776219047619065
975.113,26.55062952380954
977.467,18.652293333333347
979.819,15.561310952380953
982.17,1.233831428571436
984.519,7.673483333333354
986.866,21.693290476190505
989.212,47.43948142857147
991.556,55.39151619047624
993.899,95.69510476190484
996.24,118.59162857142863
998.579,138.55969523809532
1000.92,133.4114857142858
1003.25,119.76843809523815
1005.59,94.58515238095245
1007.92,81.24443809523814
1010.25,74.22479047619052
1012.58,76.86068571428576
1014.91,93.96350476190483
1017.24,102.2010047619048
1019.56,93.24087142857145
1021.88,92.94120476190483
1024.2,91.20752380952385
1026.52,91.18303333333343
1028.84,133.0589238095239
1031.16,138.1683333333334
1033.48,123.65420476190485
1035.79,159.4213238095239
1038.1,178.13595238095252
1040.41,220.13109523809538
1042.72,247.16800000000012
1045.03,248.15052380952397
1047.33,243.2206190476192
1049.64,230.99625714285725
1051.94,191.42854285714296
1054.24,167.5640857142858
1056.54,120.54407619047625
1058.84,108.17670476190486
1061.13,108.55520952380961
1063.43,128.2019238095239
1065.72,147.87657142857154
1068.01,169.29157142857156
1070.3,183.96847619047628
1072.59,176.28623809523816
1074.87,153.86147619047625
1077.16,146.64433333333344
1079.44,173.01323809523822
1081.72,199.39400000000015
1084.0,240.49819047619064
1086.28,285.8948095238097
1088.56,395.48585714285747
1090.84,521.9822380952384
1093.11,609.4291904761908
1095.38,616.8711428571431
1097.65,561.0669523809527
1099.92,469.2516190476193
1102.19,417.13647619047646
1104.46,399.00366666666685
1106.72,374.1837142857146
1108.98,363.10195238095264
1111.24,382.9930952380955
1113.5,416.2823809523813
1115.76,465.63347619047653
1118.02,529.5187142857145
1120.28,534.839904761905
1122.53,529.7363333333336
1124.78,502.72833333333364
1127.03,441.9080476190478
1129.28,383.9864761904764
1131.53,359.0553333333335
1133.77,284.4925238095239
1136.02,253.58000000000015
1138.26,220.4574761904763
1140.5,193.4550952380954
1142.74,204.18842857142872
1144.98,239.32100000000014
1147.22,264.04023809523824
1149.45,273.86676190476203
1151.69,266.6549047619049
1153.92,228.1156666666668
1156.15,188.8173333333334
1158.38,180.4710761904763
1160.61,165.40750476190485
1162.83,139.9573714285715
1165.06,119.59397619047623
1167.28,91.98135238095244
1169.5,73.87869047619054
1171.72,96.47384761904769
1173.94,121.57391904761914
1176.16,137.5578857142858
1178.37,127.47097619047624
1180.58,103.88257142857145
1182.8,63.26648571428574
1185.01,44.66840380952385
1187.22,47.51501571428573
1189.42,28.709529047619064
1191.63,33.536008095238124
1193.84,27.183419523809544
1196.04,41.031353809523864
1198.24,58.79278714285717
1200.44,95.84777428571435
1202.64,76.14750523809526
1204.84,98.83423904761909
1207.03,74.09759952380955
1209.23,53.69900571428573
1211.42,28.352394761904794
1213.61,37.24826142857143
1215.8,-8.089744761904747
1217.99,27.148355714285746
1220.18,44.20075047619051
1222.36,48.020396666666706
1224.55,55.4651085714286
1226.73,55.20236666666669
1228.91,33.56649047619052
1231.09,52.177614285714334
1233.27,80.46567142857148
1235.44,90.38427142857148
1237.62,91.45873333333338
1239.79,83.40498571428577
1241.96,69.79602857142864
1244.13,89.91954761904772
1246.3,123.5872761904763
1248.47,187.46767142857158
1250.64,218.51526666666678
1252.8,237.11352380952394
1254.96,246.5978571428573
1257.13,271.25666666666683
1259.29,294.85452380952404
1261.44,347.0126190476193
1263.6,358.82904761904786
1265.76,367.7352857142859
1267.91,350.5911904761906
1270.06,297.4952380952382
1272.22,247.9264285714287
1274.37,206.07814285714295
1276.51,184.04904761904777
1278.66,185.080142857143
1280.81,175.17466666666675
1282.95,178.57400000000013
1285.09,172.18614285714295
1287.23,190.0144285714287
1289.37,213.0147142857144
1291.51,200.19042857142867
1293.65,182.97357142857155
1295.78,164.79619047619056
1297.92,132.8048095238096
1300.05,149.0500000000001
1302.18,154.0115238095239
1304.31,151.07404761904772
1306.44,165.38390476190486
1308.57,161.94480952380965
1310.69,186.90319047619062
1312.82,227.88104761904776
1314.94,223.02480952380964
1317.06,205.766761904762
1319.18,192.3961904761906
1321.3,206.82142857142873
1323.41,230.52176190476212
1325.53,303.595523809524
1327.64,364.9512380952383
1329.75,401.2586666666669
1331.87,436.90238095238124
1333.98,456.5996666666669
1336.08,417.25842857142885
1338.19,409.07223809523833
1340.3,378.28247619047636
1342.4,328.5109047619049
1344.5,273.7129047619049
1346.6,213.51028571428583
1348.7,188.57295238095253
1350.8,194.8081904761906
1352.9,183.02814285714294
1354.99,177.66385714285724
1357.09,177.95580952380962
1359.18,172.8586190476192
1361.27,202.7559047619049
1363.36,205.0782857142858
1365.45,193.11357142857156
1367.54,201.67333333333346
1369.62,208.18823809523823
1371.7,235.99290476190492
1373.79,264.18471428571445
1375.87,265.621761904762
1377.95,262.82957142857157
1380.03,254.0949047619049
1382.1,220.94318095238108
1384.18,187.08932380952388
1386.25,153.6771714285715
1388.33,131.08815238095247
1390.4,120.13270476190483
1392.47,96.90613333333339
1394.54,82.98055776190479
1396.6,37.54633716666668
1398.67,35.507917190476235
1400.74,31.722540690476226
1402.8,64.09445052380958
1404.86,92.57559907142864
1406.92,107.02241490476194
1408.98,99.95781428571436
1411.04,104.2377571428572
1413.09,107.48041904761914
1415.15,119.35099523809531
1417.2,152.37206666666677
1419.25,157.63738095238102
1421.3,167.2405238095239
1423.35,158.798761904762
1425.4,168.0245238095239
1427.45,151.53476190476198
1429.49,150.6133333333334
1431.54,127.97225238095245
1433.58,107.84734761904767
1435.62,95.85524285714293
1437.66,106.70790000000008
1439.7,108.64082380952388
1441.74,116.69903333333342
1443.77,125.54654285714292
1445.81,107.18072380952388
1447.84,98.6940571428572
1449.87,83.51239523809527
1451.9,77.91859047619053
1453.93,81.19513809523816
1455.96,104.29150476190485
1457.98,144.15704285714298
1460.01,181.9315904761906
1462.03,211.42176190476206
1464.05,250.672142857143
1466.07,278.0129523809526
1468.09,283.4886190476192
1470.11,331.23866666666686
1472.13,353.5459523809526
1474.14,369.07400000000024
1476.16,389.77185714285736
1478.17,364.44604761904776
1480.18,302.28395238095254
1482.19,263.66352380952395
1484.2,208.343761904762
1486.21,177.46422857142866
1488.21,156.92681904761912
1490.22,120.5856952380953
1492.22,99.67606952380959
1494.22,76.9570985714286
1496.22,40.473406190476226
1498.22,30.507862380952396
1500.22,22.772243333333368
1502.22,36.97820142857147
1504.21,62.69460333333336
1506.21,48.91896952380952
1508.2,25.506066666666673
1510.19,12.358339047619056
1512.18,2.521248571428586
1514.17,13.040340000000027
1516.16,41.2469904761905
1518.14,28.472693333333353
1520.13,45.28703142857147
1522.11,69.30745142857145
1524.09,57.96099619047622
1526.07,54.72237523809527
1528.05,47.4949780952381
1530.03,28.420379047619086
1532.01,40.06875619047623
1533.98,61.62957523809527
1535.96,52.14946190476195
1537.93,62.246509523809564
1539.9,68.30089047619052
1541.87,86.35946190476196
1543.84,98.56450952380956
1545.81,84.43924285714289
1547.78,76.03082380952387
1549.74,84.43396666666672
1551.7,92.55315714285723
1553.67,119.38827142857151
1555.63,142.60583809523817
1557.59,148.11014285714296
1559.55,180.04429523809534
1561.5,161.1700333333334
1563.46,157.5826761904763
1565.41,138.8063857142858
1567.37,130.174761904762
1569.32,131.7354238095239
1571.27,148.20303809523818
1573.22,135.53051428571436
1575.17,153.62270476190483
1577.11,144.5755238095239
1579.06,136.8180476190477
1581.0,133.30341904761914
1582.95,117.93672857142863
1584.89,108.52836190476197
1586.83,131.12655714285722
1588.77,147.35098095238106
1590.7,160.29768095238109
1592.64,192.82465714285726
1594.58,194.24209761904774
1596.51,186.93181904761926
1598.44,175.39463809523843
