Raman Shift,Processed Intensity
331.095,112.1387904761902
333.909,33.845504761904664
336.721,-0.6218738095238479
339.531,-6.308061904761894
342.339,-13.567599999999981
345.145,9.245370476190486
347.949,18.89691952380952
350.751,0.9635542857142899
353.55,18.784620476190508
356.348,20.081380000000006
359.144,34.242799523809566
361.937,32.325407619047645
364.729,73.95838000000009
367.518,104.24787142857154
370.306,196.5872380952383
373.091,294.1799380952383
375.874,407.2308666666669
378.656,441.99376190476215
381.435,418.1999047619049
384.212,307.9621142857144
386.988,160.49019428571432
389.761,49.756607904761935
392.532,-4.931233047619033
395.301,-22.931149428571427
398.068,-28.36159361904761
400.833,-13.292308476190492
403.596,-14.601044000000005
406.358,-13.687964952380959
409.117,-18.38053095238097
411.874,-18.50480952380953
414.629,-13.028473809523806
417.382,-8.679714285714272
420.133,10.147728571428601
422.882,45.25210952380959
425.629,89.67051428571439
428.374,177.82240000000016
431.117,255.36613809523823
433.858,308.9615523809525
436.597,299.5547142857144
439.334,245.37876190476203
442.069,199.61985714285726
444.802,183.46480952380966
447.533,171.81580952380966
450.262,211.71880952380968
452.989,255.41071428571442
455.714,274.748142857143
458.438,293.39832380952396
461.159,251.50465714285724
463.878,181.35455238095244
466.595,120.4737333333334
469.31,83.81722857142864
472.024,84.57839047619056
474.735,115.0941714285715
477.444,121.27340000000007
480.152,135.31091428571435
482.857,144.30662857142866
485.561,148.93238095238104
488.262,169.14609523809534
490.962,195.4297142857144
493.659,206.55114285714296
496.355,206.70714285714297
499.048,198.52323809523818
501.74,171.52985714285722
504.43,149.8291904761906
507.118,143.90500000000011
509.804,169.28790476190488
512.488,205.74738095238106
515.17,259.9577142857144
517.85,259.3072380952382
520.528,234.13675238095243
523.204,163.0734190476191
525.878,114.21993333333339
528.551,78.29843809523818
531.221,126.98367619047629
533.89,115.75960952380957
536.556,100.2053904761905
539.221,49.709952380952394
541.883,41.37620952380958
544.544,56.06936190476199
547.203,119.51126666666674
549.86,140.32891428571435
552.515,153.95827619047628
555.168,133.40695238095248
557.819,138.20585714285724
560.469,156.219761904762
563.116,161.31271428571438
565.761,172.9680000000001
568.405,162.85871428571437
571.047,154.03904761904772
573.687,178.42009523809534
576.324,204.1982380952382
578.96,193.23652380952393
581.594,195.8260000000001
584.227,179.3529523809525
586.857,180.679142857143
589.485,187.80942857142867
592.112,196.65282857142864
594.737,147.07047142857147
597.359,119.44703809523817
599.98,133.97638571428584
602.599,166.37532380952393
605.216,191.98032857142871
607.831,221.03163809523818
610.445,189.72166666666675
613.056,142.71904761904773
615.666,135.26266666666675
618.274,134.54414285714296
620.88,148.23071428571438
623.484,144.22709523809533
626.086,188.8667142857144
628.686,212.72080952380963
631.284,246.07380952380967
633.881,269.7343809523811
636.476,283.98652380952393
639.068,266.6857142857145
641.659,280.30623809523826
644.249,257.7028571428572
646.836,227.301142857143
649.421,194.2884761904763
652.005,149.757061904762
654.587,115.27470476190483
657.166,93.50465238095245
659.745,79.68082857142863
662.321,74.37030476190482
664.895,90.71175238095243
667.468,90.60533809523815
670.038,92.99868571428577
672.607,68.0300142857143
675.174,39.741857142857164
677.739,37.03402857142862
680.303,50.044480952381
682.864,96.95825714285722
685.424,128.57980380952384
687.982,96.47533714285716
690.538,63.73482190476193
693.092,46.972120000000025
695.645,25.22951238095243
698.195,56.73980380952385
700.744,64.40262285714289
703.291,66.35563333333337
705.836,70.59368095238098
708.38,62.492733333333355
710.921,54.000138095238114
713.461,21.206323809523802
715.999,7.297042857142884
718.535,10.220071428571448
721.069,30.828114285714324
723.602,51.92642380952385
726.133,69.1299142857143
728.662,52.33942380952385
731.189,61.97971904761908
733.714,54.57095238095241
736.238,50.44294285714289
738.759,60.973319047619086
741.279,62.68260952380956
743.798,59.04389047619052
746.314,66.24463333333337
748.829,62.901052380952414
751.342,76.4864990476191
753.853,83.71275380952383
756.362,66.2438742857143
758.869,48.458393809523834
761.375,45.83015047619051
763.879,30.21405857142861
766.381,54.08403238095243
768.882,77.29543333333339
771.38,95.79840476190485
773.877,109.44828571428579
776.372,105.71948857142861
778.866,58.46743857142859
781.357,33.690477142857176
783.847,33.863442380952414
786.335,31.317962857142884
788.821,46.767014761904804
791.306,75.8282790476191
793.789,85.16733333333339
796.27,118.30672380952389
798.749,138.53113333333343
801.227,153.83966666666674
803.702,168.85038095238104
806.176,177.03871428571438
808.649,169.3565714285715
811.119,156.51738095238102
813.588,139.28238095238106
816.055,137.4605714285715
818.521,138.48016190476199
820.984,127.2457571428572
823.446,117.42384761904769
825.906,112.63349047619054
828.365,103.4936190476191
830.821,107.19477619047628
833.276,135.3562476190477
835.729,164.64486666666676
838.181,154.4420238095239
840.631,150.03403809523817
843.079,120.42141428571435
845.525,119.60482857142867
847.97,126.87080000000009
850.412,131.60106190476193
852.854,101.70147428571433
855.293,59.31590285714287
857.731,26.92171047619051
860.167,31.710654285714313
862.601,33.44611523809527
865.034,42.32003619047622
867.465,54.14354571428572
869.894,41.44217619047622
872.321,28.4081904761905
874.747,39.51976190476195
877.171,54.302695238095296
879.594,109.42578095238106
882.014,140.1291857142858
884.433,165.22471428571436
886.851,162.76223809523816
889.266,146.26814285714295
891.68,164.93527619047632
894.092,170.4806095238096
896.503,165.85902857142867
898.912,176.9307238095239
901.319,158.74607619047626
903.724,149.9267047619049
906.128,165.6660857142858
908.53,149.63380952380965
910.931,150.9279714285715
913.329,141.3140190476191
915.726,105.12834761904769
918.122,97.70726666666673
920.516,96.76849047619056
922.908,114.9816095238096
925.298,110.11189523809527
927.687,106.78175238095244
930.074,100.75666190476196
932.459,83.80190952380958
934.843,86.01621428571433
937.225,104.87881428571434
939.605,91.25068095238099
941.984,72.56370952380955
944.361,47.9645
946.736,18.932661904761922
949.11,5.900380952380974
951.482,16.87098571428574
953.853,41.03873333333336
956.222,47.83571904761908
958.589,64.83672380952386
960.954,71.28355238095241
963.318,83.32255714285719
965.68,96.3381190476191
968.041,91.42889523809527
970.4,76.97919047619051
972.757,64.08736190476192
975.113,43.661597142857175
977.467,34.56218523809525
979.819,29.220709523809525
982.17,9.30684190476191
984.519,1.6330057142857237
986.866,12.24956285714289
989.212,26.682965714285743
991.556,61.60259857142863
993.899,87.86762952380958
996.24,115.76644285714292
998.579,121.96765238095244
1000.92,125.9017714285715
1003.25,92.33252380952385
1005.59,75.5950142857143
1007.92,44.16657142857146
1010.25,39.9537285714286
1012.58,27.528819047619074
1014.91,51.89277619047624
1017.24,63.99877142857147
1019.56,94.22840000000006
1021.88,102.58198095238103
1024.2,121.86903809523818
1026.52,138.3756142857144
1028.84,149.7682857142858
1031.16,166.61781904761918
1033.48,167.44800952380962
1035.79,162.25790476190488
1038.1,187.09423809523824
1040.41,239.7183333333335
1042.72,256.6054285714287
1045.03,270.9920000000001
1047.33,217.30561904761916
1049.64,185.25919047619058
1051.94,181.04147619047635
1054.24,195.2222285714287
1056.54,184.46625238095248
1058.84,160.39074285714293
1061.13,118.32670000000007
1063.43,124.6536000000001
1065.72,157.13058571428581
1068.01,187.4222761904763
1070.3,188.52619047619058
1072.59,188.20209523809535
1074.87,190.35157142857156
1077.16,198.68700000000013
1079.44,222.91942857142874
1081.72,264.99861904761923
1084.0,308.96938095238124
1086.28,399.5433333333336
1088.56,521.6698095238099
1090.84,662.3461428571433
1093.11,786.8547142857149
1095.38,792.6211428571432
1097.65,705.0709047619051
1099.92,573.5817142857145
1102.19,435.1507142857145
1104.46,395.29847619047644
1106.72,401.30771428571455
1108.98,397.98466666666695
1111.24,443.9455238095241
1113.5,514.3294285714289
1115.76,566.7051428571432
1118.02,613.402666666667
1120.28,600.2285714285717
1122.53,556.131904761905
1124.78,535.2527619047621
1127.03,493.016142857143
1129.28,408.5148095238097
1131.53,332.5074761904764
1133.77,254.4196666666668
1136.02,212.72500000000014
1138.26,229.0870952380954
1140.5,243.6459523809525
1142.74,243.9705714285716
1144.98,251.91538095238113
1147.22,261.477523809524
1149.45,278.702523809524
1151.69,280.9210476190478
1153.92,262.8926666666668
1156.15,215.13885714285726
1158.38,161.56242857142868
1160.61,142.54190476190487
1162.83,142.36146666666676
1165.06,128.4001095238096
1167.28,128.89418095238102
1169.5,98.60385714285718
1171.72,93.95646190476195
1173.94,72.04549523809526
1176.16,51.29859047619048
1178.37,23.857342857142882
1180.58,31.48271904761907
1182.8,27.792909523809556
1185.01,42.73962
1187.22,30.560403333333344
1189.42,12.588168571428568
1191.63,-2.415469999999994
1193.84,-1.450688571428561
1196.04,17.910993809523838
1198.24,32.7649104761905
1200.44,50.063628571428595
1202.64,41.28360476190477
1204.84,32.66336190476193
1207.03,31.489165714285743
1209.23,31.19017857142859
1211.42,21.338580000000007
1213.61,16.60185285714286
1215.8,7.695156190476199
1217.99,7.38143238095239
1220.18,6.614185714285714
1222.36,7.966051904761912
1224.55,8.152601428571435
1226.73,3.603803333333346
1228.91,23.702080476190506
1231.09,41.78236476190479
1233.27,45.27490333333337
1235.44,49.56242952380954
1237.62,36.50386666666668
1239.79,35.053733333333376
1241.96,55.21383809523814
1244.13,70.70059047619054
1246.3,93.84930000000007
1248.47,98.61488571428578
1250.64,107.14231428571438
1252.8,125.86262857142864
1254.96,155.54020952380964
1257.13,184.36804761904773
1259.29,208.96733333333344
1261.44,230.57914285714298
1263.6,226.53938095238107
1265.76,196.13628571428583
1267.91,184.13485714285724
1270.06,175.68061904761916
1272.22,159.0141904761906
1274.37,170.18600000000012
1276.51,159.5802857142858
1278.66,132.53304761904772
1280.81,140.61861904761915
1282.95,132.9830000000001
1285.09,132.58171428571438
1287.23,144.1792857142858
1289.37,138.35052380952388
1291.51,121.05066666666676
1293.65,124.85391428571434
1295.78,104.1922333333334
1297.92,102.83072857142864
1300.05,86.72457619047623
1302.18,61.781728571428616
1304.31,65.29096666666672
1306.44,79.58848095238102
1308.57,111.20137142857152
1310.69,138.5134476190477
1312.82,166.43258095238104
1314.94,177.86638095238106
1317.06,198.38938095238106
1319.18,199.52828571428586
1321.3,211.66704761904776
1323.41,218.09409523809538
1325.53,257.1933333333335
1327.64,286.4438095238097
1329.75,337.80085714285735
1331.87,338.1244285714288
1333.98,326.7980000000002
1336.08,306.681142857143
1338.19,279.63371428571446
1340.3,262.18195238095257
1342.4,261.32838095238105
1344.5,217.26614285714297
1346.6,173.18820000000008
1348.7,130.90624761904766
1350.8,100.27971428571436
1352.9,88.92963809523816
1354.99,107.2865714285715
1357.09,100.16226190476198
1359.18,129.93962857142867
1361.27,136.62070000000006
1363.36,157.1594000000001
1365.45,155.27180476190486
1367.54,161.864161904762
1369.62,163.69985714285727
1371.7,198.87557142857156
1373.79,235.44038095238113
1375.87,290.5858571428573
1377.95,306.78919047619064
1380.03,308.24209523809543
1382.1,278.42138095238107
1384.18,232.94704761904777
1386.25,208.1530476190477
1388.33,182.18286666666674
1390.4,138.22728571428578
1392.47,114.66773809523814
1394.54,68.55178190476194
1396.6,35.4033104761905
1398.67,22.127025714285725
1400.74,15.38931809523812
1402.8,37.5231971428572
1404.86,67.62335333333337
1406.92,73.64154380952385
1408.98,74.62459523809527
1411.04,73.71446190476195
1413.09,66.95770952380957
1415.15,71.68655714285718
1417.2,74.47110952380956
1419.25,77.69099047619054
1421.3,99.34468571428579
1423.35,111.66859523809529
1425.4,118.70872380952386
1427.45,93.03458095238099
1429.49,73.072780952381
1431.54,66.72610857142861
1433.58,51.278168095238115
1435.62,36.10765047619051
1437.66,47.3075985714286
1439.7,47.39933619047622
1441.74,47.33274428571432
1443.77,61.343380000000025
1445.81,53.42863809523813
1447.84,65.44279047619054
1449.87,85.66892857142862
1451.9,95.5804190476191
1453.93,98.93640952380957
1455.96,106.92422380952387
1457.98,115.44567142857152
1460.01,140.44990952380962
1462.03,170.60066666666677
1464.05,198.37109523809534
1466.07,215.75800000000015
1468.09,256.7104285714288
1470.11,289.7968095238097
1472.13,311.63261904761924
1474.14,329.2149523809525
1476.16,336.73085714285736
1478.17,304.31995238095254
1480.18,289.8837142857144
1482.19,248.94280000000012
1484.2,199.44604285714294
1486.21,134.58099047619052
1488.21,87.53459523809528
1490.22,62.68486666666672
1492.22,62.50456666666672
1494.22,67.94300476190482
1496.22,89.66355238095244
1498.22,77.23460952380957
1500.22,71.4626190476191
1502.22,84.67796000000004
1504.21,68.59188619047622
1506.21,45.10626285714289
1508.2,52.88471952380956
1510.19,37.30552095238098
1512.18,37.88966904761908
1514.17,59.92021619047621
1516.16,43.87074952380954
1518.14,30.357800952380977
1520.13,30.617005714285717
1522.11,21.217470476190496
1524.09,12.204580000000016
1526.07,27.52856952380954
1528.05,17.47314380952383
1530.03,37.84587428571433
1532.01,67.2639752380953
1533.98,84.05904190476193
1535.96,55.086628571428584
1537.93,46.20230952380955
1539.9,48.54764285714292
1541.87,80.8355857142858
1543.84,126.92196190476199
1545.81,134.80564761904768
1547.78,111.62860000000008
1549.74,113.10420000000006
1551.7,114.4221238095239
1553.67,130.77218095238106
1555.63,169.48684761904772
1557.59,170.47076190476199
1559.55,171.62795238095248
1561.5,181.05352380952394
1563.46,175.98528571428585
1565.41,166.8515238095239
1567.37,170.17585714285724
1569.32,149.62547619047626
1571.27,146.2950476190477
1573.22,151.99466666666675
1575.17,162.48638095238104
1577.11,157.96080952380962
1579.06,162.65623809523822
1581.0,153.85919047619058
1582.95,173.9032857142858
1584.89,176.59861904761914
1586.83,189.27933333333343
1588.77,194.61266666666677
1590.7,186.59914285714294
1592.64,159.1923333333334
1594.58,146.6548333333335
1596.51,153.5351190476194
1598.44,190.1673571428577
