Raman Shift,Processed Intensity
331.095,138.89857182140895
333.909,227.4198857023298
336.721,225.8095315938681
339.531,177.0675233838656
342.339,136.8129503548862
345.145,140.80780059588596
347.949,160.38554631863053
350.751,172.54639584078132
353.55,202.4811169975642
356.348,213.9520034105758
359.144,244.72145980421237
361.937,265.5996349411448
364.729,269.53967360541856
367.518,287.20915906174196
370.306,294.4186983719228
373.091,335.9790791398741
375.874,409.08223578044044
378.656,455.3965015025019
381.435,434.59043172066094
384.212,381.42805603836086
386.988,269.48317785003746
389.761,155.99653108613393
392.532,77.87579410096987
395.301,23.838460703460896
398.068,-6.3976697645257445
400.833,-16.066859492686945
403.596,1.596962637980596
406.358,-17.735023794612516
409.117,-39.05794771552155
411.874,-102.17609192616692
414.629,-89.369549821914
417.382,-82.72755289542874
420.133,-34.48180984342025
422.882,-10.435093805946508
425.629,27.133970664825938
428.374,80.56611696968093
431.117,185.39283521991956
433.858,230.0982471854054
436.597,277.40479076642123
439.334,255.46366637028723
442.069,225.0452832879655
444.802,224.9201822611467
447.533,204.4780532874379
450.262,199.1562772350785
452.989,228.77322936241626
455.714,220.3853923611864
458.438,225.8587551140913
461.159,201.2497352618857
463.878,162.9956255800057
466.595,137.39075464090092
469.31,106.6816950954094
472.024,83.35294814460894
474.735,77.9364375354694
477.444,62.91624165175972
480.152,63.06189703350583
482.857,33.80932879636475
485.561,24.451311329750297
488.262,66.8517450243321
490.962,115.3504128064069
493.659,165.1915488478894
496.355,219.23812849837032
499.048,223.68615821715366
501.74,193.39801312435748
504.43,205.33101264723882
507.118,236.29932949985596
509.804,259.40256532939793
512.488,365.2638501720344
515.17,430.45841809924514
517.85,480.32313524509755
520.528,557.8612659287633
523.204,617.5043816341681
525.878,629.1123652277415
528.551,667.7829389856893
531.221,639.708811668886
533.89,625.8443494072849
536.556,612.2865322986122
539.221,598.6559110070639
541.883,585.42994431439
544.544,602.6572890519278
547.203,617.0530424135891
549.86,592.9987461736105
552.515,604.8281051900144
555.168,634.9698487652231
557.819,657.7096396257089
560.469,710.8091257587971
563.116,761.505944630414
565.761,753.2756321647412
568.405,772.498293628636
571.047,764.4586078493808
573.687,742.2505933372013
576.324,714.5395172649328
578.96,712.9428520667252
581.594,718.2683748938971
584.227,726.89512421365
586.857,680.7734040268206
589.485,606.0438357046887
592.112,519.5135526829199
594.737,500.8466808698058
597.359,515.8500571497302
599.98,565.4732336009379
602.599,611.2846721894771
605.216,620.424129939352
607.831,647.6979012455054
610.445,695.3883459011054
613.056,713.4443695057844
615.666,745.9099991119615
618.274,810.591054109273
620.88,885.2456266327913
623.484,1003.0602762569747
626.086,1120.7928913562719
628.686,1217.725074275259
631.284,1278.4240503083006
633.881,1289.3617195363504
636.476,1235.4860896161426
639.068,1168.6022323788998
641.659,1089.0389547147583
644.249,1006.3154694571913
646.836,883.5699710293343
649.421,742.4644015664971
652.005,573.0892170386719
654.587,443.8681533730446
657.166,337.4153735288819
659.745,269.7735669533695
662.321,198.65204903746417
664.895,126.71247961935751
667.468,64.33077196413751
670.038,43.26376364819862
672.607,55.41112553889889
675.174,56.72012791708039
677.739,62.75707763738501
680.303,38.70732671714677
682.864,37.42289997289936
685.424,15.851075037836381
687.982,8.510585308545615
690.538,-25.984554313758963
693.092,-32.82979148952154
695.645,-13.601446298792325
698.195,15.171876131866156
700.744,0.29501234409553945
703.291,-12.522319873370634
705.836,-32.95122323168789
708.38,-45.853132182496665
710.921,-21.61313497944775
713.461,-17.85425160460045
715.999,17.562569112251822
718.535,62.44321203303616
721.069,79.83182307394964
723.602,97.77271275848534
726.133,84.88178357998595
728.662,48.203671649901935
731.189,38.64031691748778
733.714,51.665247675206956
736.238,35.70453173080023
738.759,59.94629900793302
741.279,51.055026051599725
743.798,43.219153866861916
746.314,47.62727718616452
748.829,45.94433373664356
751.342,-5.021730302074957
753.853,5.299086112296891
756.362,-9.999257562256616
758.869,-7.917892279976741
761.375,1.8755308123691066
763.879,18.5706476903606
766.381,27.214379242979476
768.882,67.23473858747843
771.38,79.82178124138568
773.877,77.59426958022709
776.372,65.64728967620363
778.866,87.59986813686623
781.357,99.78544608666311
783.847,124.91854362466779
786.335,128.5233290442145
788.821,139.3621880525268
791.306,150.7690548951116
793.789,187.0779815753874
796.27,206.5755165981309
798.749,262.738797998629
801.227,308.99745589564463
803.702,379.6859912348548
806.176,429.9961545322942
808.649,456.45313414160796
811.119,448.9631730927333
813.588,440.3373764067692
816.055,432.38694698227346
818.521,395.97080243394566
820.984,352.7574776455915
823.446,318.55845589451906
825.906,264.66149997592333
828.365,218.30684047012983
830.821,195.3062211526917
833.276,184.04289678544274
835.729,183.37639281230713
838.181,169.2139317217816
840.631,168.08185940941348
843.079,146.12564296885148
845.525,135.96701134004456
847.97,164.79919119552096
850.412,186.19642854096878
852.854,173.82827222057085
855.293,172.45957170805605
857.731,128.2838082310859
860.167,91.11356875278352
862.601,66.38054376278615
865.034,25.56409649687157
867.465,0.19126072801782357
869.894,-18.49659477587693
872.321,-0.9723398895059745
874.747,35.19596229918079
877.171,67.67838473189886
879.594,43.716465524914156
882.014,21.980346637739103
884.433,12.521150637068558
886.851,37.151928889289366
889.266,58.68575261012393
891.68,86.69761343808864
894.092,91.90537162699343
896.503,84.36022804797153
898.912,85.82767238198471
901.319,95.02557416946706
903.724,91.814654812355
906.128,114.72229290944665
908.53,115.8949010203321
910.931,115.62173100075483
913.329,109.71582219511379
915.726,114.466378200402
918.122,124.63876267775959
920.516,129.71259040212658
922.908,130.97696116903762
925.298,124.81616989189138
927.687,113.70970241350733
930.074,109.66080274625324
932.459,104.62504031217372
934.843,96.74840099264043
937.225,77.0339496065751
939.605,43.72277810295691
941.984,34.722572800950275
944.361,50.60761020146356
946.736,55.33303851299547
949.11,87.85392108223868
951.482,91.41094649135653
953.853,87.05423389334646
956.222,85.54809072836497
958.589,109.03767520195288
960.954,98.62042066802655
963.318,104.39365048805757
965.68,83.35933574739715
968.041,62.80504344778274
970.4,47.44678946175759
972.757,43.23855815374918
975.113,27.9437267630542
977.467,14.89696597729926
979.819,0.24233098209538184
982.17,2.7904001297370087
984.519,8.208748442241358
986.866,9.402897329706775
989.212,-3.6741639774597843
991.556,-10.307694256827517
993.899,9.978799118895722
996.24,21.090225882305276
998.579,40.45514892826532
1000.92,50.64483090981321
1003.25,27.611330573346777
1005.59,6.735122903327692
1007.92,3.3965287908013124
1010.25,8.59476374952942
1012.58,17.09079684578137
1014.91,33.074019501374096
1017.24,47.59081993823747
1019.56,36.925540309021926
1021.88,50.93381478008973
1024.2,62.09019332879211
1026.52,58.202432207409174
1028.84,74.50673678804606
1031.16,108.95348059800426
1033.48,108.8738767361076
1035.79,124.36093500331685
1038.1,123.6980380809623
1040.41,108.97799389945249
1042.72,128.00780229269958
1045.03,145.0705645096814
1047.33,161.30644034505804
1049.64,141.09360526978367
1051.94,127.0482551807695
1054.24,102.50080162673703
1056.54,106.16254322454529
1058.84,131.50662278980076
1061.13,167.52993684841158
1063.43,166.65790229101208
1065.72,159.887318265477
1068.01,148.69113283133925
1070.3,148.16130485230428
1072.59,200.1516658887624
1074.87,199.2303058998266
1077.16,189.72719704060842
1079.44,183.49610317378188
1081.72,200.6288703335249
1084.0,244.97924099898705
1086.28,333.9723826534689
1088.56,391.50965443884206
1090.84,471.49242142901767
1093.11,547.7744403319837
1095.38,607.8285309061282
1097.65,586.5561045194163
1099.92,518.8585974704731
1102.19,430.8755709763275
1104.46,365.60376354111304
1106.72,324.8494766580982
1108.98,351.9428652736203
1111.24,372.4522282510211
1113.5,403.755441691726
1115.76,460.27805892299034
1118.02,503.921886676123
1120.28,514.2554660266119
1122.53,529.4664580961637
1124.78,503.07593451664
1127.03,455.3669536082896
1129.28,407.38456512939865
1131.53,340.8405769307142
1133.77,265.54213113366336
1136.02,229.82028030857919
1138.26,206.24427793864334
1140.5,233.0977736457362
1142.74,265.80738936866237
1144.98,302.79986696995957
1147.22,337.50207298555756
1149.45,364.2933843268297
1151.69,374.4104549350186
1153.92,364.51864910233303
1156.15,320.28347479303966
1158.38,249.27535029789283
1160.61,198.96960898380553
1162.83,165.36555166256449
1165.06,150.5578799119305
1167.28,150.97479606340357
1169.5,174.2351508090328
1171.72,167.71987652251778
1173.94,139.66723010411533
1176.16,107.36327392078283
1178.37,62.14188055584873
1180.58,34.52759470153592
1182.8,20.283256956247214
1185.01,-4.447134282911975
1187.22,-34.13841807047538
1189.42,-36.8842661629526
1191.63,-37.01622634547448
1193.84,-19.532293198192974
1196.04,-18.477863750997358
1198.24,-13.136220900201579
1200.44,-3.7428283951985577
1202.64,-6.58058014059452
1204.84,-3.4560032472140847
1207.03,17.348348054766802
1209.23,11.597688297684272
1211.42,13.819272491950187
1213.61,45.77857435460783
1215.8,34.86022762187713
1217.99,48.353730669341985
1220.18,30.69153208452053
1222.36,10.115687668001101
1224.55,8.915946006006834
1226.73,57.048789493517006
1228.91,69.61361925098754
1231.09,101.85275048065432
1233.27,73.81807448950167
1235.44,48.085339759852104
1237.62,44.42081397233801
1239.79,60.25746983839758
1241.96,76.50450426610246
1244.13,149.59495276408097
1246.3,207.48568479782443
1248.47,267.65739914598885
1250.64,350.9717621138409
1252.8,444.6237838419504
1254.96,570.1894327101134
1257.13,712.8637259317579
1259.29,843.4607249102453
1261.44,936.3182924999344
1263.6,959.1552312196347
1265.76,977.5474690851026
1267.91,962.6899597272511
1270.06,904.1585825103673
1272.22,840.9101378884191
1274.37,759.0442475232717
1276.51,643.9462067838633
1278.66,583.7631705787028
1280.81,501.404148712184
1282.95,443.68285838374845
1285.09,364.69867192515517
1287.23,337.5032788234489
1289.37,331.7673477439398
1291.51,359.68528379126565
1293.65,390.9752238657063
1295.78,407.2599844004442
1297.92,360.25753290834587
1300.05,353.49526905255516
1302.18,353.83382952660736
1304.31,397.94327388692795
1306.44,436.0649846710419
1308.57,461.1545198967374
1310.69,473.21494175170346
1312.82,475.2015738545963
1314.94,492.6886632780063
1317.06,541.9646140000066
1319.18,575.1748394033095
1321.3,628.6074719172871
1323.41,632.4552631361703
1325.53,606.2917696515472
1327.64,567.3094436467541
1329.75,528.7481996817467
1331.87,499.1811243351226
1333.98,495.94304298899056
1336.08,461.0352770900365
1338.19,413.7923061724939
1340.3,351.7865251192072
1342.4,295.6853823750823
1344.5,243.25137530338952
1346.6,210.19918839920592
1348.7,160.43378388380938
1350.8,118.526587537164
1352.9,60.42976976850423
1354.99,41.619098115482984
1357.09,50.189170695703524
1359.18,80.3296080899886
1361.27,83.27743995516607
1363.36,97.55521099919997
1365.45,58.49480124203001
1367.54,75.18981770497953
1369.62,104.59084324302171
1371.7,124.41020918657273
1373.79,142.64581560232568
1375.87,181.86685631599835
1377.95,183.40430583983925
1380.03,179.6842634429902
1382.1,177.37082103137413
1384.18,144.88988340853507
1386.25,127.85775044123966
1388.33,137.84303255841337
1390.4,119.6523757738862
1392.47,61.99713909008619
1394.54,16.160071901733318
1396.6,-36.57610383855581
1398.67,-54.16677812133844
1400.74,-39.138773803933645
1402.8,-20.828433451940327
1404.86,-3.048283665883673
1406.92,5.293915340180092
1408.98,-1.376263032116185
1411.04,18.7953218093578
1413.09,38.138992726406286
1415.15,81.27077454712025
1417.2,105.56858235657478
1419.25,96.60079456428184
1421.3,91.50720692402047
1423.35,127.1895103631914
1425.4,163.93034024075018
1427.45,203.91708750990097
1429.49,198.52761464269338
1431.54,173.0921620308152
1433.58,126.56001629113962
1435.62,97.59474999984764
1437.66,99.38374714083352
1439.7,81.01915712553705
1441.74,59.21218214611031
1443.77,59.197840719057695
1445.81,63.06830265745475
1447.84,76.58241451935487
1449.87,120.02284410381458
1451.9,155.3389392326335
1453.93,175.95625319876376
1455.96,183.25273688138486
1457.98,205.13016895621945
1460.01,229.2998718201327
1462.03,245.18747513478252
1464.05,324.8376793702723
1466.07,421.34282887261224
1468.09,536.9857706454698
1470.11,699.1446178938204
1472.13,902.7689421390321
1474.14,1086.7131081910964
1476.16,1280.974371025618
1478.17,1426.6452583750936
1480.18,1482.9135723678044
1482.19,1439.6814387857628
1484.2,1337.8510229893213
1486.21,1145.562626794163
1488.21,910.5280234435354
1490.22,719.6495068661943
1492.22,537.496083791496
1494.22,386.7796658644836
1496.22,299.7360236657378
1498.22,203.2676454931334
1500.22,138.94373900073742
1502.22,121.85737569485195
1504.21,103.53025447767686
1506.21,85.34127471478041
1508.2,50.09796644542939
1510.19,15.607920592922483
1512.18,2.1073620320626105
1514.17,-3.6912297243191006
1516.16,-5.2181649420463145
1518.14,-11.23701643948084
1520.13,-30.60652131036727
1522.11,-8.518673657252975
1524.09,-2.8796756258766436
1526.07,1.0233940523692127
1528.05,0.09400588146627342
1530.03,10.949986080492636
1532.01,20.9711326910317
1533.98,40.48968883698558
1535.96,55.69510279705628
1537.93,41.44354998198651
1539.9,16.78174062608514
1541.87,23.613584621607743
1543.84,36.509713495992855
1545.81,54.469383341483535
1547.78,99.49190155427368
1549.74,106.29091071650873
1551.7,78.43724390686225
1553.67,114.88273239205819
1555.63,138.0554418898264
1557.59,165.4787183556639
1559.55,189.00928138865174
1561.5,197.7896033515501
1563.46,181.86695515756696
1565.41,190.4791187237929
1567.37,172.9115279960606
1569.32,158.6401242595216
1571.27,129.95040192541114
1573.22,108.03264479400809
1575.17,112.88668612711649
1577.11,109.0361925300715
1579.06,105.623900214699
1581.0,114.07827983369725
1582.95,100.11353464835156
1584.89,98.87245583910703
1586.83,121.45023019709174
1588.77,127.8944382918337
1590.7,125.1098145437386
1592.64,115.2391977727575
1594.58,69.90162460419288
1596.51,30.59708954117309
1598.44,18.32559075140648
