Raman Shift,Processed Intensity
331.095,182.20954568602565
333.909,188.8669589271426
336.721,179.5395965422481
339.531,166.56081004598536
342.339,161.3116063632342
345.145,200.3635231532876
347.949,222.76436127687248
350.751,254.37153631080173
353.55,298.1854300626187
356.348,286.44464684715604
359.144,260.29269833452327
361.937,244.9684979219046
364.729,230.85399796249567
367.518,245.95039842302322
370.306,301.4495936364965
373.091,363.68657143591736
375.874,433.80609800227967
378.656,475.6674979506638
381.435,450.3684820353765
384.212,363.245165331286
386.988,235.1577997008667
389.761,127.10983959457371
392.532,5.00986499407918
395.301,-49.94744802543846
398.068,-77.28130911396374
400.833,-68.32003356054793
403.596,-45.58198171271442
406.358,-21.585078149783385
409.117,-50.465861977447275
411.874,-41.45568475847722
414.629,-42.83310113390644
417.382,-44.257217171425054
420.133,-36.24390022035732
422.882,-9.403898056390062
425.629,13.652370608309411
428.374,52.88621226329224
431.117,97.02110138782928
433.858,142.78074366514875
436.597,224.03190110143032
439.334,239.02245524003592
442.069,233.3813751376474
444.802,208.880590102307
447.533,184.10162433622236
450.262,153.34032681666622
452.989,201.55922022449795
455.714,218.53032606316492
458.438,206.21608501580658
461.159,182.62646777855525
463.878,114.53322875097183
466.595,48.04130258362875
469.31,38.303057868548876
472.024,56.89921749631549
474.735,67.02930773754542
477.444,101.22592081859739
480.152,96.97374520784751
482.857,113.51907888306368
485.561,94.63172355116285
488.262,77.79545029654628
490.962,70.77941761037073
493.659,104.54292275317039
496.355,138.33063722232282
499.048,178.29165901643955
501.74,213.57475537594564
504.43,238.66170076176013
507.118,265.70061483396785
509.804,334.4583480495412
512.488,385.84429583149176
515.17,445.5294508332563
517.85,541.8987885364099
520.528,653.6227004674383
523.204,688.1331893192678
525.878,728.7191116918434
528.551,698.3357065469936
531.221,662.9379331871046
533.89,658.4328568528463
536.556,673.6796533685201
539.221,643.2038995016937
541.883,637.3880537990271
544.544,614.0428898030505
547.203,597.9789292689434
549.86,624.1969230003556
552.515,670.0783316852098
555.168,705.3377114934083
557.819,748.9274806269195
560.469,751.0855430127285
563.116,779.0971977100717
565.761,803.2475245081523
568.405,815.6785314286126
571.047,802.7701117518222
573.687,792.5686200907785
576.324,757.5964008459605
578.96,778.9470309458952
581.594,734.3805625877244
584.227,699.2759088349162
586.857,679.5356101673547
589.485,644.4906010314235
592.112,618.0906906758073
594.737,637.9521868444335
597.359,612.9769480408395
599.98,631.6857215068285
602.599,645.8371954868344
605.216,660.3327657780119
607.831,649.6927308517479
610.445,688.5324869751853
613.056,722.4672947613026
615.666,803.4932361951969
618.274,892.5110288032106
620.88,1006.8022207744443
623.484,1108.1720527489283
626.086,1199.9970815105507
628.686,1264.9870893942802
631.284,1351.4231841695696
633.881,1396.729232257102
636.476,1389.9004348026679
639.068,1304.3604751796188
641.659,1192.104380777037
644.249,1053.6985276450464
646.836,918.7568356163115
649.421,782.226487237057
652.005,617.4831705076213
654.587,439.4263216230038
657.166,315.47912961818065
659.745,238.7790172038799
662.321,168.7966930309385
664.895,120.09806109751617
667.468,72.67755872773341
670.038,39.05339931222352
672.607,18.648529334397608
675.174,24.314442539561696
677.739,24.235950441639943
680.303,13.83595475359698
682.864,26.870698495197303
685.424,12.191686239768842
687.982,18.269510545524554
690.538,5.955776344331753
693.092,-7.659735325071324
695.645,-26.582377918571638
698.195,-45.67452080563862
700.744,-60.03647910237987
703.291,-49.339827263391726
705.836,-38.39881281754015
708.38,-9.789395680784764
710.921,29.53170723417088
713.461,36.75083048269107
715.999,49.95926278567367
718.535,59.20086401273056
721.069,47.4720631177579
723.602,56.10280845544412
726.133,62.137518097797056
728.662,68.57317300779323
731.189,43.740267355896776
733.714,24.540901693716478
736.238,4.163066603862717
738.759,18.747307302172885
741.279,7.7200549066078565
743.798,25.79362437281361
746.314,17.061450524916836
748.829,23.283800276799866
751.342,19.983008662897646
753.853,21.11014344042769
756.362,0.09262207257006594
758.869,-9.594361764546647
761.375,0.42930261084802623
763.879,27.06768844076464
766.381,23.939304688343782
768.882,41.948521579701264
771.38,43.90461519339351
773.877,48.52176443083522
776.372,38.27619084385651
778.866,46.26329846226258
781.357,51.62624219282225
783.847,78.55592478968492
786.335,85.91004144384738
788.821,87.4035529440539
791.306,99.79915883768876
793.789,133.00253249643674
796.27,187.72898475337297
798.749,268.17012754004395
801.227,347.8033946664193
803.702,382.91584831512137
806.176,457.7946522023244
808.649,483.5365923577085
811.119,475.0004550472611
813.588,459.4260713627564
816.055,419.9581237159921
818.521,337.16995233303305
820.984,302.6825998436693
823.446,280.30766539468345
825.906,292.57111114407803
828.365,303.28468780291587
830.821,307.0697411295471
833.276,270.9762565190724
835.729,200.0066654975742
838.181,152.0206045972891
840.631,155.68729327940582
843.079,133.19981661876636
845.525,132.46559846476066
847.97,128.53496984031835
850.412,114.88688019803794
852.854,120.19079915251109
855.293,128.592427736457
857.731,100.90417156161539
860.167,75.9860901701195
862.601,68.07922733825194
865.034,61.377036618295506
867.465,45.16823545181364
869.894,43.07489737816559
872.321,38.861972814457886
874.747,27.246809835487284
877.171,27.137246382264266
879.594,0.6316072324341349
882.014,1.3520343040345324
884.433,37.49210267353783
886.851,92.86443665877914
889.266,104.99594508838481
891.68,98.79448514262845
894.092,91.07266905143388
896.503,114.21452793522622
898.912,122.41360421722516
901.319,140.2919964166815
903.724,152.04321346592633
906.128,131.7178861702812
908.53,145.6523358108227
910.931,159.23047608048
913.329,134.31238168679602
915.726,135.0438093356438
918.122,126.42762347684265
920.516,110.65712681168952
922.908,113.16367651476685
925.298,108.56906236051532
927.687,108.16169437361259
930.074,105.99183809840042
932.459,95.53827843974409
934.843,92.70831683722304
937.225,100.59967320122405
939.605,106.73857832522663
941.984,112.50834248855654
944.361,110.6255431067691
946.736,95.42573619154359
949.11,97.81583447725325
951.482,97.8455331665798
953.853,95.75492615232383
956.222,92.26021747730192
958.589,112.02990898472581
960.954,86.11336892095937
963.318,96.70273387161137
965.68,97.79957260238916
968.041,79.69107370947404
970.4,58.80718565085067
972.757,59.8634710633537
975.113,58.5277706035215
977.467,58.75353345511621
979.819,66.87505259854493
982.17,47.988414365998096
984.519,22.475305139447073
986.866,2.2887228105423674
989.212,7.1434501452602035
991.556,42.706530424614584
993.899,55.74012427434741
996.24,73.76817675320149
998.579,74.31451301261927
1000.92,64.33141014692251
1003.25,17.437692853015506
1005.59,5.871114804375111
1007.92,-8.511640927345297
1010.25,-17.282578723761162
1012.58,14.271898095241113
1014.91,65.24622727811698
1017.24,42.97283058832727
1019.56,52.16497249347367
1021.88,40.48819028300977
1024.2,23.417438471672313
1026.52,36.66566177432901
1028.84,80.18379665226848
1031.16,83.01791808363555
1033.48,111.261624429108
1035.79,118.0084222975745
1038.1,149.25649236419076
1040.41,149.0991694741524
1042.72,164.0106608417018
1045.03,163.1793832967594
1047.33,145.6984433886944
1049.64,139.70849844247414
1051.94,145.0644271386243
1054.24,131.43057152175948
1056.54,137.709312342447
1058.84,146.42202535144747
1061.13,132.66146616538686
1063.43,118.09177418004106
1065.72,153.8532383883853
1068.01,162.18134891292493
1070.3,185.9306104427867
1072.59,196.62216519461936
1074.87,196.9676063496861
1077.16,179.96422006238208
1079.44,224.03784651637534
1081.72,213.6143124093162
1084.0,251.16705391373284
1086.28,316.3599777331699
1088.56,400.04746501547334
1090.84,487.7981847898809
1093.11,590.6093835945917
1095.38,611.5259370090951
1097.65,589.7355916626875
1099.92,516.4737310525172
1102.19,421.7852842187708
1104.46,348.85806299128785
1106.72,343.1180039980811
1108.98,375.5148868643312
1111.24,407.2842428875729
1113.5,450.99497799859955
1115.76,495.5493766747477
1118.02,515.8021534722279
1120.28,538.036647415601
1122.53,541.345778292012
1124.78,508.58443151685674
1127.03,479.7504144280156
1129.28,428.98446019913786
1131.53,375.47499365767885
1133.77,318.22003996008175
1136.02,267.55103802886606
1138.26,248.1328444659016
1140.5,258.1542136561618
1142.74,293.6611350143362
1144.98,359.6044559457314
1147.22,379.2684571881193
1149.45,390.93752339168486
1151.69,395.039004175165
1153.92,364.85750375341627
1156.15,342.20155151735844
1158.38,299.83217737582663
1160.61,256.1772013831385
1162.83,220.71219003332567
1165.06,185.15093636389292
1167.28,142.73117815481464
1169.5,102.7860304132455
1171.72,73.17256071537486
1173.94,83.27179311970235
1176.16,85.41728350888661
1178.37,98.99036159826119
1180.58,94.56299199196746
1182.8,34.75492095337586
1185.01,5.662251746932952
1187.22,-24.09493240094571
1189.42,-54.13446915050531
1191.63,-16.978779227913492
1193.84,-0.292959696362459
1196.04,2.448545500493992
1198.24,5.247654181145208
1200.44,2.963592634075667
1202.64,-13.02044313843976
1204.84,3.0598505492594086
1207.03,-7.888214756056868
1209.23,-3.6714684441333247
1211.42,-15.715648372544365
1213.61,-4.065407312653406
1215.8,9.044251652758476
1217.99,42.28320474865245
1220.18,57.083341466467346
1222.36,67.49569945122175
1224.55,57.61902796004074
1226.73,61.361684654017836
1228.91,70.77496096150821
1231.09,96.00545506046274
1233.27,84.67601628934267
1235.44,64.79049908183083
1237.62,44.59089785393462
1239.79,61.46210093869968
1241.96,117.83664452092125
1244.13,195.5280424804423
1246.3,250.58792575925577
1248.47,340.210800776229
1250.64,421.3054745084978
1252.8,532.4950510014246
1254.96,691.1169278785628
1257.13,815.4608880897133
1259.29,924.245286897074
1261.44,1054.378953147107
1263.6,1121.9611857804991
1265.76,1155.1865122468892
1267.91,1144.1542088243557
1270.06,1082.820678081758
1272.22,974.2375406267936
1274.37,878.170679235011
1276.51,789.147854407385
1278.66,682.8396532612376
1280.81,564.9166288973472
1282.95,478.0016778622992
1285.09,413.336703325122
1287.23,386.02070682534577
1289.37,377.2478800210565
1291.51,405.9266488179019
1293.65,420.63205083143134
1295.78,411.2247795161063
1297.92,426.3749901990748
1300.05,435.3242013520394
1302.18,437.0757672916875
1304.31,470.87106516584754
1306.44,499.9513962253527
1308.57,506.79607757210124
1310.69,535.6462481928284
1312.82,587.7905797547821
1314.94,626.6605112109257
1317.06,640.544531024183
1319.18,655.5405546297839
1321.3,648.4606828499848
1323.41,637.9264364992757
1325.53,657.5116100371924
1327.64,648.2184585544771
1329.75,603.1919799973168
1331.87,568.2437212011175
1333.98,530.994631543319
1336.08,486.30363088193053
1338.19,464.88665368454053
1340.3,408.459502681136
1342.4,323.30927394549485
1344.5,265.62768673848336
1346.6,199.22536573229854
1348.7,158.19850418709052
1350.8,119.88124141330218
1352.9,92.32184975781524
1354.99,96.04463587581358
1357.09,104.3356515264511
1359.18,96.76649960662371
1361.27,83.28956875615836
1363.36,56.33326796301117
1365.45,50.84964212083787
1367.54,65.07627330085938
1369.62,79.91723530732861
1371.7,115.03833908301976
1373.79,149.53380668615068
1375.87,190.40246907682808
1377.95,206.35729723682925
1380.03,214.01588567032877
1382.1,181.4718882855807
1384.18,140.152168562317
1386.25,120.91204495723377
1388.33,74.27339345233759
1390.4,15.996083436623849
1392.47,-14.017253078909334
1394.54,-45.721214151010145
1396.6,-32.35619037147876
1398.67,-0.8293097770535951
1400.74,-7.28586396521905
1402.8,-9.156928184185972
1404.86,-7.540314842954331
1406.92,-3.6767658830219716
1408.98,25.335758647539933
1411.04,14.161124561256202
1413.09,35.891686161600774
1415.15,50.953046681398064
1417.2,98.58024874456851
1419.25,142.77015890106372
1421.3,192.94813787608746
1423.35,188.58709177169544
1425.4,237.5884280303021
1427.45,221.99634473151946
1429.49,190.85497703184842
1431.54,155.5893531281838
1433.58,119.43396926893661
1435.62,87.19469809849056
1437.66,111.91545890641646
1439.7,109.30679263859292
1441.74,68.41253214642325
1443.77,79.18123434081144
1445.81,74.13285044138252
1447.84,89.07301527332152
1449.87,119.04543180231053
1451.9,127.1413985266081
1453.93,133.78552734532127
1455.96,178.3071757123853
1457.98,209.46425974293243
1460.01,255.49087684347
1462.03,289.2877854849153
1464.05,357.47002783277185
1466.07,468.2716952344499
1468.09,634.9268841827816
1470.11,826.7649379938173
1472.13,1039.0675932465244
1474.14,1229.9737452701063
1476.16,1422.5270707741795
1478.17,1550.5807933360982
1480.18,1608.321496507329
1482.19,1595.8405559674395
1484.2,1481.99128596381
1486.21,1302.769895275144
1488.21,1111.2678717464185
1490.22,887.7196049190666
1492.22,669.7881038992591
1494.22,501.27928665475633
1496.22,373.2848407403387
1498.22,256.42032211846526
1500.22,176.77753969422747
1502.22,113.44836842172776
1504.21,86.47713383903101
1506.21,58.24156803168921
1508.2,71.54805131054832
1510.19,49.2030443657527
1512.18,17.536901373127876
1514.17,-0.405650232767357
1516.16,-7.627410937972172
1518.14,-6.226322853683996
1520.13,-6.9668929860702065
1522.11,-17.994474433654432
1524.09,-19.83526250969021
1526.07,-5.253434437112446
1528.05,-14.727338530162115
1530.03,-12.163780675399039
1532.01,2.3876886497259875
1533.98,-1.4557046385280046
1535.96,9.209085312049865
1537.93,27.38044426430406
1539.9,23.39018914696885
1541.87,22.474993568828495
1543.84,23.252575237643896
1545.81,33.102645283831635
1547.78,61.02404806033951
1549.74,97.34904379966315
1551.7,127.60044841372064
1553.67,155.063059008015
1555.63,144.78365082436153
1557.59,157.76145037409674
1559.55,154.56717999985585
1561.5,181.15257862783096
1563.46,188.46944632954887
1565.41,201.66011745507944
1567.37,176.2955528138657
1569.32,160.70866995078745
1571.27,144.94672104127994
1573.22,147.8189088816855
1575.17,152.6582885938942
1577.11,142.1312883776045
1579.06,105.95199216734454
1581.0,107.59642228949133
1582.95,103.5406316431031
1584.89,84.64165302360448
1586.83,87.70892463695009
1588.77,82.26619180426428
1590.7,53.55150390457925
1592.64,65.18387798423214
1594.58,50.068057604356454
1596.51,36.10879549790229
1598.44,30.639421940931243
