Raman Shift,Processed Intensity
331.095,117.36859761904759
333.909,63.8737357142857
336.721,27.49294285714288
339.531,9.68751904761908
342.339,30.442395238095262
345.145,39.742776190476214
347.949,35.21724761904764
350.751,32.7331238095238
353.55,4.729719047619051
356.348,2.932738095238115
359.144,8.49712380952382
361.937,-1.1357380952380882
364.729,23.38099047619052
367.518,47.918895238095324
370.306,121.63600952380969
373.091,240.16721428571446
375.874,336.91054285714307
378.656,365.97852380952395
381.435,341.6758857142858
384.212,245.6411476190477
386.988,142.03774285714292
389.761,81.7442571428572
392.532,45.3072523809524
395.301,16.84518476190476
398.068,-4.521560000000007
400.833,-12.100741904761911
403.596,-29.960564761904763
406.358,-5.549057142857143
409.117,-21.265452380952397
411.874,0.5875066666666982
414.629,32.99386952380955
417.382,43.557976190476204
420.133,23.40910952380954
422.882,19.772976190476193
425.629,15.733638095238177
428.374,99.37591904761916
431.117,173.78595714285726
433.858,235.52680952380967
436.597,231.68660952380958
439.334,189.54466666666673
442.069,143.28614285714292
444.802,127.71557142857151
447.533,124.54338095238109
450.262,175.76647619047634
452.989,209.57276190476205
455.714,237.77019047619058
458.438,228.35776190476201
461.159,206.95378095238104
463.878,147.65344761904768
466.595,140.21965714285724
469.31,128.51019523809532
472.024,121.52700000000007
474.735,95.22440952380957
477.444,91.17637142857147
480.152,73.57627619047628
482.857,108.28454285714294
485.561,124.4952238095239
488.262,149.30720000000008
490.962,139.58214285714294
493.659,154.18146666666678
496.355,143.63390000000004
499.048,121.46810952380959
501.74,104.40362857142863
504.43,79.73123809523811
507.118,46.647185714285776
509.804,72.06136190476198
512.488,109.31314285714296
515.17,202.0273095238097
517.85,268.82866190476204
520.528,245.96120952380963
523.204,162.38316190476195
525.878,95.19580000000005
528.551,57.21469523809532
531.221,85.44558095238102
533.89,92.46571428571431
536.556,78.8523666666667
539.221,68.65887619047625
541.883,92.55785238095245
544.544,123.74520952380959
547.203,131.3692571428572
549.86,120.91148571428577
552.515,102.71062380952388
555.168,105.58113333333341
557.819,130.86157619047628
560.469,140.1279095238096
563.116,127.62297142857149
565.761,137.82726190476197
568.405,135.60231904761912
571.047,120.28531904761911
573.687,119.4043666666667
576.324,103.72475238095245
578.96,111.29734761904771
581.594,112.07786666666672
584.227,126.21235238095245
586.857,128.5128190476191
589.485,114.55356666666674
592.112,116.19398095238103
594.737,142.43582380952387
597.359,128.61443809523817
599.98,150.30309047619056
602.599,152.55037619047624
605.216,131.50055238095246
607.831,131.15445238095248
610.445,115.36970000000005
613.056,84.76580000000003
615.666,66.10500952380956
618.274,59.29177619047624
620.88,55.37383809523814
623.484,78.92194761904767
626.086,101.12581428571436
628.686,125.31815238095247
631.284,121.3073714285715
633.881,144.80618095238103
636.476,141.67071428571438
639.068,136.23219047619057
641.659,140.1078476190477
644.249,130.8197428571429
646.836,96.79420952380958
649.421,86.12414761904766
652.005,79.1883428571429
654.587,55.507785714285745
657.166,51.0323085714286
659.745,28.044863333333343
662.321,33.01878857142861
664.895,36.37974142857145
667.468,64.1247647619048
670.038,42.39370142857143
672.607,38.89774666666669
675.174,37.062395238095284
677.739,60.551257142857196
680.303,72.31365428571434
682.864,77.91798285714287
685.424,46.12308000000003
687.982,38.21162190476194
690.538,41.79959904761908
693.092,41.83638761904765
695.645,58.60468285714289
698.195,53.57766190476194
700.744,54.704690476190514
703.291,45.26848095238097
705.836,60.26605238095242
708.38,48.8372785714286
710.921,51.45536476190478
713.461,33.7363980952381
715.999,20.629815238095247
718.535,-2.914964761904735
721.069,31.7657866666667
723.602,52.33583857142861
726.133,62.69700761904765
728.662,49.17974285714288
731.189,29.257342857142863
733.714,21.54595238095241
736.238,19.757014285714313
738.759,40.69715238095243
741.279,63.83963809523814
743.798,98.61022857142865
746.314,120.86331904761911
748.829,129.50084761904765
751.342,86.80571904761908
753.853,63.06095238095242
756.362,56.97790476190482
758.869,65.83954761904766
761.375,83.97663333333338
763.879,82.1483904761905
766.381,65.2569428571429
768.882,62.204609523809566
771.38,75.51270000000005
773.877,79.55945238095244
776.372,105.39028571428578
778.866,100.90738571428575
781.357,85.48934285714289
783.847,71.99104285714289
786.335,54.55328095238099
788.821,59.983300000000064
791.306,93.85049047619054
793.789,104.62902857142865
796.27,111.22170000000008
798.749,142.76971428571437
801.227,163.65181904761914
803.702,162.9617380952382
806.176,162.6023714285715
808.649,151.95341428571436
811.119,143.06079047619056
813.588,156.87577619047624
816.055,178.9681333333334
818.521,154.47971428571435
820.984,145.21865714285724
823.446,129.0413714285715
825.906,117.6136476190477
828.365,112.41091428571437
830.821,117.38488571428579
833.276,119.82040000000006
835.729,118.14553333333338
838.181,89.16969047619051
840.631,73.32128571428576
843.079,76.07636190476195
845.525,66.33973333333338
847.97,80.492180952381
850.412,86.10567142857147
852.854,82.89485238095244
855.293,82.47925714285718
857.731,76.90728095238099
860.167,77.22719047619053
862.601,60.05907142857145
865.034,49.97553333333336
867.465,41.45403809523812
869.894,59.01968095238101
872.321,73.8645857142858
874.747,124.32384285714292
877.171,122.7801952380953
879.594,116.75952380952387
882.014,117.45429523809531
884.433,121.67620000000008
886.851,114.52278095238103
889.266,125.9016571428572
891.68,132.48206666666675
894.092,158.218961904762
896.503,171.87700952380962
898.912,166.84014285714295
901.319,154.82542857142866
903.724,172.40742857142868
906.128,174.77985714285728
908.53,184.42176190476198
910.931,150.86061904761914
913.329,145.52833333333342
915.726,150.52328571428583
918.122,167.3252857142858
920.516,166.27085714285724
922.908,167.363761904762
925.298,169.46457142857156
927.687,175.9101333333334
930.074,168.22773333333342
932.459,131.0402952380953
934.843,101.39893333333339
937.225,82.92643809523817
939.605,95.53076190476197
941.984,100.9775333333334
944.361,92.88939523809528
946.736,87.31749047619053
949.11,67.12267142857146
951.482,62.59389047619052
953.853,62.63946666666671
956.222,86.97705238095244
958.589,86.03861428571435
960.954,88.97032857142862
963.318,78.10879047619052
965.68,61.457057142857174
968.041,67.35164380952386
970.4,71.36693666666669
972.757,61.31546000000002
975.113,43.390532380952386
977.467,21.78540285714286
979.819,6.978874285714314
982.17,28.116351428571445
984.519,26.152671904761927
986.866,27.09017761904763
989.212,21.93100190476192
991.556,31.724960476190525
993.899,59.90238857142863
996.24,80.79837285714291
998.579,97.46216571428576
1000.92,89.03807619047622
1003.25,73.43219428571432
1005.59,52.88394904761907
1007.92,41.58470761904765
1010.25,31.868736666666706
1012.58,46.165355238095295
1014.91,83.47531095238102
1017.24,116.56075619047627
1019.56,120.66035238095245
1021.88,122.86938095238101
1024.2,134.09261904761914
1026.52,127.0445238095239
1028.84,144.43914285714294
1031.16,157.46642857142865
1033.48,141.84047619047627
1035.79,132.84666666666678
1038.1,162.86509523809534
1040.41,175.7524285714287
1042.72,218.45980952380967
1045.03,234.93880952380962
1047.33,213.52185714285724
1049.64,179.1127142857144
1051.94,168.09100000000012
1054.24,162.45523809523823
1056.54,170.63247619047632
1058.84,190.81200000000013
1061.13,201.04019047619056
1063.43,185.36247619047631
1065.72,183.72995238095245
1068.01,168.9978095238096
1070.3,155.68790476190486
1072.59,173.6079523809525
1074.87,211.37533333333351
1077.16,227.55909523809538
1079.44,252.44314285714302
1081.72,283.7871904761907
1084.0,318.5412380952383
1086.28,379.9889523809527
1088.56,487.31876190476225
1090.84,619.6713333333338
1093.11,710.9488571428576
1095.38,733.1014761904764
1097.65,661.4123333333335
1099.92,553.9268571428574
1102.19,443.59514285714306
1104.46,415.98619047619076
1106.72,394.7640476190479
1108.98,388.8309523809526
1111.24,412.8034761904765
1113.5,438.29828571428595
1115.76,463.55104761904795
1118.02,525.0355238095242
1120.28,543.7016190476194
1122.53,539.7848571428574
1124.78,518.0924761904764
1127.03,448.66961904761934
1129.28,353.894523809524
1131.53,284.09828571428585
1133.77,211.3261904761906
1136.02,172.00485714285725
1138.26,167.6554285714287
1140.5,187.22804761904774
1142.74,202.81547619047635
1144.98,233.98704761904776
1147.22,264.93119047619064
1149.45,282.1223809523811
1151.69,274.0818571428573
1153.92,271.426523809524
1156.15,235.63085714285728
1158.38,198.26404761904774
1160.61,163.18176190476197
1162.83,132.28700000000006
1165.06,106.48280952380959
1167.28,105.29104761904769
1169.5,96.42471428571434
1171.72,98.83433333333339
1173.94,98.56643809523817
1176.16,103.3339095238096
1178.37,113.89758419047625
1180.58,89.0656403809524
1182.8,63.69423504761908
1185.01,36.353771523809534
1187.22,14.233862190476202
1189.42,2.5718922857142923
1191.63,2.4147789523809546
1193.84,10.523886190476212
1196.04,17.041664285714294
1198.24,15.015403809523821
1200.44,23.492499047619063
1202.64,30.187161904761926
1204.84,26.48034285714288
1207.03,36.80076857142858
1209.23,22.243937619047625
1211.42,4.810227619047629
1213.61,14.404852857142885
1215.8,40.50458952380955
1217.99,39.82438523809526
1220.18,39.93644476190479
1222.36,39.74637619047622
1224.55,46.58846190476195
1226.73,62.17807809523814
1228.91,65.8973066666667
1231.09,40.0330704761905
1233.27,35.682107619047656
1235.44,46.36942285714291
1237.62,77.85838761904768
1239.79,93.96008761904766
1241.96,81.15228095238099
1244.13,60.05571904761909
1246.3,77.91042380952388
1248.47,90.86082857142863
1250.64,102.86120000000005
1252.8,104.15167619047625
1254.96,116.35314761904769
1257.13,131.4200095238096
1259.29,152.35423333333344
1261.44,178.58675238095248
1263.6,165.78626190476197
1265.76,153.90742857142868
1267.91,147.14297619047625
1270.06,134.161780952381
1272.22,99.77556666666672
1274.37,101.03456190476196
1276.51,98.56008571428578
1278.66,106.49730952380959
1280.81,125.2775714285715
1282.95,127.52213809523813
1285.09,100.94775238095244
1287.23,91.55697619047625
1289.37,98.49540000000006
1291.51,91.52721904761911
1293.65,97.75047142857147
1295.78,99.45309523809529
1297.92,90.30453809523816
1300.05,74.16461428571435
1302.18,96.7027476190477
1304.31,117.63567142857151
1306.44,136.25152380952392
1308.57,157.40996666666675
1310.69,166.8282000000001
1312.82,172.36604761904772
1314.94,181.69252380952392
1317.06,173.476761904762
1319.18,163.29290476190488
1321.3,172.09580952380963
1323.41,180.17371428571442
1325.53,222.57685714285728
1327.64,256.4980476190478
1329.75,300.1302857142859
1331.87,319.9523333333335
1333.98,315.06185714285726
1336.08,294.4132380952382
1338.19,266.0564761904763
1340.3,237.56547619047632
1342.4,218.3712857142858
1344.5,192.23757142857153
1346.6,165.40500952380964
1348.7,157.351661904762
1350.8,132.3177190476191
1352.9,122.5910333333334
1354.99,101.60229047619055
1357.09,79.87697619047624
1359.18,85.5122714285715
1361.27,102.84351428571438
1363.36,129.01513333333344
1365.45,170.6004000000001
1367.54,188.21973333333344
1369.62,196.82709523809538
1371.7,195.13833333333346
1373.79,218.10766666666683
1375.87,249.9264761904763
1377.95,249.7867142857144
1380.03,244.07014285714303
1382.1,254.49247619047634
1384.18,233.91185714285731
1386.25,236.6626190476192
1388.33,210.88830476190486
1390.4,158.78024761904769
1392.47,111.95810000000004
1394.54,99.6606476190477
1396.6,94.07878571428577
1398.67,108.83190000000005
1400.74,105.68229047619053
1402.8,93.53487619047623
1404.86,81.81825714285719
1406.92,76.62750476190479
1408.98,75.057820952381
1411.04,56.72799000000001
1413.09,51.494799047619075
1415.15,22.83394809523812
1417.2,54.60193238095244
1419.25,69.46471857142862
1421.3,97.46902095238102
1423.35,91.37578095238099
1425.4,88.04108571428574
1427.45,51.74943809523813
1429.49,37.07094761904762
1431.54,20.00423809523812
1433.58,32.785942857142885
1435.62,36.93832857142861
1437.66,60.840742857142914
1439.7,83.01529523809529
1441.74,86.88877619047625
1443.77,84.07847142857148
1445.81,88.2014666666667
1447.84,77.44642857142861
1449.87,89.4303333333334
1451.9,106.6275238095239
1453.93,116.32143809523816
1455.96,126.60513333333341
1457.98,134.666980952381
1460.01,116.40960952380959
1462.03,113.92588571428578
1464.05,127.16610476190485
1466.07,156.12779047619063
1468.09,198.8084190476192
1470.11,248.11037142857157
1472.13,268.5550000000001
1474.14,255.52076190476203
1476.16,247.67204761904776
1478.17,225.482761904762
1480.18,195.80733333333345
1482.19,181.69071428571436
1484.2,163.03500000000005
1486.21,133.93283809523817
1488.21,113.23879523809529
1490.22,98.75995238095244
1492.22,83.25553809523814
1494.22,61.437314285714315
1496.22,46.064519047619086
1498.22,52.182238095238134
1500.22,43.83535238095242
1502.22,54.35467619047621
1504.21,48.73757142857145
1506.21,39.98146190476192
1508.2,32.51237523809526
1510.19,28.1372680952381
1512.18,9.091669523809532
1514.17,9.849279523809539
1516.16,13.740936190476209
1518.14,44.43080619047623
1520.13,44.29739904761906
1522.11,32.71934285714288
1524.09,38.02742380952385
1526.07,63.02910000000006
1528.05,69.62693809523815
1530.03,85.77120000000001
1532.01,72.84077142857146
1533.98,51.83371904761909
1535.96,42.271676190476235
1537.93,57.34369523809527
1539.9,60.42874761904766
1541.87,75.47754761904767
1543.84,76.29800476190479
1545.81,81.9360952380953
1547.78,90.4380714285715
1549.74,128.89810476190485
1551.7,165.40970476190486
1553.67,175.4476190476191
1555.63,160.77295238095246
1557.59,149.81271428571438
1559.55,145.1852857142858
1561.5,157.84204761904772
1563.46,165.82938095238106
1565.41,172.28909523809537
1567.37,179.934761904762
1569.32,183.0036666666668
1571.27,176.82857142857154
1573.22,164.98019047619056
1575.17,150.17219047619056
1577.11,174.68990476190487
1579.06,169.15133333333344
1581.0,166.36604761904772
1582.95,158.52390476190487
1584.89,148.95785714285722
1586.83,152.3817142857144
1588.77,176.7481904761906
1590.7,169.15161904761914
1592.64,158.16371428571435
1594.58,145.1890476190478
1596.51,144.48933333333363
1598.44,166.89773809523862
