Raman Shift,Processed Intensity
331.095,122.4397428571427
333.909,61.66534047619044
336.721,27.31008333333334
339.531,15.503004761904794
342.339,25.872919047619078
345.145,65.97747142857146
347.949,41.49432857142859
350.751,42.00653333333334
353.55,33.002576190476205
356.348,7.162185714285727
359.144,4.7848857142857435
361.937,34.02817619047621
364.729,28.95510476190481
367.518,62.439314285714396
370.306,151.35501904761918
373.091,240.57759047619066
375.874,364.69719523809545
378.656,419.87686666666684
381.435,365.2325904761905
384.212,246.64352380952386
386.988,121.6561247619048
389.761,28.865731904761944
392.532,9.67790666666668
395.301,-13.500308095238108
398.068,-21.784975238095246
400.833,-19.62419523809524
403.596,-23.56028666666667
406.358,2.4370414285714395
409.117,10.732545714285703
411.874,-2.2127033333333306
414.629,-14.79366047619048
417.382,8.310023809523827
420.133,11.991307142857181
422.882,41.953828571428616
425.629,95.18765000000009
428.374,153.30273809523823
431.117,204.72005714285729
433.858,269.76558095238113
436.597,273.5283333333335
439.334,226.43157142857152
442.069,176.61357142857153
444.802,143.40347619047628
447.533,124.46495238095248
450.262,169.50957142857158
452.989,222.58285714285728
455.714,246.34990476190492
458.438,232.33385714285728
461.159,205.2488571428572
463.878,142.5711952380953
466.595,95.49223809523814
469.31,69.10826190476195
472.024,47.373028571428605
474.735,66.09811904761912
477.444,82.47654285714292
480.152,107.2726952380953
482.857,108.91826190476196
485.561,104.27369047619052
488.262,78.53313333333338
490.962,92.55750952380959
493.659,82.82728571428578
496.355,116.39441428571438
499.048,138.50143809523817
501.74,119.91494285714289
504.43,104.44912857142863
507.118,98.537580952381
509.804,78.09024285714294
512.488,120.82678095238104
515.17,158.60940000000008
517.85,149.87210476190486
520.528,158.33444761904772
523.204,158.38285714285723
525.878,120.26062857142865
528.551,119.5923714285715
531.221,98.47855714285718
533.89,59.162766666666705
536.556,51.17409523809528
539.221,49.85104761904764
541.883,40.246404761904806
544.544,65.12737142857148
547.203,82.21306666666672
549.86,97.22267619047625
552.515,98.54185238095243
555.168,81.6992428571429
557.819,77.88968571428578
560.469,96.78431904761912
563.116,107.67312857142865
565.761,137.03636190476197
568.405,113.35412380952386
571.047,92.24948571428578
573.687,109.34463809523817
576.324,131.59524761904768
578.96,133.86171904761915
581.594,157.00407619047627
584.227,123.21573809523815
586.857,101.9280476190477
589.485,107.71440476190483
592.112,119.38640000000007
594.737,103.61261428571432
597.359,95.20437142857148
599.98,77.68688571428578
602.599,105.15685714285722
605.216,131.04349619047628
607.831,130.3951247619048
610.445,92.83150666666671
613.056,68.21022761904766
615.666,46.67414476190481
618.274,62.69953904761911
620.88,85.2860771428572
623.484,85.33775714285721
626.086,106.90175238095246
628.686,121.78671904761912
631.284,138.89629523809535
633.881,154.41985714285724
636.476,164.16537142857152
639.068,152.17877619047627
641.659,156.1252952380953
644.249,92.76502380952385
646.836,66.3341047619048
649.421,45.16396666666669
652.005,38.39507619047622
654.587,28.215876190476216
657.166,50.90974285714287
659.745,30.52198571428574
662.321,50.478723809523856
664.895,68.53935714285718
667.468,87.36795238095243
670.038,70.62851428571432
672.607,66.4135285714286
675.174,61.52971428571432
677.739,53.40271904761908
680.303,42.743871428571445
682.864,46.359623809523825
685.424,23.294490476190493
687.982,18.354776190476223
690.538,54.442180952380994
693.092,58.64847142857146
695.645,72.77980000000005
698.195,64.97559761904763
700.744,45.041895238095265
703.291,45.880088095238136
705.836,62.296228571428614
708.38,64.19135952380958
710.921,90.37141428571432
713.461,71.68992380952383
715.999,59.66704761904766
718.535,67.7754285714286
721.069,55.10647142857147
723.602,55.847100000000054
726.133,85.23160000000007
728.662,88.39907142857149
731.189,85.53627619047623
733.714,83.1157285714286
736.238,70.0383571428572
738.759,86.01502380952388
741.279,111.08961047619053
743.798,94.3060890476191
746.314,59.37512571428574
748.829,36.05527761904766
751.342,56.628297142857214
753.853,78.61481285714291
756.362,117.535400952381
758.869,105.14849523809526
761.375,84.45082380952385
763.879,67.91559523809529
766.381,75.01561428571432
768.882,85.08144285714293
771.38,97.72940000000003
773.877,89.57557142857148
776.372,96.66495238095243
778.866,77.85214761904766
781.357,64.65850952380958
783.847,95.55799523809529
786.335,62.11977142857146
788.821,55.19896190476196
791.306,84.22222380952387
793.789,108.61646666666675
796.27,142.95147619047628
798.749,179.74952380952385
801.227,166.96176190476197
803.702,162.06323809523818
806.176,172.57680952380963
808.649,168.21609523809533
811.119,176.98009523809534
813.588,160.77291428571436
816.055,128.11803333333341
818.521,132.157961904762
820.984,123.41636190476197
823.446,120.41722857142865
825.906,121.82686666666672
828.365,118.16954285714291
830.821,104.35002380952389
833.276,122.84501904761913
835.729,131.98841904761915
838.181,136.49541904761912
840.631,133.70009523809532
843.079,132.79376190476194
845.525,101.49137619047622
847.97,80.69882380952384
850.412,58.56013809523811
852.854,45.886166666666725
855.293,61.20227142857147
857.731,70.98592380952385
860.167,51.429180952380975
862.601,46.486061904761925
865.034,32.06305238095241
867.465,46.39996666666672
869.894,80.45114761904769
872.321,106.31398095238102
874.747,121.89497619047627
877.171,119.57724285714292
879.594,114.07740952380959
882.014,110.15936666666674
884.433,135.49221904761913
886.851,145.84049047619055
889.266,153.7300857142858
891.68,143.59209523809534
894.092,157.0482380952382
896.503,169.3391904761906
898.912,184.70595238095248
901.319,165.10338095238103
903.724,150.5819523809525
906.128,143.0490285714287
908.53,149.79309047619057
910.931,145.2457952380953
913.329,117.41015238095244
915.726,106.86011904761914
918.122,112.40862857142864
920.516,124.96336666666674
922.908,123.43191904761912
925.298,124.77007619047625
927.687,104.9332000000001
930.074,121.68610476190483
932.459,143.8890476190477
934.843,125.45000000000006
937.225,134.5146857142858
939.605,128.8010333333334
941.984,104.45496666666673
944.361,86.38435238095244
946.736,93.59226190476195
949.11,62.60573333333339
951.482,88.90396666666672
953.853,78.63314285714289
956.222,63.177328571428596
958.589,47.58727142857147
960.954,60.866214285714335
963.318,71.63619047619054
965.68,108.94788925714292
968.041,98.51870659047621
970.4,71.35168460952383
972.757,42.92606140952383
975.113,44.578232228571466
977.467,28.50158754285716
979.819,22.556213066666665
982.17,8.55452380952382
984.519,22.642361904761945
986.866,47.15575714285719
989.212,61.52598571428574
991.556,73.37502380952385
993.899,73.56239523809529
996.24,75.42395238095244
998.579,109.43822380952386
1000.92,111.13127142857145
1003.25,67.3147285714286
1005.59,54.27647142857146
1007.92,51.63712380952385
1010.25,46.25541904761909
1012.58,68.32308571428575
1014.91,74.31774761904765
1017.24,76.04992380952386
1019.56,80.37774285714292
1021.88,87.01624285714291
1024.2,86.34708571428578
1026.52,108.51345238095246
1028.84,130.70592857142867
1031.16,141.16295714285724
1033.48,153.64649523809533
1035.79,145.48961904761916
1038.1,131.21595238095247
1040.41,160.8729047619049
1042.72,192.36433333333343
1045.03,204.3089523809525
1047.33,200.4676666666668
1049.64,197.17300000000012
1051.94,165.09038095238105
1054.24,162.4570000000001
1056.54,165.79542857142866
1058.84,176.5329523809525
1061.13,172.57266666666678
1063.43,183.8181904761906
1065.72,194.74376190476204
1068.01,198.82390476190486
1070.3,191.2949523809525
1072.59,178.86914285714295
1074.87,173.21133333333347
1077.16,180.843142857143
1079.44,213.19100000000017
1081.72,256.87214285714305
1084.0,318.97904761904783
1086.28,390.3667142857145
1088.56,482.89009523809557
1090.84,612.6893333333337
1093.11,704.4287619047623
1095.38,729.2486190476195
1097.65,681.5271904761908
1099.92,554.0237142857145
1102.19,421.7354761904765
1104.46,387.80280952380986
1106.72,403.8898571428574
1108.98,424.18385714285745
1111.24,444.96809523809554
1113.5,464.52509523809556
1115.76,490.47114285714315
1118.02,538.8989523809527
1120.28,568.6152380952383
1122.53,535.7120476190478
1124.78,464.8532380952383
1127.03,390.55957142857164
1129.28,320.0185714285716
1131.53,278.94190476190494
1133.77,236.85066666666677
1136.02,195.31328571428583
1138.26,165.7558095238096
1140.5,162.6989523809525
1142.74,190.94923809523826
1144.98,245.78961904761917
1147.22,273.07495238095254
1149.45,269.2786666666668
1151.69,249.73133333333348
1153.92,244.71604761904774
1156.15,228.51576190476203
1158.38,201.41366666666678
1160.61,164.8360952380953
1162.83,140.3520476190477
1165.06,124.0065238095239
1167.28,122.79764285714293
1169.5,120.10379047619054
1171.72,106.3992190476191
1173.94,78.44365238095244
1176.16,87.18740952380958
1178.37,93.43813809523816
1180.58,102.90829047619053
1182.8,101.11973428571432
1185.01,64.02329619047619
1187.22,39.85559238095242
1189.42,42.757837142857184
1191.63,51.44294000000005
1193.84,63.00486285714288
1196.04,74.53772476190478
1198.24,38.564271428571445
1200.44,28.655204761904784
1202.64,18.71440000000002
1204.84,32.26511428571432
1207.03,43.87836190476194
1209.23,73.79204285714289
1211.42,48.33938095238096
1213.61,42.85380380952383
1215.8,26.430803333333348
1217.99,15.546971428571442
1220.18,28.393369714285747
1222.36,32.39931185714286
1224.55,29.803793714285753
1226.73,39.84589147619048
1228.91,42.76484276190479
1231.09,29.75239661904765
1233.27,53.90516257142861
1235.44,56.938895238095284
1237.62,75.14089047619052
1239.79,80.7508095238096
1241.96,98.8179571428572
1244.13,98.15391428571435
1246.3,126.80829523809533
1248.47,152.92581904761914
1250.64,161.07985714285724
1252.8,166.03471428571436
1254.96,167.45890476190482
1257.13,151.2122380952382
1259.29,163.3447142857144
1261.44,196.43009523809536
1263.6,192.04204761904776
1265.76,203.99304761904773
1267.91,194.19028571428578
1270.06,192.73180952380963
1272.22,184.66766666666675
1274.37,174.0959523809525
1276.51,163.06690476190488
1278.66,175.29790476190487
1280.81,174.07741904761914
1282.95,165.3130857142858
1285.09,152.43626666666677
1287.23,146.73581904761915
1289.37,164.40493333333345
1291.51,174.54218095238105
1293.65,168.86451428571436
1295.78,135.32748571428579
1297.92,105.98167619047625
1300.05,92.7349714285715
1302.18,100.97099047619055
1304.31,121.02635238095246
1306.44,153.9992476190477
1308.57,188.70234285714298
1310.69,197.4719523809525
1312.82,195.21609523809536
1314.94,209.08042857142874
1317.06,218.97223809523823
1319.18,230.56142857142873
1321.3,254.3268571428573
1323.41,261.9858571428573
1325.53,269.35114285714303
1327.64,287.56823809523826
1329.75,301.6870000000002
1331.87,312.6630952380954
1333.98,344.11795238095254
1336.08,327.34000000000015
1338.19,313.284523809524
1340.3,297.90609523809536
1342.4,263.20700000000016
1344.5,225.76152380952394
1346.6,217.42890476190487
1348.7,166.87833333333342
1350.8,153.77861904761915
1352.9,162.13185714285723
1354.99,165.3685714285715
1357.09,151.30042857142868
1359.18,159.30985714285723
1361.27,150.68485714285725
1363.36,186.28404761904778
1365.45,235.2520952380954
1367.54,255.5905714285716
1369.62,265.72942857142874
1371.7,271.4793333333335
1373.79,286.69890476190494
1375.87,323.05600000000015
1377.95,358.3610476190478
1380.03,343.56738095238114
1382.1,335.3423333333335
1384.18,291.25800000000015
1386.25,261.1242952380954
1388.33,198.1800571428572
1390.4,151.47316190476198
1392.47,118.19418095238103
1394.54,112.24790476190483
1396.6,102.77696666666674
1398.67,129.0191428571429
1400.74,101.06933809523814
1402.8,77.35552380952386
1404.86,78.63898571428577
1406.92,94.20453333333342
1408.98,105.9082095238096
1411.04,127.74901428571434
1413.09,117.53489523809529
1415.15,106.26437619047627
1417.2,105.55529523809531
1419.25,119.26272857142865
1421.3,120.67064761904768
1423.35,108.8722952380953
1425.4,110.19891428571435
1427.45,98.55290000000005
1429.49,89.98006666666672
1431.54,106.95350000000005
1433.58,100.89967142857148
1435.62,90.67312857142863
1437.66,83.27141428571434
1439.7,85.59631428571436
1441.74,87.45490000000007
1443.77,104.93916666666674
1445.81,104.61790000000005
1447.84,97.91665238095244
1449.87,86.49916666666674
1451.9,87.69557619047626
1453.93,106.2173476190477
1455.96,114.53740476190482
1457.98,125.84333333333342
1460.01,134.8937380952382
1462.03,165.68544761904772
1464.05,182.83430000000013
1466.07,229.2422285714287
1468.09,255.95352380952394
1470.11,268.44152380952397
1472.13,268.8937619047621
1474.14,282.78290476190494
1476.16,263.0109047619049
1478.17,247.62242857142869
1480.18,226.56676190476202
1482.19,207.84103809523822
1484.2,162.8712761904763
1486.21,143.27343809523816
1488.21,118.6640476190477
1490.22,94.65943809523814
1492.22,77.59040476190482
1494.22,80.74013523809526
1496.22,37.39200190476193
1498.22,48.924751428571476
1500.22,44.09799095238097
1502.22,46.433489523809556
1504.21,30.97689952380953
1506.21,40.72638285714289
1508.2,29.680188095238137
1510.19,72.74158095238101
1512.18,74.86133333333338
1514.17,79.0380904761905
1516.16,50.603923809523835
1518.14,54.65307142857148
1520.13,65.08915238095244
1522.11,77.67320952380956
1524.09,59.880504761904774
1526.07,42.32933333333336
1528.05,49.44773809523815
1530.03,56.425647619047666
1532.01,78.11962857142862
1533.98,75.19588571428575
1535.96,83.08284285714294
1537.93,87.97056190476195
1539.9,96.66850000000005
1541.87,75.74786666666671
1543.84,64.63728095238099
1545.81,54.62234761904768
1547.78,84.98904285714293
1549.74,108.02320000000009
1551.7,137.53470000000007
1553.67,150.95230476190486
1555.63,145.0858714285715
1557.59,124.41202857142866
1559.55,130.74055714285723
1561.5,132.64350476190486
1563.46,145.59763333333342
1565.41,135.6986571428572
1567.37,136.04258095238103
1569.32,119.2017714285715
1571.27,125.8434476190477
1573.22,132.92099047619055
1575.17,138.57771428571436
1577.11,127.14780476190482
1579.06,113.82266666666672
1581.0,101.6986714285715
1582.95,107.30050476190483
1584.89,125.67687142857153
1586.83,154.49505714285723
1588.77,164.3279333333334
1590.7,146.3192095238096
1592.64,126.61301904761912
1594.58,104.18656666666683
1596.51,90.94562380952414
1598.44,96.39122380952438
