Raman Shift,Processed Intensity
331.095,119.07674952380927
333.909,-13.356891904762193
336.721,-58.223278333333525
339.531,-47.56575809523809
342.339,-17.427960476190474
345.145,-10.424540000000006
347.949,5.830848095238095
350.751,8.201564285714293
353.55,-3.4481852380952436
356.348,9.9849804761905
359.144,31.605084761904784
361.937,29.94582333333337
364.729,74.01803047619053
367.518,74.83355238095243
370.306,94.92913809523824
373.091,223.5570095238097
375.874,348.58907619047636
378.656,372.27943333333354
381.435,365.6452285714287
384.212,240.60953809523812
386.988,105.04904285714291
389.761,38.127252380952406
392.532,4.151580761904754
395.301,-35.56932114285713
398.068,-12.344537523809507
400.833,13.8514601904762
403.596,30.854948190476215
406.358,26.31301695238095
409.117,24.016809333333335
411.874,2.9492333333333267
414.629,-13.619784761904775
417.382,-31.228627619047625
420.133,-35.79543619047618
422.882,10.429832380952462
425.629,103.72168285714297
428.374,181.35608666666678
431.117,253.7531152380954
433.858,280.14326666666676
436.597,243.8535238095239
439.334,206.54495238095245
442.069,186.40333333333342
444.802,162.9487142857144
447.533,179.27319047619062
450.262,206.51771428571445
452.989,240.4428571428573
455.714,241.4286666666668
458.438,248.04729523809536
461.159,215.63256666666675
463.878,145.5666714285715
466.595,95.51831904761913
469.31,83.20422380952388
472.024,94.57976666666676
474.735,135.64897619047628
477.444,148.51077619047626
480.152,135.3600095238096
482.857,123.29661428571434
485.561,111.51643809523819
488.262,126.64400476190484
490.962,120.30449523809527
493.659,86.45634761904765
496.355,69.20093333333337
499.048,77.11660476190482
501.74,85.01975238095244
504.43,78.58404761904765
507.118,101.43581904761913
509.804,123.1537761904763
512.488,148.79297142857155
515.17,195.0279095238096
517.85,178.91357619047625
520.528,125.45780952380959
523.204,105.52530000000006
525.878,110.17134285714295
528.551,118.02270952380961
531.221,134.6111190476191
533.89,120.61069523809527
536.556,101.9815285714286
539.221,52.111857142857176
541.883,53.675757142857194
544.544,71.82331428571436
547.203,89.22810476190483
549.86,122.6116000000001
552.515,144.40893333333338
555.168,119.19823809523817
557.819,137.03366666666676
560.469,164.7787142857144
563.116,162.581761904762
565.761,163.54404761904772
568.405,161.76619047619053
571.047,141.92019047619058
573.687,160.96342857142866
576.324,165.71019047619055
578.96,150.49819047619053
581.594,128.09338095238104
584.227,138.49980952380963
586.857,162.62561904761915
589.485,196.8549523809525
592.112,195.0952857142858
594.737,177.30176190476195
597.359,150.57195238095247
599.98,123.90790476190483
602.599,129.4542952380953
605.216,129.92667619047626
607.831,126.56379047619055
610.445,117.84276666666673
613.056,96.52594761904766
615.666,79.37517619047625
618.274,96.00935714285721
620.88,102.76113809523818
623.484,126.01082380952388
626.086,140.47145714285722
628.686,147.71290476190484
631.284,163.8764761904763
633.881,181.3409523809525
636.476,206.4373809523811
639.068,238.97316190476207
641.659,226.94497142857153
644.249,188.4449428571429
646.836,111.27957619047622
649.421,64.25468571428576
652.005,40.4619190476191
654.587,55.61175904761909
657.166,39.84275904761907
659.745,44.81743714285717
662.321,45.72176476190481
664.895,60.170084761904796
667.468,52.63398285714288
670.038,75.01355428571432
672.607,54.541785714285744
675.174,55.88044761904766
677.739,68.69106190476192
680.303,64.15900000000002
682.864,46.94582857142861
685.424,57.57035714285716
687.982,48.360566666666685
690.538,28.02564285714287
693.092,17.941380952380968
695.645,31.293190476190503
698.195,25.88559523809525
700.744,13.999371428571438
703.291,20.058299047619048
705.836,6.295739523809529
708.38,0.32609333333335844
710.921,22.81155571428573
713.461,37.55728857142861
715.999,43.225715714285755
718.535,74.62218000000006
721.069,82.50458095238099
723.602,82.67847619047623
726.133,76.52096666666671
728.662,58.64741428571431
731.189,51.816061904761945
733.714,51.832842857142886
736.238,64.64673333333339
738.759,68.63532380952384
741.279,64.27156190476194
743.798,45.31421428571431
746.314,33.99830000000002
748.829,31.796880952381002
751.342,75.56446190476197
753.853,105.10773809523815
756.362,104.1859428571429
758.869,114.55843333333338
761.375,106.60361428571434
763.879,96.03322857142864
766.381,93.17859047619054
768.882,104.60894761904768
771.38,72.75067619047626
773.877,102.506661904762
776.372,123.11319523809532
778.866,148.4729238095239
781.357,133.20340476190484
783.847,121.68409523809528
786.335,62.19916666666671
788.821,78.6997333333334
791.306,83.04175714285722
793.789,136.604761904762
796.27,163.48319047619057
798.749,165.81882857142864
801.227,165.13476190476203
803.702,178.09695238095247
806.176,160.79976190476202
808.649,164.3380000000001
811.119,172.71128571428582
813.588,172.87152380952395
816.055,201.5332380952382
818.521,192.79142857142867
820.984,177.74114285714293
823.446,168.8588095238096
825.906,152.14469047619056
828.365,138.0277714285715
830.821,125.46108095238102
833.276,101.73040000000007
835.729,105.36053809523818
838.181,146.06625714285724
840.631,172.89654285714295
843.079,172.66192380952387
845.525,150.50611428571435
847.97,134.14475238095247
850.412,108.43641904761911
852.854,69.14419523809525
855.293,63.74617142857146
857.731,47.33917142857146
860.167,39.78206666666672
862.601,69.98196190476195
865.034,82.08344285714288
867.465,70.61250952380958
869.894,69.57132857142861
872.321,67.00997142857148
874.747,57.02607142857148
877.171,74.19380000000007
879.594,84.89667619047627
882.014,129.13735238095248
884.433,145.06126666666674
886.851,171.5286000000001
889.266,162.5897095238096
891.68,143.0094190476191
894.092,136.1243857142858
896.503,150.318561904762
898.912,177.78547142857155
901.319,197.8618761904763
903.724,171.9316190476191
906.128,141.42642857142866
908.53,131.20709523809532
910.931,121.89547619047629
913.329,140.6380476190477
915.726,147.53323809523818
918.122,138.96542857142865
920.516,138.08086666666674
922.908,126.69250000000005
925.298,108.66044285714293
927.687,80.46447619047623
930.074,93.1553476190477
932.459,122.30781904761913
934.843,144.92529047619058
937.225,139.72523333333336
939.605,105.2823142857143
941.984,63.123495238095295
944.361,70.25198095238102
946.736,82.71821428571432
949.11,89.14447619047624
951.482,79.3908285714286
953.853,62.698290476190515
956.222,59.68878095238101
958.589,70.31758571428577
960.954,82.15866190476197
963.318,108.3097857142858
965.68,118.7738952380953
968.041,136.69619238095245
970.4,116.93610190476194
972.757,96.1149466666667
975.113,67.61574190476192
977.467,41.58334285714288
979.819,22.686732380952403
982.17,30.97524380952382
984.519,21.450544761904794
986.866,35.9238104761905
989.212,47.15837714285718
991.556,68.01292857142862
993.899,82.86950476190482
996.24,100.34842380952388
998.579,101.54585714285717
1000.92,85.31990476190478
1003.25,58.57610952380954
1005.59,42.124835238095244
1007.92,11.918932857142869
1010.25,1.4351752380952547
1012.58,23.34066238095242
1014.91,38.25460380952384
1017.24,68.55818523809529
1019.56,90.9656828571429
1021.88,86.7151666666667
1024.2,70.66370476190482
1026.52,87.90628095238102
1028.84,106.01420952380961
1031.16,138.03451904761914
1033.48,178.0145857142858
1035.79,200.5252000000001
1038.1,193.66080952380963
1040.41,219.75400000000013
1042.72,254.89952380952394
1045.03,255.09604761904774
1047.33,247.43833333333345
1049.64,220.73490476190486
1051.94,194.9843333333335
1054.24,214.75695238095253
1056.54,233.09938095238107
1058.84,206.43861904761917
1061.13,202.4879523809525
1063.43,166.4363333333334
1065.72,171.37733333333347
1068.01,195.9761904761906
1070.3,211.04119047619056
1072.59,175.8085714285715
1074.87,186.1340000000001
1077.16,170.9679523809525
1079.44,220.30876190476212
1081.72,284.9642380952383
1084.0,350.02776190476214
1086.28,407.0685714285717
1088.56,496.13242857142893
1090.84,601.6939047619052
1093.11,696.0845238095243
1095.38,742.3022857142861
1097.65,702.1068095238098
1099.92,601.6388095238099
1102.19,504.1820952380955
1104.46,446.258285714286
1106.72,398.1988571428574
1108.98,414.7634285714289
1111.24,464.4736190476193
1113.5,470.660666666667
1115.76,511.6084761904766
1118.02,537.2667142857146
1120.28,528.3955714285718
1122.53,521.5641428571432
1124.78,527.6747619047621
1127.03,471.34457142857167
1129.28,411.00000000000017
1131.53,339.8293333333335
1133.77,251.78280952380965
1136.02,195.6679523809525
1138.26,187.14890476190487
1140.5,185.93828571428583
1142.74,208.31928571428583
1144.98,230.90904761904773
1147.22,232.4197142857144
1149.45,242.08752380952396
1151.69,231.86285714285728
1153.92,211.69595238095252
1156.15,204.15638095238106
1158.38,197.48021809523823
1160.61,151.37993476190482
1162.83,125.75838380952386
1165.06,83.28046523809529
1167.28,80.61074571428578
1169.5,79.27167285714292
1171.72,105.02350380952387
1173.94,92.24532857142863
1176.16,107.7451333333334
1178.37,92.997480952381
1180.58,79.19127619047622
1182.8,49.84899809523811
1185.01,26.778938095238104
1187.22,10.503397619047634
1189.42,8.687826666666671
1191.63,5.092914761904769
1193.84,9.574700000000021
1196.04,24.560734761904783
1198.24,44.62146571428574
1200.44,41.7560161904762
1202.64,32.20168190476191
1204.84,11.91016
1207.03,-3.595298571428564
1209.23,-3.2198685714285524
1211.42,24.226580476190495
1213.61,27.743859047619065
1215.8,39.284247142857154
1217.99,32.0382761904762
1220.18,36.57752761904765
1222.36,45.94988285714289
1224.55,55.82238285714288
1226.73,49.62412380952382
1228.91,32.02237238095238
1231.09,4.351222380952391
1233.27,9.944856190476202
1235.44,-1.6242966666666607
1237.62,17.692472380952424
1239.79,42.372625238095274
1241.96,78.27465238095245
1244.13,94.5429114285715
1246.3,124.4647352380953
1248.47,105.75605238095247
1250.64,125.46643809523819
1252.8,134.83567142857152
1254.96,165.81829523809535
1257.13,185.60689047619059
1259.29,206.34653333333344
1261.44,213.2302380952382
1263.6,221.6890000000001
1265.76,223.9631904761906
1267.91,205.67452380952395
1270.06,204.1111904761906
1272.22,172.84738095238106
1274.37,172.69533333333342
1276.51,150.94371428571438
1278.66,154.35738095238105
1280.81,146.0821904761906
1282.95,139.97821428571436
1285.09,126.52466666666675
1287.23,139.34340476190485
1289.37,132.15238095238104
1291.51,149.04984285714295
1293.65,142.75343809523815
1295.78,136.40923809523818
1297.92,121.21080476190484
1300.05,107.6374095238096
1302.18,101.88302380952388
1304.31,98.95099047619053
1306.44,98.22570952380963
1308.57,135.6152000000001
1310.69,145.26560952380962
1312.82,148.22782857142866
1314.94,156.12435238095247
1317.06,158.43480952380963
1319.18,159.25738095238106
1321.3,192.21447619047632
1323.41,199.88061904761918
1325.53,214.5450000000002
1327.64,254.2585714285716
1329.75,286.59576190476207
1331.87,295.70242857142875
1333.98,323.1056190476192
1336.08,302.57019047619065
1338.19,279.38514285714297
1340.3,260.83876190476207
1342.4,216.55300000000008
1344.5,191.14981904761916
1346.6,165.20322380952388
1348.7,129.57322380952388
1350.8,103.45297142857149
1352.9,85.41608571428576
1354.99,82.37014285714292
1357.09,103.74580952380958
1359.18,121.92653809523816
1361.27,125.39050000000006
1363.36,121.13988571428578
1365.45,109.79550476190484
1367.54,114.54989523809532
1369.62,136.6905904761906
1371.7,183.7907333333335
1373.79,221.66114285714303
1375.87,261.1130476190478
1377.95,272.0997619047621
1380.03,265.765523809524
1382.1,251.58771428571438
1384.18,219.66214285714295
1386.25,177.94219047619058
1388.33,157.61901904761913
1390.4,126.45477142857148
1392.47,100.7355428571429
1394.54,73.98521428571432
1396.6,71.96567619047623
1398.67,55.53412380952385
1400.74,62.6901428571429
1402.8,73.43321428571433
1404.86,77.90551047619051
1406.92,46.86812000000003
1408.98,63.367478095238134
1411.04,62.87870857142862
1413.09,71.20995428571435
1415.15,99.12175333333339
1417.2,104.99314380952384
1419.25,92.2985952380953
1421.3,85.22631904761909
1423.35,76.48859047619052
1425.4,71.89267142857148
1427.45,65.48394285714289
1429.49,66.64050476190481
1431.54,82.64578571428576
1433.58,74.354080952381
1435.62,64.52444285714289
1437.66,70.67775238095241
1439.7,53.572842857142895
1441.74,68.01602857142862
1443.77,84.95661428571434
1445.81,99.34369047619055
1447.84,101.03104285714292
1449.87,95.34860952380957
1451.9,85.57874761904768
1453.93,92.9561333333334
1455.96,87.3818714285715
1457.98,101.51908571428578
1460.01,109.17373809523815
1462.03,123.15155238095247
1464.05,136.5445857142858
1466.07,172.8252285714287
1468.09,211.7993333333335
1470.11,256.7013333333335
1472.13,279.242142857143
1474.14,289.2273333333335
1476.16,287.6537142857145
1478.17,279.51761904761923
1480.18,259.4344285714287
1482.19,220.7817238095239
1484.2,156.65165238095244
1486.21,101.37378095238101
1488.21,92.42149047619054
1490.22,97.21983809523816
1492.22,103.57520000000005
1494.22,98.43701428571434
1496.22,87.37376190476195
1498.22,70.43000000000004
1500.22,59.74616666666671
1502.22,58.46208380952384
1504.21,48.48019571428573
1506.21,18.274229523809527
1508.2,6.60378047619048
1510.19,13.895253333333354
1512.18,16.718038571428586
1514.17,25.594107619047634
1516.16,38.23597333333334
1518.14,26.975411428571437
1520.13,17.00145619047621
1522.11,32.5508742857143
1524.09,31.908185714285732
1526.07,20.310483809523827
1528.05,32.804408571428596
1530.03,37.34155142857146
1532.01,39.77837809523814
1533.98,53.2095628571429
1535.96,57.44412000000003
1537.93,50.338852380952424
1539.9,53.13161428571431
1541.87,57.63175238095242
1543.84,73.64880476190481
1545.81,81.70662380952385
1547.78,93.13860000000008
1549.74,116.7069476190477
1551.7,119.07875238095245
1553.67,127.25417619047626
1555.63,135.09096190476197
1557.59,119.73252380952388
1559.55,122.32238095238102
1561.5,136.05202857142865
1563.46,124.82690952380959
1565.41,126.64743809523816
1567.37,125.84821428571435
1569.32,99.90620476190482
1571.27,105.34650000000008
1573.22,114.17016666666672
1575.17,101.47340952380958
1577.11,97.11446190476195
1579.06,98.951980952381
1581.0,104.74902857142865
1582.95,113.93570952380958
1584.89,116.70361904761911
1586.83,110.86370000000005
1588.77,115.17923809523818
1590.7,142.2232142857144
1592.64,163.8068095238096
1594.58,161.6457261904764
1596.51,157.28897619047657
1598.44,160.23797619047673
