Raman Shift,Processed Intensity
331.095,58.61566258473749
333.909,77.11027636990548
336.721,78.07893474194316
339.531,71.6883102120737
342.339,60.10508698063177
345.145,104.9721572577987
347.949,127.43243663194653
350.751,140.53363181894338
353.55,146.5615798400213
356.348,147.99263481871003
359.144,154.0174833491883
361.937,211.82686462654192
364.729,238.99252867226187
367.518,239.94343265499265
370.306,258.91812768746286
373.091,331.8219075281886
375.874,424.2744334736499
378.656,494.80021639332335
381.435,471.16195590757343
384.212,352.2176890893579
386.988,223.2541296421159
389.761,123.08191183956069
392.532,73.4165487511932
395.301,61.30700951543167
398.068,71.94524899369571
400.833,54.33288028164043
403.596,32.47165674419239
406.358,15.83966833631166
409.117,-12.751509695297955
411.874,-23.68062049142918
414.629,-40.08814669653157
417.382,-47.16201863993001
420.133,-55.80427744911049
422.882,-21.583456874542208
425.629,20.932077235615452
428.374,74.93601923275628
431.117,78.52696600654508
433.858,115.66078527929403
436.597,128.00774580510733
439.334,126.66679042617079
442.069,130.3083805576016
444.802,133.07924543421586
447.533,107.84046469061377
450.262,117.26269379842233
452.989,130.34996093209884
455.714,144.82060669188104
458.438,167.4882238267387
461.159,163.11878743351508
463.878,129.62111848939412
466.595,126.95163309865939
469.31,120.11432983469422
472.024,108.30363422483879
474.735,93.8567670447751
477.444,70.58706499385744
480.152,57.73634898949149
482.857,94.40348293770694
485.561,111.25865399268878
488.262,123.3528969291201
490.962,110.26095184784799
493.659,113.46221711966018
496.355,139.67408328143165
499.048,137.80431455132612
501.74,135.47485891542874
504.43,137.92661059532838
507.118,161.4003629918975
509.804,200.47014258145055
512.488,288.42416185952334
515.17,332.40767704655264
517.85,394.9467981745179
520.528,396.56753726881425
523.204,383.65295176822247
525.878,352.4431450877323
528.551,357.55907670518855
531.221,352.28827700984084
533.89,400.87056215088387
536.556,410.68851079076603
539.221,396.1246075251679
541.883,419.132672017256
544.544,442.61881194146645
547.203,438.91761402253314
549.86,473.26833507450783
552.515,498.386331135021
555.168,482.7011532662136
557.819,499.07083383184863
560.469,494.87712515537805
563.116,478.21597627324945
565.761,475.0880096882106
568.405,479.25566478929113
571.047,467.52891270034615
573.687,458.8604949381338
576.324,429.39354302277343
578.96,403.2711028501112
581.594,379.0170876355105
584.227,341.72675466717055
586.857,349.06670586896826
589.485,372.9891740775847
592.112,387.2082140815337
594.737,408.53303651733313
597.359,427.534675099012
599.98,403.40313003808797
602.599,407.0902257492603
605.216,432.59532569896373
607.831,471.9177139205867
610.445,510.38992891065254
613.056,554.9158594297678
615.666,590.5421736368926
618.274,655.0773672712494
620.88,699.758430881835
623.484,721.2984694378915
626.086,713.8867028917666
628.686,747.4741810274727
631.284,774.6309268806854
633.881,830.0221277777814
636.476,876.0748025653629
639.068,877.2635164588182
641.659,844.8246673194562
644.249,786.9945814554494
646.836,659.1523713275396
649.421,528.0104123023593
652.005,410.3762479771872
654.587,340.9144955047027
657.166,297.19446520345946
659.745,254.40444683502938
662.321,185.97075778590442
664.895,124.60536267796579
667.468,73.97254059800571
670.038,69.879361851059
672.607,66.03759328516207
675.174,81.87322266373349
677.739,62.240744942717356
680.303,58.08982950010932
682.864,43.51293974643704
685.424,28.745333687624225
687.982,10.069826392612413
690.538,-3.516542777110317
693.092,1.7927314132516585
695.645,18.708862699535985
698.195,12.466825098859317
700.744,6.206309639097981
703.291,10.543159183355328
705.836,-8.525862136052183
708.38,-4.099251225625721
710.921,22.86733845151548
713.461,25.323009991005165
715.999,41.78829764284956
718.535,65.3551747403817
721.069,67.30610924825896
723.602,76.63788121521702
726.133,81.58540022683383
728.662,56.47885619161684
731.189,32.74372726995216
733.714,10.710311612576561
736.238,2.1851638609646216
738.759,28.070150695330994
741.279,25.98150638263087
743.798,23.011745686582117
746.314,-9.460804174702389
748.829,-24.34342395202816
751.342,-32.2575656455856
753.853,-22.824559601091323
756.362,-7.475133643850313
758.869,1.3124929947023247
761.375,-2.4159627872450073
763.879,26.62343596471169
766.381,34.143320663976965
768.882,44.18977730002416
771.38,51.951868460219885
773.877,42.23782201832091
776.372,43.57026744201244
778.866,54.662424481403605
781.357,63.275244238472624
783.847,73.6459788079435
786.335,81.48817948959163
788.821,66.99169500054677
791.306,90.01314587807724
793.789,101.93306554903893
796.27,113.98923187551645
798.749,129.94333203379824
801.227,170.36667501239708
803.702,202.11638030054655
806.176,251.76394752907822
808.649,256.976207063685
811.119,243.70579440770484
813.588,214.14352936680802
816.055,200.28984283273144
818.521,190.66906070986738
820.984,214.61511641328389
823.446,216.74773955721594
825.906,206.59150178641858
828.365,183.81391022656953
830.821,150.27302474418843
833.276,128.30317044466142
835.729,141.61969778930575
838.181,136.69993318863544
840.631,128.06889150038592
843.079,117.8230837656356
845.525,99.24956304016405
847.97,94.34973213056196
850.412,87.1250560922474
852.854,80.10086996558289
855.293,56.08828175008716
857.731,38.70798014055731
860.167,33.86642321557133
862.601,34.42250331646619
865.034,45.80659287869389
867.465,52.02054264413641
869.894,22.30434654008309
872.321,-2.5305267751230076
874.747,-3.958278556913001
877.171,7.832646809250946
879.594,29.177655002124993
882.014,52.078856461962914
884.433,74.58601632588852
886.851,51.08226626802889
889.266,43.71267348250467
891.68,48.19376204737796
894.092,40.14684381240477
896.503,85.9551588106026
898.912,92.81149186028802
901.319,77.2419796433062
903.724,86.24896540230725
906.128,91.40623459040557
908.53,98.62091718750844
910.931,144.46681858807256
913.329,136.27965525077002
915.726,124.06181415767173
918.122,131.8156837020099
920.516,111.44841314735777
922.908,114.43857684871773
925.298,113.5028384736147
927.687,110.26261522318987
930.074,93.4821706247194
932.459,75.68765970509207
934.843,59.357602735710316
937.225,83.92288278691717
939.605,95.00483852052048
941.984,122.98669031564646
944.361,123.53734734697082
946.736,104.51616704391131
949.11,80.68723835933974
951.482,63.528903133530775
953.853,39.37661079144755
956.222,45.47053494478291
958.589,42.574618565439096
960.954,54.1194286828088
963.318,59.15453489058723
965.68,68.72945928215017
968.041,83.3222454335571
970.4,93.9823131008352
972.757,73.18759863155287
975.113,33.844552519250556
977.467,-8.04519637546423
979.819,-16.718176603817938
982.17,-14.220505145873858
984.519,14.925442634163346
986.866,32.86388506801404
989.212,37.31038952024687
991.556,42.12329591088928
993.899,38.49418785709349
996.24,14.947887624317218
998.579,26.961498696561648
1000.92,37.58344834659897
1003.25,48.909674590380064
1005.59,52.75029204334123
1007.92,22.724829205285687
1010.25,-9.499677111877418
1012.58,-9.113444499252637
1014.91,11.35986606793358
1017.24,45.920293574632296
1019.56,81.90110029556149
1021.88,57.49258201203179
1024.2,37.07540203830217
1026.52,24.12535381935868
1028.84,40.0228854334614
1031.16,80.95786218993067
1033.48,107.7390935869987
1035.79,108.60386026966557
1038.1,110.83696479707669
1040.41,97.72311574323658
1042.72,99.97550227391002
1045.03,115.1167496759108
1047.33,108.62177964828743
1049.64,125.9178134506617
1051.94,130.52723219441623
1054.24,144.0199609434103
1056.54,151.82299567184123
1058.84,153.98231117448086
1061.13,142.68667373882272
1063.43,150.6962157219839
1065.72,155.294819651421
1068.01,183.38535946850038
1070.3,189.4897036768357
1072.59,192.93919468110312
1074.87,207.20798526870726
1077.16,205.19875604383424
1079.44,213.67129000436216
1081.72,237.2424756901953
1084.0,243.81488176017615
1086.28,276.48152204517874
1088.56,363.43062060120906
1090.84,440.2313291434548
1093.11,539.5480159089066
1095.38,594.8069354713589
1097.65,550.053374746886
1099.92,449.38022757074646
1102.19,371.2613311790524
1104.46,310.45623126186456
1106.72,307.2958993972436
1108.98,315.6351171519643
1111.24,332.3762887536566
1113.5,349.1837299534059
1115.76,385.1027187931152
1118.02,425.89283208715415
1120.28,466.31366285639547
1122.53,455.1724425241555
1124.78,442.46690120737617
1127.03,402.8614613411287
1129.28,340.54438368408864
1131.53,304.89443713352034
1133.77,258.3856637783624
1136.02,195.3492868094554
1138.26,192.1641898583391
1140.5,183.06644395509784
1142.74,218.57788210525064
1144.98,247.6965786285498
1147.22,248.13494754539852
1149.45,247.12926953469878
1151.69,271.72540936788755
1153.92,251.15977143820555
1156.15,269.4307314804428
1158.38,225.87006829068946
1160.61,202.00010973179678
1162.83,206.05754540550697
1165.06,182.61247741981583
1167.28,156.13985210872534
1169.5,140.40041556151618
1171.72,106.5359548663157
1173.94,96.54549173460941
1176.16,92.3329046971869
1178.37,49.230741776274726
1180.58,41.381176014815765
1182.8,29.307437196223873
1185.01,13.72333880223664
1187.22,4.152328780292237
1189.42,7.308445072809263
1191.63,-4.427489373927074
1193.84,9.373090728431862
1196.04,-7.9563584310119495
1198.24,-19.606055947840105
1200.44,-10.147032863530058
1202.64,-18.626364893426626
1204.84,12.956640388238384
1207.03,-1.1114589837532094
1209.23,-18.734429584431837
1211.42,-15.53017055008877
1213.61,-17.021188311479364
1215.8,-21.301263792190184
1217.99,14.678831130919434
1220.18,36.15894869449721
1222.36,63.56955899213585
1224.55,85.81745949785454
1226.73,99.14291316100093
1228.91,96.50059602495958
1231.09,70.8929257982445
1233.27,76.94148566368222
1235.44,40.553686182839556
1237.62,55.20847481949863
1239.79,99.33728355836752
1241.96,103.75259557141499
1244.13,120.55270236038882
1246.3,137.8836037564795
1248.47,163.9390031580774
1250.64,258.1031599113894
1252.8,361.71278931010033
1254.96,439.4856292616955
1257.13,516.5204355252179
1259.29,565.4874531395003
1261.44,635.8665068990181
1263.6,675.9946156392671
1265.76,694.8278922364304
1267.91,694.0843959879892
1270.06,660.8155564219112
1272.22,586.7871209153607
1274.37,546.3839118372136
1276.51,489.08601226200426
1278.66,437.65923739815867
1280.81,379.6789393495619
1282.95,324.1490499723618
1285.09,260.6925523032014
1287.23,246.50385674935524
1289.37,275.3011772788684
1291.51,287.08843142021396
1293.65,284.2028545476742
1295.78,271.50547130957625
1297.92,269.000138485095
1300.05,263.64306403153796
1302.18,283.5808975601906
1304.31,286.1031065264551
1306.44,285.45149527712465
1308.57,261.724962192902
1310.69,267.8794949261601
1312.82,276.6329275434575
1314.94,291.5125548109172
1317.06,338.75988933674057
1319.18,342.854466332778
1321.3,329.32336266180755
1323.41,327.5983349324365
1325.53,341.06343378447855
1327.64,326.6740467457539
1329.75,366.62356013651834
1331.87,350.20049716436074
1333.98,328.5980369714878
1336.08,310.53305749152514
1338.19,281.7223211634639
1340.3,233.59675588370078
1342.4,205.444307386653
1344.5,159.07660114918235
1346.6,121.63846143786805
1348.7,86.32219226104417
1350.8,56.1294773684524
1352.9,46.157089774706265
1354.99,17.64450604465901
1357.09,-0.7880032307521105
1359.18,13.955859898483368
1361.27,40.06746542544238
1363.36,76.45229998661625
1365.45,102.9680605325218
1367.54,105.8532282072049
1369.62,120.34611841820947
1371.7,111.35154995416883
1373.79,131.05989505477555
1375.87,170.28041519504586
1377.95,187.4412635362503
1380.03,208.7323445196996
1382.1,211.48626869862483
1384.18,154.6069266176753
1386.25,106.52187221623126
1388.33,85.2775633745714
1390.4,51.77745960289235
1392.47,42.21059592080451
1394.54,30.33729959397874
1396.6,9.584430680311243
1398.67,-6.430805995335277
1400.74,-10.662760082904015
1402.8,-18.494472046648525
1404.86,-8.0233816172954
1406.92,19.129153091133958
1408.98,45.817858273908996
1411.04,51.802117701361794
1413.09,57.88883366403843
1415.15,57.5038593464144
1417.2,79.4539073910903
1419.25,81.02179179631594
1421.3,109.68071743256428
1423.35,130.66571241624706
1425.4,142.40220334057472
1427.45,132.93459050641582
1429.49,112.92625172458725
1431.54,61.945260403856764
1433.58,48.27391316275748
1435.62,59.33730506045026
1437.66,52.227142922820576
1439.7,53.082701525719585
1441.74,46.70987501630566
1443.77,45.866895001047396
1445.81,56.78814387183024
1447.84,78.66034908443703
1449.87,56.67020600845808
1451.9,59.7186674438733
1453.93,74.75428075667696
1455.96,87.72557263355361
1457.98,122.58105288417437
1460.01,148.45969443396257
1462.03,174.92903236448115
1464.05,201.55659628714943
1466.07,290.76705700267576
1468.09,365.5088969700146
1470.11,489.49250934674365
1472.13,616.2854398865918
1474.14,743.169533598867
1476.16,830.2837956935978
1478.17,942.672014431439
1480.18,988.7589554021454
1482.19,1011.9217938982881
1484.2,960.7282139556364
1486.21,850.1745073935399
1488.21,700.4951014267442
1490.22,565.305419610534
1492.22,439.22093326207187
1494.22,340.28573669125603
1496.22,229.8296938601502
1498.22,165.51606123288593
1500.22,100.43672967318366
1502.22,78.8265139609166
1504.21,65.0631565943961
1506.21,64.00066492598785
1508.2,45.54074353582564
1510.19,52.2518456531393
1512.18,50.46441505377379
1514.17,49.65184224342079
1516.16,43.906658736089184
1518.14,5.416731332580866
1520.13,-13.725210267705506
1522.11,-19.616807759730136
1524.09,-19.307974632062496
1526.07,-21.99136945089913
1528.05,-2.811918859195657
1530.03,-4.581104540687193
1532.01,14.175414130072568
1533.98,32.64636762113901
1535.96,37.687252822859136
1537.93,31.29652059007276
1539.9,28.282239474784774
1541.87,45.02399755408305
1543.84,57.044328067571314
1545.81,69.05632553099736
1547.78,89.05888089750238
1549.74,91.67001195695843
1551.7,104.98400325912326
1553.67,123.57140317964854
1555.63,127.95521146228111
1557.59,118.80135247534895
1559.55,134.87105323015157
1561.5,136.5922690183943
1563.46,153.53587095438706
1565.41,158.93945256485813
1567.37,133.0882792359116
1569.32,112.60099956475165
1571.27,92.62011861616747
1573.22,92.14532832187524
1575.17,89.4620759750951
1577.11,105.5225136775166
1579.06,89.08835254816177
1581.0,81.20705026558676
1582.95,70.73561765770592
1584.89,92.67394910113853
1586.83,79.02196244436846
1588.77,81.0176913118546
1590.7,93.61347264623623
1592.64,74.4283247267324
1594.58,70.27175375896786
1596.51,57.71517951242345
1598.44,29.425265719780327
