Raman Shift,Processed Intensity
331.095,94.89726904761872
333.909,31.86452619047605
336.721,27.75039761904756
339.531,50.1804666666667
342.339,41.946784761904766
345.145,29.65118999999999
347.949,-4.175163333333331
350.751,-11.238595714285715
353.55,-24.720878571428564
356.348,10.958754761904775
359.144,7.143790000000003
361.937,18.511836190476217
364.729,34.50324285714289
367.518,52.797138095238154
370.306,91.64524761904775
373.091,186.77601428571444
375.874,257.58586666666685
378.656,305.9480285714287
381.435,282.403661904762
384.212,193.35177619047624
386.988,96.85925714285719
389.761,48.66033809523813
392.532,26.681190476190512
395.301,46.03916190476195
398.068,47.8054761904762
400.833,35.43330000000001
403.596,12.329338095238091
406.358,6.520485714285703
409.117,-23.06030476190478
411.874,-27.66934285714288
414.629,-45.4187704761905
417.382,-49.13375142857144
420.133,-23.447674285714264
422.882,5.3406276190476465
425.629,60.505101904761986
428.374,110.41586285714294
431.117,157.68271523809534
433.858,207.20187142857156
436.597,229.77572380952392
439.334,207.6834285714287
442.069,192.96728571428577
444.802,154.43238095238107
447.533,153.122761904762
450.262,170.89309523809536
452.989,188.2176666666668
455.714,191.0475238095239
458.438,176.04885714285723
461.159,158.55538095238106
463.878,123.71045238095243
466.595,103.46839047619056
469.31,94.21200952380957
472.024,98.9439714285715
474.735,114.3818476190477
477.444,151.0529714285715
480.152,165.38984285714295
482.857,189.4447238095239
485.561,200.88904761904774
488.262,203.25171428571437
490.962,181.87167619047628
493.659,149.94496190476195
496.355,121.28734285714292
499.048,97.19069047619054
501.74,96.28044761904768
504.43,102.56338571428579
507.118,93.66522857142864
509.804,98.116661904762
512.488,126.972561904762
515.17,164.00196190476203
517.85,185.87849523809535
520.528,201.3716380952382
523.204,189.15478095238103
525.878,153.09243809523815
528.551,115.90612380952386
531.221,88.12696190476196
533.89,72.4285714285715
536.556,89.81814285714293
539.221,132.1117714285715
541.883,146.79256190476198
544.544,151.81947619047628
547.203,128.48476190476197
549.86,136.6044761904763
552.515,149.66076190476198
555.168,155.1835238095239
557.819,155.84542857142864
560.469,166.36590476190486
563.116,154.8457142857144
565.761,179.86157142857155
568.405,196.75142857142865
571.047,205.13878095238104
573.687,170.69504285714294
576.324,149.28094285714292
578.96,111.32914761904769
581.594,119.46238095238105
584.227,122.20757619047629
586.857,129.61503809523813
589.485,124.92584761904769
592.112,129.09444761904768
594.737,142.3611523809525
597.359,153.48962857142863
599.98,141.7191428571429
602.599,126.24163809523814
605.216,108.67709047619053
607.831,88.40689523809529
610.445,105.81224285714292
613.056,99.03603809523817
615.666,113.17303333333341
618.274,104.41336666666672
620.88,115.089361904762
623.484,122.62850952380963
626.086,165.98155238095248
628.686,196.3374904761906
631.284,232.217942857143
633.881,221.57338095238106
636.476,223.544142857143
639.068,209.69904761904778
641.659,195.79685714285728
644.249,190.92998095238107
646.836,180.28521904761914
649.421,164.0497333333334
652.005,123.21986190476194
654.587,73.8394761904762
657.166,33.90446666666669
659.745,29.982461904761927
662.321,21.735709523809554
664.895,40.58844285714289
667.468,51.91735714285717
670.038,53.47992380952384
672.607,48.98600952380955
675.174,50.66926190476194
677.739,80.81078571428577
680.303,69.4062666666667
682.864,58.832180952380995
685.424,70.56046190476194
687.982,66.92004666666672
690.538,51.001889523809574
693.092,76.08764095238098
695.645,66.36363904761909
698.195,62.06399809523814
700.744,72.80402761904766
703.291,87.38938952380956
705.836,50.81644761904764
708.38,38.17711428571432
710.921,33.61057142857145
713.461,30.685009523809562
715.999,48.54004285714291
718.535,63.45834761904764
721.069,85.6274590476191
723.602,87.33025857142859
726.133,64.51639571428574
728.662,29.46905619047619
731.189,11.138112857142861
733.714,-1.954891428571388
736.238,36.330690952381
738.759,78.65943952380958
741.279,98.6008590476191
743.798,89.8197904761905
746.314,71.2668666666667
748.829,57.13097142857147
751.342,47.55346666666672
753.853,77.10444761904768
756.362,87.21123809523814
758.869,105.3486952380953
761.375,99.37302380952386
763.879,79.71184761904765
766.381,46.840490476190496
768.882,37.28205047619049
771.38,19.083412380952403
773.877,23.481929523809537
776.372,27.00104476190478
778.866,27.354639047619067
781.357,31.066174285714325
783.847,54.80207904761909
786.335,71.181180952381
788.821,73.63199523809527
791.306,66.01162857142859
793.789,33.98678095238097
796.27,30.65289047619052
798.749,47.24803333333339
801.227,89.05835238095247
803.702,140.13179047619056
806.176,169.13540952380959
808.649,165.97414285714297
811.119,161.64871428571433
813.588,141.15933333333342
816.055,125.64985714285723
818.521,123.26342857142866
820.984,112.66761904761913
823.446,115.29143809523816
825.906,106.89785238095243
828.365,97.20181428571435
830.821,103.72810000000007
833.276,99.381980952381
835.729,90.2599476190477
838.181,120.36266666666674
840.631,137.31007619047628
843.079,130.4366095238096
845.525,122.36228095238098
847.97,81.27857142857145
850.412,73.47236476190483
852.854,65.80171714285719
855.293,77.55312476190481
857.731,87.77537333333338
860.167,85.80305809523814
862.601,71.68483047619051
865.034,68.85033761904762
867.465,31.110160000000025
869.894,30.703274761904797
872.321,33.58307428571432
874.747,47.893887142857196
877.171,69.44596571428576
879.594,91.00253333333339
882.014,89.13589523809529
884.433,94.32331904761907
886.851,61.32777619047623
889.266,72.48390952380959
891.68,91.22103333333341
894.092,122.39781428571436
896.503,151.8245857142858
898.912,160.2168952380953
901.319,153.0042380952382
903.724,179.94957142857152
906.128,177.24438095238105
908.53,159.69947619047628
910.931,159.60161904761912
913.329,132.23776190476198
915.726,120.84680952380961
918.122,129.85861904761913
920.516,111.51226190476196
922.908,87.33259523809528
925.298,82.70164285714293
927.687,101.00145238095247
930.074,128.13759523809534
932.459,154.73040476190485
934.843,155.685761904762
937.225,164.52839047619057
939.605,141.5452476190477
941.984,144.7849238095239
944.361,138.58176190476198
946.736,98.98436190476195
949.11,79.89874285714293
951.482,91.70661904761911
953.853,110.93294285714296
956.222,127.72145714285722
958.589,135.1683333333334
960.954,115.79855238095246
963.318,127.1368857142858
965.68,119.18439047619056
968.041,146.65654285714294
970.4,125.22076666666673
972.757,118.68748571428577
975.113,105.8195952380953
977.467,77.99878571428573
979.819,51.60709047619052
982.17,53.21703333333336
984.519,48.59129047619054
986.866,76.77859523809529
989.212,112.39875714285722
991.556,125.73851428571439
993.899,141.84611904761914
996.24,145.3891333333334
998.579,143.08267619047626
1000.92,100.45115238095242
1003.25,98.25742857142865
1005.59,87.54975714285719
1007.92,84.8046476190477
1010.25,107.07062380952388
1012.58,115.39570952380956
1014.91,98.30410000000008
1017.24,107.74862380952386
1019.56,105.11066666666673
1021.88,112.29492857142866
1024.2,141.20657142857152
1026.52,162.46485714285726
1028.84,214.49847619047634
1031.16,247.6884761904763
1033.48,265.70180952380963
1035.79,252.25233333333347
1038.1,242.00642857142873
1040.41,246.10723809523827
1042.72,258.1258571428572
1045.03,233.39580952380962
1047.33,223.10700000000014
1049.64,219.40209523809534
1051.94,214.99490476190493
1054.24,214.83776190476203
1056.54,219.59661904761919
1058.84,201.89057142857158
1061.13,202.9089523809525
1063.43,211.27066666666678
1065.72,198.9275238095239
1068.01,196.97433333333345
1070.3,214.12471428571442
1072.59,216.90204761904772
1074.87,217.829142857143
1077.16,206.81028571428584
1079.44,226.46376190476207
1081.72,271.1220952380954
1084.0,312.3560000000002
1086.28,370.6409523809526
1088.56,440.1664285714289
1090.84,509.5984761904766
1093.11,605.8887142857146
1095.38,630.3693809523813
1097.65,575.4207619047621
1099.92,525.8516190476194
1102.19,458.5176190476193
1104.46,415.180285714286
1106.72,395.74309523809546
1108.98,375.3004761904765
1111.24,376.04204761904793
1113.5,413.5382380952384
1115.76,453.1213333333336
1118.02,482.5048571428574
1120.28,492.6873809523812
1122.53,470.47780952380975
1124.78,439.30342857142875
1127.03,388.30619047619064
1129.28,339.48495238095256
1131.53,309.21990476190496
1133.77,252.74780952380965
1136.02,217.8299523809525
1138.26,190.79857142857156
1140.5,193.46195238095254
1142.74,207.7716190476192
1144.98,252.82180952380963
1147.22,231.75423809523824
1149.45,254.1871904761906
1151.69,240.78642857142873
1153.92,238.36000000000018
1156.15,223.81233333333344
1158.38,214.09438095238104
1160.61,186.15780952380965
1162.83,176.0015333333334
1165.06,137.33905714285723
1167.28,134.40731428571436
1169.5,116.25344761904768
1171.72,97.87650952380959
1173.94,99.70418095238101
1176.16,110.68802380952387
1178.37,86.63672857142862
1180.58,96.93041428571433
1182.8,102.94948095238101
1185.01,100.35968095238103
1187.22,82.87454285714288
1189.42,80.68393333333336
1191.63,71.45381428571433
1193.84,62.421709523809575
1196.04,84.53955238095244
1198.24,78.23520476190478
1200.44,63.22244761904766
1202.64,49.07229047619052
1204.84,68.30811904761909
1207.03,37.73918095238097
1209.23,36.222366666666694
1211.42,38.04330952380957
1213.61,66.10669047619052
1215.8,85.7935590476191
1217.99,95.72313761904763
1220.18,50.84814190476192
1222.36,22.168881428571453
1224.55,38.49552666666671
1226.73,38.97127952380955
1228.91,64.4537952380953
1231.09,91.99154380952388
1233.27,97.15663619047625
1235.44,87.14028476190484
1237.62,100.99135619047624
1239.79,90.99598095238102
1241.96,98.63148571428579
1244.13,110.85128571428578
1246.3,124.84710476190483
1248.47,126.85798095238104
1250.64,145.2187047619049
1252.8,172.97803809523822
1254.96,192.47061904761918
1257.13,226.65000000000015
1259.29,249.1368095238097
1261.44,251.40866666666682
1263.6,252.94314285714302
1265.76,242.69433333333347
1267.91,239.9968095238097
1270.06,248.0902380952382
1272.22,221.26209523809533
1274.37,192.6572000000001
1276.51,156.70543809523818
1278.66,129.78954285714295
1280.81,138.19690476190485
1282.95,133.97676666666675
1285.09,125.60721904761914
1287.23,130.18530952380956
1289.37,120.71273333333342
1291.51,125.19160476190486
1293.65,136.81429523809533
1295.78,151.05857142857153
1297.92,156.7360000000001
1300.05,147.2290476190477
1302.18,164.39695238095248
1304.31,165.28914285714293
1306.44,173.669761904762
1308.57,194.5878095238096
1310.69,188.09323809523823
1312.82,179.52104761904775
1314.94,205.1590000000001
1317.06,212.38952380952398
1319.18,226.2627142857144
1321.3,239.92276190476207
1323.41,241.94328571428588
1325.53,280.516523809524
1327.64,309.8344761904764
1329.75,323.04190476190496
1331.87,321.997904761905
1333.98,314.4661428571431
1336.08,320.40095238095256
1338.19,322.51800000000014
1340.3,322.9616666666668
1342.4,298.1623809523811
1344.5,258.21700000000016
1346.6,229.032142857143
1348.7,203.22838095238106
1350.8,197.9497142857144
1352.9,211.1024761904763
1354.99,184.54542857142866
1357.09,166.85128571428584
1359.18,174.68814285714296
1361.27,157.0096666666668
1363.36,195.1029523809525
1365.45,211.3024285714287
1367.54,182.3239523809525
1369.62,204.0728571428573
1371.7,219.59804761904775
1373.79,232.0909523809525
1375.87,281.124142857143
1377.95,303.7457142857144
1380.03,297.2426666666668
1382.1,298.6630000000001
1384.18,268.4364285714287
1386.25,231.9441904761906
1388.33,213.61561904761913
1390.4,184.8795238095239
1392.47,170.64123809523818
1394.54,142.71059523809532
1396.6,119.65957142857151
1398.67,116.10696666666674
1400.74,117.67225238095244
1402.8,113.3554333333334
1404.86,130.48955714285722
1406.92,127.02702857142864
1408.98,124.34868095238103
1411.04,127.26327619047626
1413.09,121.00900000000006
1415.15,128.5375714285715
1417.2,135.1815238095239
1419.25,139.08338095238105
1421.3,136.09909523809532
1423.35,129.32314285714295
1425.4,124.84980952380963
1427.45,146.53509523809532
1429.49,139.66357142857152
1431.54,160.61518095238105
1433.58,136.62599047619054
1435.62,114.12331428571436
1437.66,96.53372380952386
1439.7,101.33200952380959
1441.74,96.51625714285724
1443.77,129.60851428571436
1445.81,114.13014761904768
1447.84,89.03131904761909
1449.87,87.4526714285715
1451.9,112.48715714285723
1453.93,128.08457619047627
1455.96,138.38546190476197
1457.98,145.91097142857151
1460.01,143.42038095238104
1462.03,152.29219047619057
1464.05,189.57128571428586
1466.07,219.87428571428586
1468.09,239.531523809524
1470.11,279.73080952380974
1472.13,300.4697142857145
1474.14,296.507142857143
1476.16,285.7451904761906
1478.17,288.372142857143
1480.18,276.0994285714287
1482.19,249.11490476190488
1484.2,212.55940952380962
1486.21,164.1442095238096
1488.21,106.62885714285721
1490.22,116.91608571428579
1492.22,106.62275238095243
1494.22,87.93707619047625
1496.22,80.66679523809526
1498.22,39.52410952380952
1500.22,-3.826042857142836
1502.22,20.233766666666696
1504.21,35.41631428571432
1506.21,52.48210476190481
1508.2,87.00150000000005
1510.19,87.78270952380956
1512.18,75.49143333333338
1514.17,69.6028904761905
1516.16,58.68787619047622
1518.14,42.17431428571433
1520.13,60.06168571428577
1522.11,81.44468095238102
1524.09,92.60870476190482
1526.07,81.50583333333337
1528.05,81.32648571428575
1530.03,76.92751428571434
1532.01,65.16585238095242
1533.98,48.898728571428606
1535.96,57.69756666666672
1537.93,64.08629047619054
1539.9,83.63658095238101
1541.87,79.49130952380956
1543.84,76.6029666666667
1545.81,65.11495714285721
1547.78,99.69384285714293
1549.74,123.34008095238102
1551.7,136.24458095238103
1553.67,121.26461904761912
1555.63,133.06738095238103
1557.59,129.6535238095239
1559.55,139.54685714285722
1561.5,122.70052380952387
1563.46,129.0198095238096
1565.41,135.88609523809535
1567.37,146.72866666666675
1569.32,149.02414285714295
1571.27,162.53502857142865
1573.22,141.6906476190477
1575.17,138.2057714285715
1577.11,132.65268571428578
1579.06,114.84139047619055
1581.0,106.39183809523817
1582.95,130.54279047619053
1584.89,132.10447619047628
1586.83,133.6968095238096
1588.77,129.08223809523815
1590.7,116.69014285714293
1592.64,127.18801904761914
1594.58,149.67178095238074
1596.51,149.26143809523765
1598.44,101.95787380952297
