Raman Shift,Processed Intensity
331.095,107.82945714285702
333.909,-8.993014761904746
336.721,-43.05255833333311
339.531,-27.223251904761884
342.339,-0.8317719047619091
345.145,2.271699047619049
347.949,-1.095576190476189
350.751,13.074802380952395
353.55,20.077687619047634
356.348,13.208661428571428
359.144,1.6212319047619124
361.937,18.707708571428604
364.729,25.38527142857148
367.518,58.714819047619116
370.306,101.37694285714295
373.091,166.38693333333347
375.874,239.28461904761923
378.656,310.7536571428573
381.435,291.7644428571429
384.212,216.85996190476195
386.988,121.96504285714289
389.761,56.38700476190479
392.532,-7.613514285714286
395.301,-11.869928571428566
398.068,-9.547914285714288
400.833,-15.954590476190475
403.596,-2.6815295238095267
406.358,3.585715714285697
409.117,-18.40853904761904
411.874,-4.823559999999996
414.629,-3.436357142857155
417.382,-3.4989685714285574
420.133,-3.1193895238095126
422.882,20.50038904761909
425.629,61.302053333333404
428.374,125.13351428571438
431.117,173.3672904761906
433.858,220.99586666666679
436.597,224.72723809523822
439.334,187.93685714285726
442.069,159.61961904761912
444.802,131.72442857142863
447.533,123.77195238095247
450.262,139.04528571428582
452.989,191.87647619047632
455.714,196.45490476190488
458.438,202.4944380952382
461.159,154.18630476190478
463.878,92.67426666666671
466.595,56.912000000000056
469.31,56.520680952380985
472.024,46.78830952380957
474.735,69.95598571428579
477.444,108.12263333333343
480.152,122.00608095238104
482.857,147.991461904762
485.561,125.94047619047623
488.262,104.85807619047625
490.962,95.32075238095246
493.659,130.09605714285723
496.355,122.85613809523815
499.048,131.79722857142863
501.74,103.92556190476195
504.43,68.2474761904762
507.118,43.054871428571474
509.804,41.54505714285719
512.488,81.67663809523822
515.17,158.98029523809535
517.85,200.65312857142868
520.528,186.51152380952388
523.204,171.75290476190486
525.878,141.431761904762
528.551,123.79258571428578
531.221,105.60438571428577
533.89,81.11161904761909
536.556,59.940138095238154
539.221,60.85854761904767
541.883,79.25396666666673
544.544,92.18056190476197
547.203,108.59697142857152
549.86,137.41390952380962
552.515,148.3992380952382
555.168,139.08238095238102
557.819,138.94509523809532
560.469,155.135761904762
563.116,155.37409523809535
565.761,170.14114285714294
568.405,167.53685714285723
571.047,167.8512857142858
573.687,159.46971428571436
576.324,160.49143809523815
578.96,136.73017619047624
581.594,114.85609047619053
584.227,99.63449047619055
586.857,109.06808095238101
589.485,109.44546190476197
592.112,113.48354761904768
594.737,104.089480952381
597.359,90.16987619047626
599.98,107.77419619047626
602.599,97.66570809523814
605.216,100.94106857142864
607.831,103.4108490476191
610.445,97.64697809523815
613.056,101.17361285714293
615.666,112.75276285714288
618.274,82.24154285714292
620.88,86.9254476190477
623.484,120.2801714285715
626.086,141.63806666666676
628.686,163.85516190476199
631.284,165.31095238095241
633.881,153.05152380952387
636.476,145.50409523809532
639.068,174.04733333333343
641.659,175.0127142857144
644.249,176.30240952380962
646.836,157.00890000000004
649.421,128.46279047619052
652.005,98.66137619047625
654.587,85.79176666666669
657.166,55.470152380952406
659.745,39.59788571428574
662.321,19.457185714285735
664.895,37.09216666666671
667.468,42.16590000000002
670.038,40.912795238095256
672.607,32.376723809523824
675.174,42.36341428571432
677.739,26.107223809523838
680.303,44.509100000000025
682.864,35.89858571428572
685.424,34.176680952380984
687.982,24.720538095238126
690.538,56.764638095238126
693.092,55.4480105714286
695.645,55.624107476190495
698.195,34.52738447619048
700.744,25.725696809523814
703.291,2.453562571428586
705.836,9.707605095238105
708.38,9.341367714285713
710.921,9.589544285714288
713.461,-3.8845476190476163
715.999,1.9158138095238204
718.535,13.320685714285732
721.069,24.279274285714315
723.602,52.69324190476195
726.133,62.65478476190478
728.662,54.922826666666694
731.189,55.3516485714286
733.714,52.27169809523812
736.238,50.72780857142862
738.759,61.95536095238098
741.279,67.9993333333334
743.798,65.14285238095242
746.314,70.66910952380955
748.829,55.95660000000002
751.342,46.76485238095242
753.853,61.13895714285721
756.362,86.21972380952384
758.869,81.86209047619052
761.375,72.3019666666667
763.879,69.01370476190482
766.381,65.04270476190483
768.882,85.9106571428572
771.38,92.28256190476193
773.877,73.06137142857146
776.372,62.48331428571435
778.866,77.59473809523814
781.357,88.20338095238101
783.847,80.4030047619048
786.335,70.62076666666671
788.821,55.90289523809528
791.306,70.48613809523815
793.789,78.2264952380953
796.27,90.69410952380957
798.749,110.84026666666674
801.227,114.66412380952389
803.702,129.97436666666678
806.176,172.34179047619057
808.649,185.38416190476204
811.119,202.3391047619049
813.588,221.0630095238096
816.055,179.98409523809534
818.521,162.81626666666676
820.984,145.84471904761912
823.446,127.40228571428578
825.906,125.20328095238102
828.365,99.34271428571434
830.821,108.77296666666676
833.276,139.25606857142864
835.729,120.41102571428577
838.181,94.85722285714289
840.631,69.97576952380955
843.079,21.386094285714332
845.525,55.18375428571436
847.97,96.08368761904767
850.412,95.08644761904766
852.854,86.00223809523814
855.293,95.736680952381
857.731,67.81427619047624
860.167,79.85513809523815
862.601,75.90767142857146
865.034,62.11577142857146
867.465,48.480571428571466
869.894,62.33670952380955
872.321,52.63775714285719
874.747,78.76602380952386
877.171,83.5799952380953
879.594,90.50971428571434
882.014,97.8901333333334
884.433,101.38936190476196
886.851,88.24708095238101
889.266,102.51246666666674
891.68,116.66371904761914
894.092,125.7022714285715
896.503,139.3445952380953
898.912,139.30662857142863
901.319,125.30471428571437
903.724,120.19776190476199
906.128,124.2738095238096
908.53,127.58204761904769
910.931,120.41069523809531
913.329,107.7142190476191
915.726,104.06629523809531
918.122,105.32612380952389
920.516,108.78180476190484
922.908,125.00700000000006
925.298,126.57531904761912
927.687,117.87009047619054
930.074,105.13176190476196
932.459,101.93425238095244
934.843,102.85146190476198
937.225,114.4097190476191
939.605,118.08740476190479
941.984,101.22045238095241
944.361,64.95417619047623
946.736,52.71980476190481
949.11,63.56766190476196
951.482,93.4523952380953
953.853,106.32890952380957
956.222,124.39048571428577
958.589,108.30616666666671
960.954,106.7928952380953
963.318,108.37723333333341
965.68,120.20448571428578
968.041,95.13443333333338
970.4,88.83656666666668
972.757,67.50374761904766
975.113,53.519514285714315
977.467,49.98183809523812
979.819,28.22661904761904
982.17,-1.5054380952380857
984.519,3.2644380952381162
986.866,20.443580952380977
989.212,32.034571428571454
991.556,49.89714761904763
993.899,49.79571904761908
996.24,59.161342857142905
998.579,66.9488047619048
1000.92,76.63661428571433
1003.25,68.1317523809524
1005.59,47.48395238095241
1007.92,41.50465714285718
1010.25,52.814766666666706
1012.58,52.65400952380957
1014.91,79.11907142857147
1017.24,90.59223333333338
1019.56,96.50304761904769
1021.88,99.75735714285722
1024.2,104.45119047619053
1026.52,114.10885714285723
1028.84,134.3501714285715
1031.16,153.41331904761915
1033.48,158.82234285714296
1035.79,159.29152380952388
1038.1,170.77309523809535
1040.41,174.07642857142866
1042.72,192.01052380952393
1045.03,219.62250476190488
1047.33,199.53089047619056
1049.64,152.82999047619055
1051.94,140.5666238095239
1054.24,112.40655238095246
1056.54,126.49110952380963
1058.84,162.9624857142858
1061.13,185.58093333333343
1063.43,162.63090476190484
1065.72,159.49166666666676
1068.01,162.59009523809533
1070.3,162.87685714285723
1072.59,165.06466666666677
1074.87,170.24671428571438
1077.16,163.80228571428583
1079.44,166.53866666666678
1081.72,193.6916666666668
1084.0,216.49704761904778
1086.28,270.0953809523811
1088.56,366.91338095238126
1090.84,468.28185714285746
1093.11,550.3411904761908
1095.38,564.3746190476194
1097.65,520.0462857142861
1099.92,448.0203333333336
1102.19,382.627523809524
1104.46,324.91257142857165
1106.72,320.4919523809526
1108.98,337.4581904761907
1111.24,376.04676190476215
1113.5,397.1120952380955
1115.76,421.889285714286
1118.02,441.5660952380955
1120.28,476.092285714286
1122.53,484.8457619047621
1124.78,439.29990476190494
1127.03,349.5471904761906
1129.28,276.01328571428587
1131.53,239.12404761904776
1133.77,229.5434285714287
1136.02,234.45890476190488
1138.26,218.34414285714297
1140.5,202.24409523809535
1142.74,191.7747142857144
1144.98,202.79061904761917
1147.22,209.6224761904763
1149.45,230.22009523809535
1151.69,236.81914285714296
1153.92,213.51209523809533
1156.15,183.96318095238104
1158.38,135.36025238095243
1160.61,93.98688571428578
1162.83,113.26912857142867
1165.06,152.82387619047628
1167.28,160.83922857142866
1169.5,150.26575714285718
1171.72,99.7202047619048
1173.94,53.86738095238101
1176.16,50.70506190476196
1178.37,83.04135238095246
1180.58,113.54090476190483
1182.8,124.20208190476197
1185.01,94.54712952380956
1187.22,66.05077333333335
1189.42,43.18787047619051
1191.63,41.671571428571454
1193.84,27.786291904761914
1196.04,40.48327333333335
1198.24,36.428418571428594
1200.44,43.85901523809527
1202.64,44.1077861904762
1204.84,31.745579047619053
1207.03,24.200619047619078
1209.23,31.66299523809525
1211.42,21.98998095238096
1213.61,22.991180952380958
1215.8,25.619321904761925
1217.99,13.589114761904783
1220.18,35.71069619047622
1222.36,62.03270904761908
1224.55,53.984500952380984
1226.73,60.519567142857184
1228.91,71.06775523809526
1231.09,71.82110476190482
1233.27,71.11435238095244
1235.44,88.66380000000005
1237.62,94.47101904761911
1239.79,100.49022857142863
1241.96,101.05680476190483
1244.13,101.31590476190479
1246.3,79.17439523809529
1248.47,95.8730857142858
1250.64,127.22373809523819
1252.8,147.51447619047627
1254.96,164.84346666666676
1257.13,165.4512380952382
1259.29,169.81676190476202
1261.44,197.61000000000016
1263.6,226.11952380952394
1265.76,224.06242857142868
1267.91,216.25185714285726
1270.06,180.35709523809535
1272.22,152.66709523809533
1274.37,135.99495238095244
1276.51,133.43919047619056
1278.66,145.0030476190477
1280.81,162.97590476190484
1282.95,154.07533333333342
1285.09,143.16195238095247
1287.23,140.23935238095245
1289.37,108.26332857142864
1291.51,134.04710476190485
1293.65,144.07042857142864
1295.78,132.33698095238103
1297.92,117.13619047619055
1300.05,124.3287333333334
1302.18,96.5371476190477
1304.31,107.05099047619052
1306.44,108.82594285714292
1308.57,109.8656857142858
1310.69,125.79329523809533
1312.82,140.27872380952385
1314.94,143.89695238095248
1317.06,143.8420476190477
1319.18,159.40309523809537
1321.3,176.250142857143
1323.41,213.244142857143
1325.53,231.48342857142873
1327.64,245.1618571428573
1329.75,233.9493809523811
1331.87,251.08752380952396
1333.98,234.43638095238109
1336.08,239.33252380952396
1338.19,248.54076190476204
1340.3,224.1594285714287
1342.4,183.81033333333346
1344.5,176.4012857142858
1346.6,143.26819047619057
1348.7,130.7471714285715
1350.8,118.88840952380957
1352.9,102.74186666666674
1354.99,112.40530476190484
1357.09,130.4047714285715
1359.18,146.98055238095247
1361.27,151.22992380952388
1363.36,123.05958571428579
1365.45,115.66155238095246
1367.54,123.2759857142858
1369.62,131.4281238095239
1371.7,160.4530142857144
1373.79,189.68508571428583
1375.87,200.88752380952394
1377.95,208.63238095238108
1380.03,236.9206190476192
1382.1,232.753142857143
1384.18,205.41647619047632
1386.25,188.86314285714292
1388.33,156.76019047619056
1390.4,126.4886095238096
1392.47,130.33399047619054
1394.54,112.29613333333337
1396.6,78.75567619047624
1398.67,70.4259428571429
1400.74,50.73482380952384
1402.8,44.0624428571429
1404.86,53.931319047619084
1406.92,67.38763809523813
1408.98,59.715557142857165
1411.04,60.627542857142885
1413.09,54.312119047619085
1415.15,48.38615714285718
1417.2,58.75209047619052
1419.25,66.45501428571431
1421.3,43.01613809523813
1423.35,55.289719047619094
1425.4,61.36818095238099
1427.45,62.200857142857195
1429.49,67.64180476190481
1431.54,90.78310000000005
1433.58,61.19291904761907
1435.62,61.725009523809554
1437.66,56.99519523809527
1439.7,54.57151428571433
1441.74,56.355380952381
1443.77,66.72441904761907
1445.81,40.43713333333336
1447.84,38.6330428571429
1449.87,37.92789047619051
1451.9,62.60386666666671
1453.93,66.22924761904764
1455.96,51.4198047619048
1457.98,58.41023809523816
1460.01,82.34023333333339
1462.03,96.39701428571439
1464.05,155.00579523809535
1466.07,184.92550476190488
1468.09,203.057761904762
1470.11,206.2089523809525
1472.13,211.61423809523822
1474.14,203.03242857142874
1476.16,200.88933333333347
1478.17,210.08676190476206
1480.18,215.14571428571438
1482.19,194.63476190476197
1484.2,170.31314285714294
1486.21,146.22566666666674
1488.21,90.03683333333339
1490.22,82.7915714285715
1492.22,88.91643333333339
1494.22,101.7898190476191
1496.22,87.93339523809527
1498.22,83.10681333333336
1500.22,34.117730000000016
1502.22,19.7735885714286
1504.21,31.97764619047622
1506.21,32.01371714285715
1508.2,32.45171571428573
1510.19,35.19489428571429
1512.18,13.38476666666668
1514.17,16.11529047619051
1516.16,44.33770000000003
1518.14,53.289085714285754
1520.13,62.73039047619051
1522.11,65.0893723809524
1524.09,41.079553333333344
1526.07,32.03355428571431
1528.05,22.950846666666685
1530.03,37.02122095238099
1532.01,62.76816095238101
1533.98,69.76271571428575
1535.96,78.81403619047623
1537.93,66.06467285714287
1539.9,37.657252380952414
1541.87,37.162808095238134
1543.84,61.81944000000004
1545.81,68.24599238095244
1547.78,97.39464476190481
1549.74,101.74158571428578
1551.7,114.62013333333341
1553.67,125.74454761904771
1555.63,136.9243333333334
1557.59,139.92123809523818
1559.55,143.68766666666676
1561.5,138.65261904761914
1563.46,156.57815238095247
1565.41,147.08329523809533
1567.37,138.12035238095245
1569.32,131.54675238095246
1571.27,128.3152571428572
1573.22,132.71177142857152
1575.17,148.49843809523819
1577.11,132.6280000000001
1579.06,141.0529523809525
1581.0,148.44042857142864
1582.95,140.50509523809532
1584.89,130.10414285714293
1586.83,129.2382857142858
1588.77,123.76514285714298
1590.7,152.0660476190477
1592.64,162.474761904762
1594.58,158.94407142857162
1596.51,157.7364285714288
1598.44,168.35233333333366
