Raman Shift,Processed Intensity
331.095,21.432080952380975
333.909,-1.1696840476190964
336.721,-17.36731190476196
339.531,-27.536630952380968
342.339,-38.19666000000001
345.145,-23.84214571428571
347.949,-4.418979999999989
350.751,18.50892000000002
353.55,36.473833333333324
356.348,17.294780952380947
359.144,-4.589066666666656
361.937,8.500571428571462
364.729,28.433590476190524
367.518,62.319176190476256
370.306,120.17224285714295
373.091,173.8182380952382
375.874,254.13188095238115
378.656,283.94094285714294
381.435,250.1220000000001
384.212,163.36247333333338
386.988,77.54124476190479
389.761,24.538384761904798
392.532,9.33080285714286
395.301,1.2771238095238227
398.068,4.7848647619047595
400.833,-3.3561723809523825
403.596,0.6450371428571531
406.358,5.676006666666648
409.117,-17.89832857142858
411.874,-24.09272857142858
414.629,-6.349315238095226
417.382,-2.013776666666652
420.133,22.045585714285743
422.882,48.00931952380958
425.629,79.39225809523816
428.374,119.94827952380963
431.117,188.14686761904773
433.858,216.55360952380966
436.597,228.92557142857154
439.334,215.8300952380953
442.069,191.45428571428585
444.802,160.22409523809534
447.533,156.61419047619057
450.262,161.81442857142866
452.989,182.15819047619058
455.714,184.6930761904763
458.438,151.22986190476198
461.159,137.34151428571437
463.878,109.88745238095242
466.595,101.29949523809532
469.31,101.00940952380957
472.024,89.73494761904767
474.735,67.00434761904769
477.444,86.82207142857148
480.152,94.19341428571438
482.857,122.55248095238103
485.561,131.00012380952387
488.262,142.6375238095239
490.962,144.89971428571434
493.659,135.60261428571437
496.355,118.61035238095246
499.048,116.59663333333339
501.74,101.2351714285715
504.43,109.9621095238096
507.118,123.87997142857152
509.804,139.044161904762
512.488,158.98609523809537
515.17,193.28480952380966
517.85,213.6625523809525
520.528,193.9845000000001
523.204,150.68670952380958
525.878,79.11071428571431
528.551,45.02599523809529
531.221,61.58322952380959
533.89,76.02834619047623
536.556,79.08312571428574
539.221,63.374249047619045
541.883,31.956792380952418
544.544,52.4094795238096
547.203,92.8350771428572
549.86,109.04994761904769
552.515,126.58497142857149
555.168,132.92315238095247
557.819,135.73768095238106
560.469,148.41570476190483
563.116,138.77300000000008
565.761,125.67242857142864
568.405,127.8817142857144
571.047,134.3113333333334
573.687,142.96661904761913
576.324,145.80461904761913
578.96,152.925561904762
581.594,128.7621333333334
584.227,104.03267142857149
586.857,101.21743809523817
589.485,118.41495714285725
592.112,133.4380095238096
594.737,146.6230571428572
597.359,132.639180952381
599.98,109.44129047619055
602.599,117.79304761904771
605.216,114.1246714285715
607.831,117.4376095238096
610.445,113.44737142857151
613.056,118.01154285714294
615.666,119.70215238095246
618.274,144.90010476190486
620.88,142.0338095238096
623.484,125.43590476190485
626.086,143.72480952380963
628.686,192.280142857143
631.284,195.29100000000014
633.881,222.0415238095239
636.476,228.19600000000008
639.068,177.94266666666678
641.659,170.04069523809534
644.249,149.43960476190477
646.836,99.80296190476196
649.421,65.88938095238098
652.005,62.742866666666714
654.587,67.21679047619054
657.166,86.44995714285719
659.745,76.53323619047623
662.321,64.89080114285716
664.895,28.137133285714295
667.468,10.077068952380962
670.038,2.419917666666677
672.607,9.874998476190502
675.174,32.29434471428574
677.739,41.19653400000002
680.303,65.29058666666671
682.864,59.523510476190495
685.424,49.17561142857146
687.982,43.384341904761925
690.538,39.19191619047621
693.092,32.25956761904766
695.645,66.05812476190479
698.195,44.10602380952383
700.744,40.63604285714289
703.291,40.21444285714288
705.836,42.16940000000003
708.38,35.59114761904764
710.921,42.09379428571429
713.461,5.672515714285716
715.999,10.370217142857172
718.535,19.7537604761905
721.069,43.00918380952385
723.602,63.6557966666667
726.133,92.927640952381
728.662,74.82055142857148
731.189,83.47349809523814
733.714,68.64436761904766
736.238,70.99610761904768
738.759,62.71535142857146
741.279,76.32258285714289
743.798,42.67151952380955
746.314,47.901662857142895
748.829,55.819461428571465
751.342,50.23149142857144
753.853,39.94438142857146
756.362,60.479112380952415
758.869,53.071276190476254
761.375,71.38485238095245
763.879,104.27477619047625
766.381,106.31033333333342
768.882,126.87052380952392
771.38,140.81055714285722
773.877,131.6049571428572
776.372,95.15677142857147
778.866,74.27396666666671
781.357,71.05040000000005
783.847,76.81827142857148
786.335,86.24318571428579
788.821,102.27672380952386
791.306,106.77489523809531
793.789,106.02279047619055
796.27,115.59127619047626
798.749,119.4798000000001
801.227,146.40230476190487
803.702,177.5492000000001
806.176,197.9201523809525
808.649,191.6580952380953
811.119,162.71580952380958
813.588,134.52185714285721
816.055,130.45719047619056
818.521,146.7128095238096
820.984,154.76571428571438
823.446,141.28297619047623
825.906,114.8846190476191
828.365,107.28569047619055
830.821,109.0580476190477
833.276,131.25079523809532
835.729,141.24601428571435
838.181,116.0923571428572
840.631,102.64811904761912
843.079,123.62935714285723
845.525,108.13240952380959
847.97,112.49250952380957
850.412,107.56815238095241
852.854,76.98015238095243
855.293,66.44440000000004
857.731,76.10593809523812
860.167,52.91888666666671
862.601,42.21864619047621
865.034,31.34059714285715
867.465,18.096420476190495
869.894,26.72643523809527
872.321,35.47099380952383
874.747,46.999124761904795
877.171,60.83700952380957
879.594,69.70143333333337
882.014,74.35675238095244
884.433,89.80569047619053
886.851,101.62219523809532
889.266,107.04692380952389
891.68,127.08258571428578
894.092,129.16031428571438
896.503,138.33057142857152
898.912,161.40591428571437
901.319,150.00796190476197
903.724,157.56801904761915
906.128,159.61307619047628
908.53,132.24091428571435
910.931,143.12117142857153
913.329,136.3521285714286
915.726,105.93634285714295
918.122,117.78173809523818
920.516,129.2722190476191
922.908,125.93431142857152
925.298,120.77087714285717
927.687,67.16581000000002
930.074,48.597943809523855
932.459,35.7370928571429
934.843,53.77632857142863
937.225,72.05185095238099
939.605,76.70926095238099
941.984,68.56083809523815
944.361,59.180642857142885
946.736,65.42847142857148
949.11,79.16409523809529
951.482,88.15200000000006
953.853,82.01376190476194
956.222,77.18040952380954
958.589,47.368623809523854
960.954,65.10466666666672
963.318,75.62880000000006
965.68,90.89563809523814
968.041,77.90736190476194
970.4,79.99933333333337
972.757,67.64982095238099
975.113,57.05135809523811
977.467,32.77706952380953
979.819,14.733534285714294
982.17,-0.07755238095236461
984.519,14.48823809523812
986.866,36.81335809523813
989.212,54.85157523809527
991.556,65.93751428571431
993.899,59.977157142857166
996.24,61.44779047619052
998.579,80.87432857142863
1000.92,90.78129523809528
1003.25,75.50278571428574
1005.59,38.37278095238095
1007.92,17.677638095238127
1010.25,18.27490952380957
1012.58,54.784080952381004
1014.91,73.25287619047621
1017.24,60.68136190476193
1019.56,54.83159523809529
1021.88,83.22734285714293
1024.2,121.67789523809533
1026.52,156.84935714285723
1028.84,153.2653238095239
1031.16,152.02047619047627
1033.48,155.87638095238106
1035.79,153.68961904761917
1038.1,180.07857142857154
1040.41,190.13752380952394
1042.72,194.29395238095253
1045.03,209.16590476190487
1047.33,200.8002857142858
1049.64,179.52904761904773
1051.94,176.017761904762
1054.24,160.69395238095248
1056.54,153.079761904762
1058.84,144.2215714285715
1061.13,137.21376190476198
1063.43,119.2920952380953
1065.72,140.64595238095248
1068.01,145.22600000000006
1070.3,130.5542857142858
1072.59,150.86723809523818
1074.87,154.06819047619055
1077.16,146.8691904761906
1079.44,179.3639523809525
1081.72,202.93157142857157
1084.0,231.61738095238115
1086.28,308.3246190476193
1088.56,376.6225714285717
1090.84,485.65209523809557
1093.11,554.5066666666671
1095.38,567.1367142857146
1097.65,524.9205238095241
1099.92,462.523285714286
1102.19,400.4186666666669
1104.46,373.03314285714305
1106.72,351.4126666666669
1108.98,338.88823809523836
1111.24,353.26690476190504
1113.5,394.7850952380955
1115.76,439.29747619047646
1118.02,460.9921904761907
1120.28,463.3914761904765
1122.53,439.25471428571456
1124.78,405.58000000000015
1127.03,357.0317619047621
1129.28,297.0842380952382
1131.53,228.78261904761916
1133.77,183.93480952380963
1136.02,171.3001904761906
1138.26,180.59152380952395
1140.5,191.75885714285727
1142.74,195.75280952380962
1144.98,190.66638095238108
1147.22,207.02161904761914
1149.45,209.10233333333343
1151.69,201.71633333333344
1153.92,177.76666666666674
1156.15,159.44209523809533
1158.38,147.50242857142868
1160.61,157.51767619047627
1162.83,146.91469523809528
1165.06,122.02519047619053
1167.28,97.37155238095242
1169.5,56.38108095238097
1171.72,35.48062380952384
1173.94,35.81194761904766
1176.16,55.42141428571434
1178.37,69.68866190476196
1180.58,96.56486190476195
1182.8,90.76332380952385
1185.01,81.71157142857146
1187.22,53.170552380952415
1189.42,68.13970476190481
1191.63,70.4273428571429
1193.84,82.55651428571431
1196.04,71.81226666666667
1198.24,55.19390476190479
1200.44,34.986590476190514
1202.64,51.04708095238099
1204.84,47.18418095238097
1207.03,49.39750000000002
1209.23,42.829519047619065
1211.42,29.956118761904772
1213.61,15.110414714285717
1215.8,8.530338952380953
1217.99,0.2634581428571625
1220.18,12.214610380952399
1222.36,31.28873376190477
1224.55,20.581340190476194
1226.73,23.42616190476193
1228.91,25.061835714285735
1231.09,39.53658571428575
1233.27,32.6607023809524
1235.44,39.91123333333336
1237.62,32.57484761904765
1239.79,73.22406666666673
1241.96,96.05056190476198
1244.13,124.00817142857149
1246.3,122.14568095238103
1248.47,111.60757619047625
1250.64,94.15750000000007
1252.8,118.55889047619056
1254.96,127.52781904761915
1257.13,161.01890952380967
1259.29,197.9385523809525
1261.44,223.66990476190492
1263.6,236.7389047619049
1265.76,243.90952380952393
1267.91,222.8984761904763
1270.06,204.2796666666668
1272.22,175.96009523809536
1274.37,164.03757142857154
1276.51,173.22880952380967
1278.66,180.9650476190477
1280.81,171.34438095238104
1282.95,154.9883333333334
1285.09,135.7092952380953
1287.23,110.74810476190484
1289.37,119.63125714285721
1291.51,132.36175238095245
1293.65,132.98992380952387
1295.78,136.32835238095245
1297.92,128.0943285714286
1300.05,91.29068571428577
1302.18,82.25382380952387
1304.31,86.12944761904768
1306.44,104.77770000000008
1308.57,137.8684380952382
1310.69,157.54733333333343
1312.82,166.7222380952382
1314.94,158.11057142857152
1317.06,155.47714285714295
1319.18,159.20600000000013
1321.3,181.6808571428573
1323.41,236.0476190476192
1325.53,291.40442857142875
1327.64,327.94452380952407
1329.75,357.29009523809543
1331.87,362.1582857142859
1333.98,349.83747619047637
1336.08,337.23552380952395
1338.19,321.49771428571444
1340.3,320.6264285714288
1342.4,287.7675714285716
1344.5,257.0191047619049
1346.6,200.57389047619057
1348.7,143.95820952380961
1350.8,117.79358571428581
1352.9,123.22511428571437
1354.99,125.30289047619057
1357.09,126.50520000000006
1359.18,138.5482380952382
1361.27,147.38657142857153
1363.36,150.21300000000008
1365.45,149.64814285714294
1367.54,161.78919047619056
1369.62,146.59000000000012
1371.7,189.71904761904773
1373.79,194.7969523809525
1375.87,218.25357142857158
1377.95,226.9471904761906
1380.03,227.40328571428583
1382.1,209.19388571428584
1384.18,178.89179047619052
1386.25,125.5452476190477
1388.33,105.96434761904769
1390.4,98.86404761904768
1392.47,82.43552857142863
1394.54,84.39308571428576
1396.6,46.92754761904765
1398.67,54.991476190476234
1400.74,62.013157142857196
1402.8,84.18287142857149
1404.86,89.92877619047624
1406.92,94.53607619047622
1408.98,66.05165238095242
1411.04,48.23663333333335
1413.09,22.470842857142873
1415.15,26.610447619047665
1417.2,52.74898571428578
1419.25,96.5991952380953
1421.3,112.63576666666671
1423.35,103.28544285714288
1425.4,80.30800952380957
1427.45,83.98740476190484
1429.49,104.17798095238103
1431.54,128.97263809523815
1433.58,105.36905238095244
1435.62,98.84056666666672
1437.66,81.95590000000004
1439.7,87.617180952381
1441.74,86.916480952381
1443.77,73.80327142857145
1445.81,49.70295714285719
1447.84,48.13603809523813
1449.87,63.52804285714292
1451.9,74.16131904761909
1453.93,91.07996666666673
1455.96,98.32834761904766
1457.98,102.3791666666667
1460.01,85.22892380952386
1462.03,115.15997619047627
1464.05,115.31170476190485
1466.07,159.2518142857144
1468.09,191.50067619047633
1470.11,224.0068571428573
1472.13,230.81461904761917
1474.14,259.3015238095239
1476.16,226.2736666666668
1478.17,209.10857142857154
1480.18,189.70743809523822
1482.19,165.35260476190484
1484.2,142.7550857142858
1486.21,135.91173809523815
1488.21,93.58126190476196
1490.22,92.04619523809531
1492.22,88.77963333333335
1494.22,62.01685714285718
1496.22,53.754809523809534
1498.22,42.18136190476192
1500.22,27.531939047619076
1502.22,25.47057000000001
1504.21,24.18542095238097
1506.21,28.388444285714307
1508.2,20.839425714285728
1510.19,26.345865238095257
1512.18,36.143964761904776
1514.17,24.660602571428594
1516.16,20.13231947619049
1518.14,14.938634190476188
1520.13,5.792641952380976
1522.11,17.407538000000024
1524.09,43.02042519047622
1526.07,42.82101304761907
1528.05,36.99912476190478
1530.03,35.12564952380955
1532.01,39.962181904761934
1533.98,44.55608380952384
1535.96,50.3834361904762
1537.93,52.11095238095242
1539.9,50.59594285714289
1541.87,55.50530952380956
1543.84,46.88709523809526
1545.81,41.360800000000026
1547.78,40.02226190476195
1549.74,64.30090000000006
1551.7,88.05450000000008
1553.67,125.3317333333334
1555.63,119.84786190476196
1557.59,107.50851428571436
1559.55,117.74360000000009
1561.5,124.07827619047627
1563.46,138.18042857142865
1565.41,151.00400000000008
1567.37,123.12184285714291
1569.32,95.96368571428577
1571.27,106.7697190476191
1573.22,105.30323809523816
1575.17,121.61363333333341
1577.11,120.84547619047628
1579.06,121.85764761904768
1581.0,115.08044761904769
1582.95,101.03990952380958
1584.89,93.309180952381
1586.83,93.60445714285719
1588.77,94.88014285714294
1590.7,115.75699047619054
1592.64,141.90383809523817
1594.58,148.98932619047616
1596.51,140.34889047619043
1598.44,111.48459761904766
