Raman Shift,Processed Intensity
331.095,28.29205557188243
333.909,-22.204902650107215
336.721,-24.491859184112855
339.531,-3.5688112015564
342.339,-20.650035930987997
345.145,14.216864551415256
347.949,32.69858519802028
350.751,22.8427874849599
353.55,41.69714985973087
356.348,45.54746580784604
359.144,34.06050382424564
361.937,58.093534051380175
364.729,65.69433110777027
367.518,89.67260548799368
370.306,117.12381591505846
373.091,177.5244102642073
375.874,278.4461141057718
378.656,326.2702192480283
381.435,308.5209198990997
384.212,238.00817263837826
386.988,154.49436591175754
389.761,34.88479905067561
392.532,-1.6294577564540305
395.301,-8.19060825473207
398.068,-4.893174913243911
400.833,3.835051355923497
403.596,49.994917767272
406.358,23.6825776265905
409.117,16.327587261390363
411.874,22.69290771324995
414.629,-12.50604595079858
417.382,-35.31568699675108
420.133,-29.687108516431636
422.882,-15.80941248234467
425.629,19.556957105939546
428.374,88.84211575191148
431.117,122.66673345240906
433.858,156.03250792961262
436.597,169.41739976781128
439.334,156.53753421682313
442.069,135.96624585256723
444.802,127.8959803804878
447.533,103.5668631056501
450.262,73.8857435933046
452.989,94.85476413898004
455.714,140.4284996671413
458.438,171.5139547727158
461.159,185.06579885784322
463.878,162.51493460197435
466.595,122.95897119387837
469.31,107.0193642303102
472.024,111.03188894801815
474.735,110.28473250336674
477.444,106.2565862519582
480.152,122.5690237425315
482.857,132.08173585372106
485.561,139.79728974034288
488.262,167.52779254158258
490.962,193.65679318442153
493.659,185.66308894896656
496.355,177.7873891766326
499.048,172.60374088310073
501.74,188.3052400855463
504.43,224.46593360606312
507.118,271.23129230365157
509.804,282.69916049669337
512.488,265.58641967113635
515.17,271.32422361725276
517.85,289.05799547115794
520.528,311.647424756331
523.204,306.99979775846987
525.878,303.92713742415526
528.551,254.9557242118908
531.221,246.32609313363218
533.89,272.70731651059805
536.556,318.2446200624172
539.221,348.46414185341155
541.883,359.79673885793045
544.544,342.8160792399708
547.203,352.52435368041506
549.86,373.7808438471243
552.515,377.8733480078913
555.168,403.32770188146696
557.819,367.19348996479357
560.469,369.6154711459303
563.116,379.4050043169891
565.761,409.4209977965802
568.405,402.2841920856031
571.047,394.47239500398973
573.687,320.0347644464964
576.324,268.020376852784
578.96,219.04965282035255
581.594,210.12387795557788
584.227,213.19662848664984
586.857,247.74519687650763
589.485,254.34201743576978
592.112,245.1784728880507
594.737,213.44584379241587
597.359,166.09721034678887
599.98,124.5617351437395
602.599,121.64942211676043
605.216,100.83682786748295
607.831,96.07658251670682
610.445,103.27357722210172
613.056,97.76115169590048
615.666,115.39632934164274
618.274,111.70267143853152
620.88,92.48932180198562
623.484,83.04148001561134
626.086,72.35849371080349
628.686,55.10623656063035
631.284,69.47424817847741
633.881,44.03287401669513
636.476,56.73326794318973
639.068,69.38358529420657
641.659,70.88708517438226
644.249,66.67070894727249
646.836,85.44699205921052
649.421,84.7378806250731
652.005,59.77950039499092
654.587,22.426925721063526
657.166,-13.131527666412694
659.745,-20.7552479779406
662.321,4.934396287891559
664.895,31.458826166057406
667.468,34.767972107957576
670.038,25.525994384052865
672.607,23.349384438880406
675.174,27.283161484161155
677.739,39.753259568101385
680.303,38.37605750182911
682.864,23.006004023929563
685.424,22.44990963165037
687.982,12.41933365020168
690.538,1.340114159208042
693.092,8.257136014390653
695.645,-11.546615416456007
698.195,-12.83576228547372
700.744,-16.27967004010634
703.291,-7.738155831914355
705.836,15.309944592119336
708.38,20.290589243183604
710.921,-6.608325217477159
713.461,17.61065760379188
715.999,1.0878892011232892
718.535,19.392331816432034
721.069,46.75965503909629
723.602,48.37795145326527
726.133,32.7210713327795
728.662,31.167671621813497
731.189,7.14407443932123
733.714,1.6004589168160237
736.238,-5.08437553527483
738.759,7.2779445149353705
741.279,31.11393931095745
743.798,64.13589580741768
746.314,73.62758280763796
748.829,79.11091848216779
751.342,44.298352173036164
753.853,11.950008102758147
756.362,29.49273384525145
758.869,27.16295832056312
761.375,40.244787884832476
763.879,44.87953099168294
766.381,22.732365710757904
768.882,5.325673912919456
771.38,19.134280217349215
773.877,5.0140242719819526
776.372,24.487475891084387
778.866,50.458221621410075
781.357,81.7822941654972
783.847,89.83960180496751
786.335,76.20059591906261
788.821,85.15008136032088
791.306,64.7348363540682
793.789,64.19218477885624
796.27,82.47380654213816
798.749,76.05526224165669
801.227,89.17408925540394
803.702,101.87742164110546
806.176,105.5934195595164
808.649,90.84555584056943
811.119,81.58595016857976
813.588,56.19536993411316
816.055,45.91180251442711
818.521,46.8780751729596
820.984,52.28471305405469
823.446,34.56041622531416
825.906,20.562536719942045
828.365,19.624698436237395
830.821,19.937750370424965
833.276,73.07357699233967
835.729,68.84224195444449
838.181,37.958655610376354
840.631,0.23305205729820955
843.079,-6.667105250322493
845.525,-25.740932172646808
847.97,-4.035075390130032
850.412,20.975335410747903
852.854,38.48192309168394
855.293,69.4382982071711
857.731,78.60767510148571
860.167,52.800964196159384
862.601,28.781530944110273
865.034,37.64614525997126
867.465,27.77735952183457
869.894,54.79588657300178
872.321,31.417739628488107
874.747,18.597086467256077
877.171,21.240532195868354
879.594,47.969021059768465
882.014,44.59402396884025
884.433,64.3080117372549
886.851,47.922547370934126
889.266,34.20161645025246
891.68,55.19495751273803
894.092,98.19044005482078
896.503,125.38072824786855
898.912,140.52994465422057
901.319,125.59271489560729
903.724,66.23797422632538
906.128,59.61086934451032
908.53,83.28513639388552
910.931,113.02500277503918
913.329,129.88042229002826
915.726,117.23469123936661
918.122,83.42349309043561
920.516,85.06822886018472
922.908,96.55220464068452
925.298,92.87777150563443
927.687,100.19013208353545
930.074,121.34876617848454
932.459,110.16552305763662
934.843,106.40461850056886
937.225,121.87786994388466
939.605,115.49231257818883
941.984,124.96448211174493
944.361,129.91564991506766
946.736,98.20515340362294
949.11,70.69229784908771
951.482,74.379210571572
953.853,72.17274275088744
956.222,61.932085523529395
958.589,62.944957508234666
960.954,42.40379233153067
963.318,31.262878534249467
965.68,40.14311852565265
968.041,58.71297801374703
970.4,58.92657829274708
972.757,82.07131234005737
975.113,49.95831805612033
977.467,6.160570551878209
979.819,-12.653787468525252
982.17,-16.530972467899346
984.519,-8.279181432883888
986.866,29.05521396565996
989.212,30.99718568218009
991.556,11.214471472090054
993.899,18.80328569140579
996.24,42.193077715433446
998.579,70.28938676869711
1000.92,78.75955583839004
1003.25,50.93749320686766
1005.59,6.06176731747837
1007.92,-12.200584073897062
1010.25,0.19832668127264697
1012.58,35.449142165935655
1014.91,67.45668737990036
1017.24,74.60187343448388
1019.56,77.74170009707314
1021.88,78.63782976426182
1024.2,83.90897095879791
1026.52,91.12611896939097
1028.84,91.28874887146776
1031.16,65.25338950031733
1033.48,69.4479117099404
1035.79,84.58581663190375
1038.1,121.80909536276477
1040.41,140.54537436578494
1042.72,157.12696563454347
1045.03,142.6480120946519
1047.33,137.4882996721301
1049.64,148.69421221892753
1051.94,154.88349596225703
1054.24,159.91192871583053
1056.54,173.53998909109487
1058.84,141.09952570847372
1061.13,132.54137878955476
1063.43,152.14966841594628
1065.72,158.7322732643222
1068.01,197.76369029385455
1070.3,212.9088468145933
1072.59,195.975483984422
1074.87,191.77130221076686
1077.16,207.34205893326407
1079.44,218.92395212070687
1081.72,254.13409900609508
1084.0,243.3991100597798
1086.28,256.6693772483259
1088.56,328.46669562670377
1090.84,406.45569445429237
1093.11,496.06288735849853
1095.38,531.619532022185
1097.65,500.64734701395605
1099.92,434.4775619517809
1102.19,390.2033009999434
1104.46,336.10815684218187
1106.72,306.713812273877
1108.98,279.92289988947664
1111.24,283.9237665318228
1113.5,300.4761901224365
1115.76,338.10185839655946
1118.02,375.9415143048584
1120.28,413.27876808180054
1122.53,415.302004552128
1124.78,382.29486186589656
1127.03,352.0648054716157
1129.28,289.2288449465327
1131.53,225.40401273167527
1133.77,198.54070000975207
1136.02,172.54170686876773
1138.26,150.5955781799264
1140.5,151.3194632850541
1142.74,142.85435663640556
1144.98,156.67462415075306
1147.22,191.302291468234
1149.45,213.54514173501275
1151.69,199.54433719545636
1153.92,187.29823126051042
1156.15,155.90046629035714
1158.38,139.6828332818352
1160.61,129.35813155586038
1162.83,103.06779034960186
1165.06,66.61996659914075
1167.28,55.346690341169506
1169.5,37.1038672575537
1171.72,35.31890026751057
1173.94,20.990692072169168
1176.16,26.546790556270253
1178.37,26.41481990415423
1180.58,38.02248525928121
1182.8,17.702339288530766
1185.01,9.92988207983035
1187.22,-1.24786276974055
1189.42,-7.78377028794921
1191.63,-11.582987630760272
1193.84,-12.693402953691248
1196.04,-23.448496055432088
1198.24,10.056476417807971
1200.44,33.67877061295303
1202.64,12.037680667545828
1204.84,-1.342601748074685
1207.03,-27.032985031456064
1209.23,-33.69947524871054
1211.42,-12.722221491908385
1213.61,5.852102505843959
1215.8,4.738865443381201
1217.99,13.605948955157828
1220.18,18.83564727412704
1222.36,39.42942451408612
1224.55,56.91267195202113
1226.73,67.09660816759333
1228.91,60.55446489690826
1231.09,48.7643395529517
1233.27,42.58538107935692
1235.44,30.829213899414526
1237.62,19.402790436503892
1239.79,5.308386491666624
1241.96,12.548358525942831
1244.13,51.12513903794502
1246.3,69.27932771048268
1248.47,66.39444922385701
1250.64,43.9017110691525
1252.8,38.32761850438692
1254.96,35.7225418916064
1257.13,70.70833165303839
1259.29,88.811647512955
1261.44,94.74966869191553
1263.6,101.2872326724414
1265.76,107.1892120599241
1267.91,77.69670096734262
1270.06,98.24129663807867
1272.22,118.20700011635313
1274.37,109.40640263194518
1276.51,128.74734817538615
1278.66,122.85197702553751
1280.81,100.24719784859849
1282.95,124.07896932092376
1285.09,107.44562937088608
1287.23,106.44551013502337
1289.37,94.55788624751222
1291.51,84.78582789155462
1293.65,79.2276252793315
1295.78,80.88630837005508
1297.92,70.33630944516312
1300.05,97.34250663589137
1302.18,64.3364103079914
1304.31,52.5590161131081
1306.44,38.346515183020074
1308.57,12.273147181019567
1310.69,15.198815258053173
1312.82,50.03098672315218
1314.94,82.34373782714033
1317.06,110.85394295169908
1319.18,131.08793998890974
1321.3,134.47676714936233
1323.41,143.9275902464624
1325.53,180.3475109331141
1327.64,212.21499398602623
1329.75,199.05605649477866
1331.87,203.8728380032694
1333.98,197.42931350829576
1336.08,195.06081598194896
1338.19,230.72165413210155
1340.3,213.98511111527887
1342.4,171.4243956304781
1344.5,148.66025967965766
1346.6,123.78956870917887
1348.7,98.62339556077404
1350.8,116.87749537489185
1352.9,96.74373287499589
1354.99,78.17579536614903
1357.09,102.79395335264894
1359.18,108.12315448898676
1361.27,105.78349848319317
1363.36,135.49023580970334
1365.45,144.4347188031793
1367.54,142.8558289428047
1369.62,196.0875946127726
1371.7,210.08299933896637
1373.79,224.0806471684998
1375.87,263.5095232873475
1377.95,269.7985165427333
1380.03,236.4240372036145
1382.1,232.43382519735678
1384.18,194.58980596546144
1386.25,196.89189870023915
1388.33,183.1018245814946
1390.4,187.98120072748202
1392.47,157.14868176491564
1394.54,148.365672827548
1396.6,107.34585207855616
1398.67,108.37421704245321
1400.74,78.8308928417639
1402.8,76.19113090988549
1404.86,57.50149818014779
1406.92,34.9989234177267
1408.98,16.348791170602
1411.04,23.787797625280064
1413.09,30.266806462515206
1415.15,30.35561115863311
1417.2,33.48103302876871
1419.25,34.403114508204226
1421.3,48.16750290989535
1423.35,54.77211989628313
1425.4,35.73859285586741
1427.45,6.017019613113234
1429.49,-8.728314480692688
1431.54,23.547732924368347
1433.58,67.60449794234
1435.62,82.29646532694733
1437.66,73.66851141885354
1439.7,64.28924233101475
1441.74,62.63195118165322
1443.77,68.97938485104032
1445.81,113.56660597637574
1447.84,117.91433113714584
1449.87,135.78131665952674
1451.9,173.3548396588867
1453.93,165.25070289181144
1455.96,133.5608586557512
1457.98,128.234366021994
1460.01,117.31549092578462
1462.03,134.18180625644504
1464.05,178.87753004273554
1466.07,176.63733982869076
1468.09,173.88637752564864
1470.11,177.38311140713563
1472.13,175.79076953232197
1474.14,181.58210650280944
1476.16,190.75369402893853
1478.17,178.77830673419749
1480.18,173.3192127215309
1482.19,153.61113080631867
1484.2,134.7935687017366
1486.21,115.14892310887944
1488.21,83.81677028307058
1490.22,67.79387088588669
1492.22,61.31512721813624
1494.22,39.85358807188504
1496.22,40.40616786819987
1498.22,20.446032461562254
1500.22,11.494032563325618
1502.22,13.642518117553209
1504.21,8.031533629232854
1506.21,-13.532129364650928
1508.2,-20.098736966896695
1510.19,-14.908941401398579
1512.18,4.4633652879454075
1514.17,28.492004942374024
1516.16,19.36517972494994
1518.14,10.46166236677118
1520.13,0.35079593699106226
1522.11,-4.350363530016239
1524.09,-12.643713931308184
1526.07,-3.9596310995573276
1528.05,-2.7283980114577844
1530.03,19.28645993369264
1532.01,25.035791614282743
1533.98,31.94672232467383
1535.96,33.208365437295924
1537.93,13.343248350459135
1539.9,1.8739765313994212
1541.87,0.08513565456064498
1543.84,4.213765168451346
1545.81,37.40173681234273
1547.78,56.69575218916725
1549.74,72.76162605269633
1551.7,78.6938076899578
1553.67,72.49156897031821
1555.63,92.34471620409022
1557.59,111.49073057256828
1559.55,116.02428951044794
1561.5,122.61154999300197
1563.46,103.91871753754822
1565.41,79.3739485382448
1567.37,85.11972879136874
1569.32,93.82239487773609
1571.27,98.91022697369385
1573.22,74.81154166211263
1575.17,51.43087998147894
1577.11,36.29186214164997
1579.06,42.44194700151456
1581.0,43.45242964188924
1582.95,46.13272465270347
1584.89,53.19703037256431
1586.83,71.88337408070561
1588.77,83.33456195083727
1590.7,85.31246233832849
1592.64,69.62657478167785
1594.58,53.13402757541144
1596.51,37.072908676317866
1598.44,24.276548990626907
