Raman Shift,Processed Intensity
331.095,52.27955446046508
333.909,47.73075920023575
336.721,41.23481199751723
339.531,37.1250514051776
342.339,45.496731177042875
345.145,61.040358820790516
347.949,39.37503415082119
350.751,21.072264031617124
353.55,-32.915460974138114
356.348,-21.207042338388874
359.144,-7.849911205297758
361.937,-15.034312231091917
364.729,-3.90282551914288
367.518,15.021063825912279
370.306,92.40439614403931
373.091,204.58092957044482
375.874,276.5511419100162
378.656,286.41080394034
381.435,285.11288604804986
384.212,211.84851248423183
386.988,143.47553466744057
389.761,88.5661521057682
392.532,48.64500950939237
395.301,38.80824628407436
398.068,40.675879357993836
400.833,43.772757437141536
403.596,37.480943832147204
406.358,29.325432618446484
409.117,1.307483844059334
411.874,-20.38108888167926
414.629,-49.21505638720555
417.382,-37.14529274861343
420.133,3.92503691392767
422.882,43.5214255247638
425.629,70.88373061542688
428.374,94.34711941699106
431.117,119.43730414992069
433.858,153.29911064724683
436.597,198.64885650155202
439.334,201.67911016434073
442.069,187.77297385493011
444.802,156.21836646934753
447.533,139.68421125112172
450.262,150.8394806049405
452.989,187.73414567221153
455.714,211.32298304948108
458.438,217.03700055446416
461.159,203.8310534682705
463.878,191.94574649191054
466.595,194.00266903614192
469.31,156.67105908273288
472.024,139.38208609335607
474.735,132.66218153752152
477.444,134.1806551347995
480.152,157.0830253827612
482.857,181.18149294205205
485.561,164.33589021195166
488.262,156.59653566783027
490.962,152.25185010337373
493.659,180.7331157299568
496.355,203.23352099029853
499.048,222.04149108641468
501.74,243.73116136470253
504.43,250.20999355816457
507.118,239.099725361968
509.804,255.0220819137644
512.488,269.4559158454349
515.17,294.26101400149946
517.85,340.5828565384836
520.528,347.9002331671454
523.204,347.3109546327887
525.878,319.1032784812983
528.551,326.7559062537448
531.221,358.31893306194934
533.89,388.08051144975707
536.556,394.47161049240776
539.221,387.16125108637834
541.883,333.2945983820814
544.544,336.0167685022793
547.203,349.7585400224061
549.86,372.3792083080207
552.515,429.78563032845705
555.168,455.0750789942758
557.819,446.2971451137714
560.469,446.69182982566554
563.116,424.16573226990204
565.761,409.0063324965281
568.405,360.78675056506154
571.047,310.55621992956594
573.687,290.03056082372495
576.324,279.5921774554404
578.96,300.00434091571196
581.594,296.8397578018007
584.227,250.90913884040083
586.857,199.16595798699564
589.485,182.94454485855294
592.112,188.19817716621492
594.737,191.975268386087
597.359,161.13365066811275
599.98,138.19771488780952
602.599,114.64412212658408
605.216,96.56846753299851
607.831,128.06622989831703
610.445,140.23276885110727
613.056,161.9728458613522
615.666,152.85776429219186
618.274,127.03012849926654
620.88,81.53717435864792
623.484,68.18790931857302
626.086,76.31501435594646
628.686,124.63198402808075
631.284,150.3283686790769
633.881,161.92692140809731
636.476,160.28360218050238
639.068,155.01615336756004
641.659,149.83743719091308
644.249,148.65067792896025
646.836,132.07327555180382
649.421,101.43680983238391
652.005,80.16799683857198
654.587,73.12202637763812
657.166,90.91589944072757
659.745,78.45224183780238
662.321,46.10978449925415
664.895,24.600510444179235
667.468,25.731563653406283
670.038,41.643348418722326
672.607,57.28572643653524
675.174,33.84659745788122
677.739,9.275718033673456
680.303,16.61804406947749
682.864,35.966120999335544
685.424,45.6981891989185
687.982,14.240100599653942
690.538,-3.4584789828572866
693.092,-27.066915139478624
695.645,-33.49263920614294
698.195,-31.738278198608896
700.744,-20.13974005527143
703.291,-11.509064441801002
705.836,5.77034204866095
708.38,1.4103733281212953
710.921,17.932509101176038
713.461,22.429719200075397
715.999,36.661701394882584
718.535,67.67392872743676
721.069,61.797649226271005
723.602,70.41179038343262
726.133,96.46676839321117
728.662,108.6749640575299
731.189,104.6059605961027
733.714,63.448448123256185
736.238,14.200699553334744
738.759,3.0991417441896374
741.279,14.094545688301423
743.798,25.090121465801303
746.314,28.608184626065622
748.829,12.552060664554574
751.342,6.0632275948810275
753.853,16.949887092308018
756.362,39.30601182773057
758.869,33.654202325463984
761.375,32.70759144008571
763.879,17.846034547560066
766.381,24.68753783160355
768.882,23.183496093855183
771.38,29.332978183094838
773.877,9.087488614939957
776.372,2.9700149058237457
778.866,16.789313002209838
781.357,44.78276413837989
783.847,45.187803122795
786.335,61.480013291119576
788.821,34.658840506868046
791.306,20.53330716204414
793.789,40.10296427302319
796.27,29.986462624045316
798.749,60.08821914880514
801.227,75.07460712155921
803.702,90.9930034910999
806.176,92.03369335756929
808.649,94.67272683023702
811.119,116.14810921860408
813.588,109.03122931874896
816.055,78.32209722347466
818.521,68.49696308484386
820.984,54.03212635289992
823.446,40.21345930010034
825.906,63.42212102194503
828.365,25.753604770932725
830.821,48.30345195717882
833.276,58.92915662523592
835.729,86.34540326423985
838.181,56.36216176091443
840.631,44.170401400198216
843.079,4.484947723010691
845.525,16.25876795545105
847.97,15.921065961804743
850.412,53.99632957850304
852.854,56.7233779480855
855.293,56.67440885316341
857.731,48.27880795514466
860.167,29.442196128203932
862.601,8.832143459923373
865.034,5.068645156687353
867.465,-0.8473073128250235
869.894,-1.152774121773973
872.321,23.534275486899105
874.747,24.88162958205635
877.171,10.319023735471774
879.594,-14.819002120397272
882.014,2.325943641554886
884.433,19.80277072466197
886.851,34.517571776837485
889.266,27.090763449401493
891.68,11.61898936067314
894.092,29.960832583369665
896.503,78.7844328939068
898.912,91.28177068836249
901.319,87.88295089844746
903.724,61.73239166937287
906.128,39.30787018057799
908.53,53.087187514075595
910.931,107.50054780851724
913.329,111.5019850322999
915.726,105.28364689953264
918.122,104.65674545267234
920.516,99.00393621658691
922.908,87.80312592404925
925.298,112.05604214599566
927.687,81.05013625511447
930.074,96.4538197227655
932.459,120.6021766063784
934.843,127.40172365589319
937.225,110.94945613448363
939.605,90.91379840119293
941.984,90.20126877927964
944.361,85.337430138851
946.736,77.56212619377607
949.11,43.924717798606025
951.482,47.23646210263223
953.853,42.35622503728314
956.222,59.5714318987566
958.589,30.07425602589433
960.954,21.247331287579982
963.318,9.949464570142027
965.68,56.46801493142084
968.041,93.2807965643608
970.4,80.34179228393577
972.757,40.985914633124366
975.113,13.071862226981466
977.467,-12.398833427097316
979.819,-20.996094442451522
982.17,-6.90891507622473
984.519,-14.183457767282562
986.866,-19.24686574836869
989.212,11.759399797513879
991.556,37.78907818819812
993.899,44.462530343529124
996.24,48.54292300886641
998.579,67.55527012143466
1000.92,68.92928370049322
1003.25,80.76127235653917
1005.59,84.33794456243004
1007.92,54.70783097211665
1010.25,32.8241353108142
1012.58,15.973299550876163
1014.91,5.060711944819104
1017.24,28.46784700352123
1019.56,76.09988336929928
1021.88,92.2904651001536
1024.2,109.27789451240756
1026.52,120.10989645192376
1028.84,110.16743018436432
1031.16,113.49802509497863
1033.48,134.14911638838885
1035.79,128.64423793123524
1038.1,137.84016747577925
1040.41,160.68883378825694
1042.72,152.9992237772467
1045.03,164.96119438392907
1047.33,170.09785590092838
1049.64,147.97986005305575
1051.94,149.65397379234832
1054.24,142.547843569286
1056.54,132.08904531830444
1058.84,137.6098487290244
1061.13,138.8710291365246
1063.43,129.49044131638084
1065.72,165.13349804160384
1068.01,173.4655534014871
1070.3,200.7233337395046
1072.59,230.381606686434
1074.87,236.105564479205
1077.16,218.4651120416454
1079.44,228.2205836366586
1081.72,204.94179285173254
1084.0,225.05565401301806
1086.28,280.89380359940606
1088.56,351.59736451375215
1090.84,441.25980559219283
1093.11,508.83170587536597
1095.38,528.1683760224939
1097.65,505.1250987730716
1099.92,451.1285598847603
1102.19,383.2244695474649
1104.46,336.1251837974112
1106.72,288.3049449788491
1108.98,294.95226506289987
1111.24,334.1604042045051
1113.5,367.16546834698556
1115.76,395.44164968374844
1118.02,403.8440861676104
1120.28,411.51362578202406
1122.53,407.2577812884981
1124.78,388.02692306925314
1127.03,330.67618625558976
1129.28,290.4892826181631
1131.53,256.3213600763022
1133.77,233.50376696923786
1136.02,192.98691156542236
1138.26,155.86407395280253
1140.5,109.51426554814384
1142.74,112.64985051111216
1144.98,137.12607192025985
1147.22,171.274387472826
1149.45,194.33104327977367
1151.69,203.1037428989266
1153.92,192.73355446333994
1156.15,162.88538923824603
1158.38,153.9384801780011
1160.61,154.9863842925488
1162.83,129.69412787103215
1165.06,108.10773265778289
1167.28,98.46374202831271
1169.5,48.99874716530894
1171.72,45.04462752034033
1173.94,50.457124608901495
1176.16,37.04441580545631
1178.37,35.56711670991035
1180.58,25.59542637123036
1182.8,18.556748701529614
1185.01,29.21188531873713
1187.22,17.750278587686353
1189.42,-5.73379106788434
1191.63,-11.479293567622108
1193.84,-27.010821492079458
1196.04,-7.614772531055905
1198.24,15.898752556778163
1200.44,0.529287113815144
1202.64,-0.8663793346033799
1204.84,-9.288482165476353
1207.03,-35.97522935549705
1209.23,-20.545654029727757
1211.42,5.952770112174903
1213.61,14.28222369064838
1215.8,33.34787244413542
1217.99,27.43596053330839
1220.18,1.7852371786243566
1222.36,7.301240440738866
1224.55,24.175342905682555
1226.73,33.17046421767873
1228.91,50.57345101003898
1231.09,56.814123502725806
1233.27,40.37003638562737
1235.44,21.337906368502217
1237.62,-1.3759126500315233
1239.79,-10.72209727064751
1241.96,-15.317879424322655
1244.13,10.26723818054029
1246.3,29.511479785610845
1248.47,72.32174508858861
1250.64,84.74789108249729
1252.8,84.6493948473601
1254.96,78.02868300854061
1257.13,72.50731833793816
1259.29,67.65932921232616
1261.44,102.39215811931103
1263.6,108.04189587757423
1265.76,110.37327776188295
1267.91,140.1987272471431
1270.06,108.99739975245188
1272.22,87.9151787661026
1274.37,97.47895768487956
1276.51,101.26330260573809
1278.66,111.3666389270063
1280.81,153.64934271149536
1282.95,123.78135585912742
1285.09,105.6707536605254
1287.23,81.65421711249792
1289.37,80.97321951924437
1291.51,80.20259404594094
1293.65,94.67910127232494
1295.78,75.88237769866328
1297.92,72.33969377552626
1300.05,55.911664314524614
1302.18,71.5541493752255
1304.31,67.50872658064895
1306.44,73.8264967660914
1308.57,85.17760391366119
1310.69,106.08932651538953
1312.82,120.94607369824666
1314.94,134.08461944439
1317.06,123.41314633522416
1319.18,128.36362262879038
1321.3,139.65370314668735
1323.41,151.28672539907666
1325.53,167.3136104716034
1327.64,181.07095438850047
1329.75,193.56197661855595
1331.87,199.9327066763185
1333.98,224.37674215187008
1336.08,235.84953055012602
1338.19,225.59217493965525
1340.3,193.84571579197586
1342.4,171.13684139227666
1344.5,150.99216967871098
1346.6,137.27157770073563
1348.7,105.73962631554787
1350.8,90.73222297975758
1352.9,73.25185596963183
1354.99,90.20568574419462
1357.09,124.92935059404113
1359.18,137.80601038538657
1361.27,129.50443792316764
1363.36,154.02663412366678
1365.45,147.1363955680872
1367.54,135.88312015136557
1369.62,142.98275558813202
1371.7,172.77017649009213
1373.79,200.24679953865416
1375.87,230.17581770516745
1377.95,226.17743447116163
1380.03,214.7288599533506
1382.1,192.0214498857772
1384.18,177.53213031624227
1386.25,139.7852984932117
1388.33,116.54329518129066
1390.4,89.47306745289234
1392.47,84.86045052752411
1394.54,70.99111627774482
1396.6,55.5315217351133
1398.67,26.005095691379893
1400.74,28.792234823483795
1402.8,20.558871247122852
1404.86,38.39932839499011
1406.92,60.36012927596357
1408.98,70.91618776695304
1411.04,81.68509514284415
1413.09,72.95093041596488
1415.15,39.75949924698193
1417.2,38.442144284366805
1419.25,29.18717455148385
1421.3,7.03986626224787
1423.35,10.092939827257624
1425.4,14.438941621838694
1427.45,16.979769333450804
1429.49,47.61715071777894
1431.54,26.871695238961138
1433.58,13.406709315293483
1435.62,4.171059183983289
1437.66,5.827748051620119
1439.7,25.801542210581374
1441.74,43.993264248341575
1443.77,57.68456304006031
1445.81,85.5379218364094
1447.84,97.40619016092592
1449.87,107.57068713593549
1451.9,110.45549528466768
1453.93,105.05604004765655
1455.96,112.41528834675887
1457.98,113.14756619679497
1460.01,113.200471555278
1462.03,130.42631098166908
1464.05,129.24877439187003
1466.07,140.9010383841487
1468.09,143.0924409936274
1470.11,171.48468025630154
1472.13,185.78706039209965
1474.14,203.6612617974754
1476.16,214.62611103799486
1478.17,217.86711274568052
1480.18,219.5221719925521
1482.19,223.72922142606558
1484.2,186.34051507122558
1486.21,150.16073165650369
1488.21,104.04222079689725
1490.22,66.45643965317458
1492.22,66.77967530541468
1494.22,54.6263861741661
1496.22,44.03968629874885
1498.22,36.68182961555658
1500.22,6.119932331600467
1502.22,-21.412114225760433
1504.21,-6.39458790194567
1506.21,-16.164784770181768
1508.2,4.940129565905636
1510.19,-3.559731981705454
1512.18,-21.477450665727247
1514.17,-32.10215553624198
1516.16,-4.103782195750455
1518.14,-4.628309998101258
1520.13,23.79747350332559
1522.11,26.980255310546
1524.09,25.012574504423355
1526.07,24.891866434782514
1528.05,18.663316434330227
1530.03,10.419856389721417
1532.01,20.206923217383746
1533.98,34.07007448220543
1535.96,42.67403258765012
1537.93,31.874109918248223
1539.9,35.57334826780311
1541.87,35.43680112473817
1543.84,43.17724452887592
1545.81,47.03136411868991
1547.78,66.3311802737935
1549.74,79.36118754314725
1551.7,108.07263693040886
1553.67,123.17877056023599
1555.63,120.01196110649425
1557.59,91.85704169665496
1559.55,73.66558819714578
1561.5,56.77020149870236
1563.46,52.55117075410135
1565.41,92.72218423494269
1567.37,112.66365923604963
1569.32,103.089405313204
1571.27,94.23709704468797
1573.22,79.29684203092688
1575.17,73.60165365603234
1577.11,64.96078099220995
1579.06,61.27875298988124
1581.0,42.0791845725671
1582.95,42.504773207960625
1584.89,46.31729547900659
1586.83,45.18331794069172
1588.77,35.1503841673084
1590.7,22.98034465686328
1592.64,11.196972449763507
1594.58,-3.437849823913666
1596.51,0.6234856742808006
1598.44,37.21430856224265
