Raman Shift,Processed Intensity
331.095,48.87349285714265
333.909,-3.2361714285715237
336.721,-6.796464285714265
339.531,16.64711428571431
342.339,32.09642857142861
345.145,46.31565714285716
347.949,65.21260000000002
350.751,39.267242857142875
353.55,30.91269523809525
356.348,31.58291428571429
359.144,7.950771428571423
361.937,-15.40510952380951
364.729,-10.000404761904747
367.518,41.26926666666678
370.306,118.55703809523825
373.091,247.9217761904764
375.874,364.1378857142859
378.656,393.93339047619065
381.435,344.27528952380965
384.212,252.7036085714286
386.988,127.75946000000005
389.761,24.461232095238103
392.532,-12.123496714285713
395.301,-27.92579961904761
398.068,-23.58987995238096
400.833,-3.4724072380952298
403.596,-13.309597666666708
406.358,-37.8364502857143
409.117,-43.73865047619049
411.874,-21.462333333333316
414.629,-2.833095238095214
417.382,44.991604761904775
420.133,47.52255238095241
422.882,40.89063333333337
425.629,61.75208095238104
428.374,128.478461904762
431.117,197.44269523809538
433.858,266.2093857142859
436.597,273.53460952380965
439.334,231.17571428571438
442.069,185.4622380952382
444.802,152.81995238095246
447.533,148.86600000000013
450.262,164.45642857142866
452.989,192.4481904761906
455.714,226.12800000000013
458.438,232.30672380952393
461.159,177.1292952380953
463.878,126.02697142857147
466.595,81.7648952380953
469.31,81.20440000000008
472.024,110.39791428571438
474.735,131.92191428571437
477.444,138.7343333333334
480.152,159.36490476190485
482.857,174.62958095238105
485.561,156.630461904762
488.262,158.08910476190485
490.962,124.86998571428578
493.659,96.45724285714292
496.355,93.81105238095245
499.048,110.84446190476197
501.74,122.94719047619058
504.43,155.69932857142868
507.118,162.34760000000009
509.804,157.04376190476202
512.488,164.32038095238107
515.17,178.61500000000012
517.85,206.1274285714287
520.528,210.91419047619058
523.204,206.5080000000001
525.878,176.63257142857148
528.551,157.72509523809535
531.221,126.12797619047626
533.89,117.27838095238103
536.556,112.75626190476197
539.221,128.80839047619054
541.883,93.34812857142862
544.544,95.24040000000008
547.203,93.06475238095246
549.86,112.78106666666675
552.515,116.92089047619054
555.168,137.3011047619048
557.819,110.64330952380959
560.469,115.33490476190485
563.116,137.6207380952382
565.761,183.17342857142867
568.405,172.33259523809534
571.047,171.62742857142865
573.687,158.77787142857153
576.324,128.4553476190477
578.96,117.66500476190484
581.594,126.22041428571436
584.227,116.17340952380961
586.857,138.57515714285725
589.485,158.38148571428576
592.112,133.7859714285715
594.737,132.60106666666672
597.359,111.01936190476196
599.98,87.42382857142863
602.599,85.57788571428578
605.216,97.14958095238102
607.831,98.28273333333343
610.445,122.88300000000008
613.056,127.33140000000007
615.666,139.67566666666676
618.274,137.91519047619056
620.88,139.57285714285723
623.484,155.2192380952382
626.086,173.4240952380954
628.686,203.09052380952397
631.284,235.64523809523826
633.881,240.5619523809525
636.476,229.314142857143
639.068,253.13700000000014
641.659,256.07452380952395
644.249,231.55209523809535
646.836,209.6612571428572
649.421,166.11207142857148
652.005,115.94793333333341
654.587,99.68803333333338
657.166,83.6134428571429
659.745,66.67186666666672
662.321,53.33446190476192
664.895,46.26260952380955
667.468,45.64150952380955
670.038,48.84674380952384
672.607,36.92040333333336
675.174,61.66665904761909
677.739,56.84157761904765
680.303,58.201487619047654
682.864,68.07399380952384
685.424,71.73917238095241
687.982,47.52467619047623
690.538,44.66315714285716
693.092,50.38693809523812
695.645,16.261999999999997
698.195,8.711476190476208
700.744,15.3967761904762
703.291,15.407995238095255
705.836,14.978209523809547
708.38,41.15020952380954
710.921,24.538357142857166
713.461,34.66190952380955
715.999,29.46886666666667
718.535,33.47879904761907
721.069,21.49708000000001
723.602,29.42449809523812
726.133,35.06679619047622
728.662,54.37263428571431
731.189,40.29087571428574
733.714,48.48482380952383
736.238,43.09404714285718
738.759,60.73439619047624
741.279,86.73630047619052
743.798,83.33491952380955
746.314,79.86095714285719
748.829,63.26411190476193
751.342,53.970433333333375
753.853,48.4537166666667
756.362,59.854647619047654
758.869,51.456785714285765
761.375,73.877280952381
763.879,79.16178571428577
766.381,84.73708095238099
768.882,65.17296190476193
771.38,62.563128571428614
773.877,63.57280952380957
776.372,61.438790476190526
778.866,70.20748571428575
781.357,80.49683809523815
783.847,82.25811428571436
786.335,101.3001952380953
788.821,105.38398571428576
791.306,107.74696190476197
793.789,108.24572380952388
796.27,111.59398095238103
798.749,129.74341904761914
801.227,169.74184761904772
803.702,176.49338095238107
806.176,175.61733333333342
808.649,179.39919047619057
811.119,164.50557142857156
813.588,172.74609523809536
816.055,197.0736190476192
818.521,189.9169523809525
820.984,174.1340000000001
823.446,173.2485238095239
825.906,157.59442857142867
828.365,165.5532857142858
830.821,152.2685714285715
833.276,136.6459333333334
835.729,116.59115238095244
838.181,96.15260952380959
840.631,90.95026666666674
843.079,115.03300000000006
845.525,105.73513333333338
847.97,98.43879523809527
850.412,81.669080952381
852.854,75.14155333333338
855.293,56.52410571428575
857.731,63.62791619047623
860.167,53.21625619047622
862.601,50.81447809523813
865.034,52.947981904761946
867.465,66.52316285714289
869.894,56.49413809523813
872.321,69.86242857142862
874.747,84.24916666666672
877.171,108.65620476190485
879.594,124.03752380952388
882.014,129.3000476190477
884.433,135.68385714285725
886.851,140.42852380952388
889.266,148.67938095238105
891.68,167.15285714285724
894.092,165.3746380952382
896.503,147.15667142857154
898.912,129.73923809523816
901.319,102.45745238095246
903.724,93.59936190476198
906.128,121.16739523809534
908.53,160.7354761904763
910.931,169.01995714285724
913.329,164.35670476190484
915.726,147.31927142857148
918.122,118.95744761904768
920.516,103.9880190476191
922.908,100.46122380952384
925.298,68.33170952380956
927.687,67.5543571428572
930.074,81.41731904761912
932.459,92.11352857142863
934.843,117.97899047619055
937.225,118.96839523809528
939.605,91.84612857142861
941.984,85.85233809523815
944.361,86.60896666666673
946.736,91.92798571428578
949.11,94.81200000000004
951.482,99.93014285714291
953.853,94.28461428571435
956.222,112.11603809523818
958.589,100.52232857142862
960.954,93.83888571428577
963.318,86.87806666666674
965.68,106.07074285714293
968.041,119.89538095238102
970.4,130.68802190476194
972.757,87.87943523809525
975.113,35.6623261904762
977.467,21.991761904761933
979.819,24.298318571428588
982.17,26.774896190476206
984.519,18.42378523809524
986.866,9.532927619047623
989.212,5.818847619047652
991.556,32.75996190476195
993.899,66.31093333333338
996.24,97.42606190476197
998.579,103.29807619047625
1000.92,105.16707619047625
1003.25,93.65412857142861
1005.59,85.6180952380953
1007.92,87.44206190476196
1010.25,95.17510952380957
1012.58,106.81888571428578
1014.91,97.47013333333335
1017.24,79.41596666666672
1019.56,74.8955047619048
1021.88,72.386280952381
1024.2,66.93669047619053
1026.52,82.45226190476197
1028.84,87.79094285714292
1031.16,109.47671428571437
1033.48,134.31945714285723
1035.79,149.9384476190477
1038.1,166.42909523809536
1040.41,189.36280952380963
1042.72,202.9299523809525
1045.03,207.22485714285725
1047.33,199.72366666666676
1049.64,194.9019523809525
1051.94,176.66385714285724
1054.24,164.15133333333344
1056.54,144.22066666666672
1058.84,136.53706666666676
1061.13,122.90947142857152
1063.43,127.8603714285715
1065.72,120.91219523809532
1068.01,141.68260952380962
1070.3,177.8843761904763
1072.59,200.37301904761912
1074.87,194.52795238095248
1077.16,198.7284285714287
1079.44,205.49619047619066
1081.72,232.06738095238114
1084.0,277.29723809523836
1086.28,335.421904761905
1088.56,441.05852380952416
1090.84,560.2525238095242
1093.11,659.5728571428574
1095.38,683.5888095238098
1097.65,606.0126190476193
1099.92,488.2703333333336
1102.19,396.35976190476214
1104.46,345.9446190476193
1106.72,342.73680952380977
1108.98,350.06728571428596
1111.24,382.9812380952384
1113.5,410.6668095238098
1115.76,446.5022380952384
1118.02,496.48490476190506
1120.28,502.8981428571431
1122.53,480.9293809523812
1124.78,452.4330476190478
1127.03,384.4544285714288
1129.28,322.8480000000002
1131.53,278.65895238095254
1133.77,227.40852380952396
1136.02,193.1889523809525
1138.26,191.09285714285727
1140.5,190.0229047619049
1142.74,216.59533333333349
1144.98,218.61704761904772
1147.22,219.13338095238106
1149.45,219.3794761904763
1151.69,225.73390476190485
1153.92,234.4806190476192
1156.15,217.80709523809531
1158.38,187.47315238095246
1160.61,161.3813714285715
1162.83,127.5291190476191
1165.06,103.43831428571437
1167.28,95.91637619047623
1169.5,83.05638095238102
1171.72,94.28490000000005
1173.94,98.31421428571434
1176.16,86.14247142857147
1178.37,75.5299666666667
1180.58,68.99841428571435
1182.8,70.83230952380957
1185.01,67.50612380952384
1187.22,72.58987619047622
1189.42,58.32027619047621
1191.63,53.076966666666706
1193.84,37.38236666666667
1196.04,22.045109523809543
1198.24,21.826076190476215
1200.44,40.914909523809555
1202.64,39.882266666666695
1204.84,61.25133809523811
1207.03,40.73586666666668
1209.23,36.85930000000003
1211.42,44.47847142857146
1213.61,64.9265666666667
1215.8,67.82257619047621
1217.99,53.88086476190476
1220.18,21.815869523809525
1222.36,1.008858095238105
1224.55,18.841290476190515
1226.73,30.551777619047645
1228.91,48.42673714285717
1231.09,50.41936904761907
1233.27,44.67349619047623
1235.44,47.95198142857149
1237.62,92.82766952380959
1239.79,120.34934761904772
1241.96,150.04201904761916
1244.13,162.3360380952382
1246.3,159.1853333333334
1248.47,150.68690476190486
1250.64,175.36638095238106
1252.8,189.74933333333345
1254.96,207.83761904761917
1257.13,214.7763809523811
1259.29,228.66314285714304
1261.44,244.8810476190478
1263.6,259.76576190476203
1265.76,235.50995238095248
1267.91,214.54480952380962
1270.06,178.586761904762
1272.22,160.35309523809534
1274.37,166.5130000000001
1276.51,175.59314285714296
1278.66,168.2150000000001
1280.81,174.14371428571437
1282.95,162.0960000000001
1285.09,138.97971428571435
1287.23,129.13119047619057
1289.37,139.07680952380963
1291.51,139.91480952380962
1293.65,157.98195238095246
1295.78,175.51942857142868
1297.92,164.3395238095239
1300.05,155.39771428571436
1302.18,147.74461904761912
1304.31,134.62166666666675
1306.44,133.0318095238096
1308.57,134.02619047619058
1310.69,149.98857142857153
1312.82,166.3026666666668
1314.94,203.97185714285726
1317.06,218.7611904761906
1319.18,220.34023809523822
1321.3,200.33138095238107
1323.41,205.07128571428584
1325.53,215.99109523809543
1327.64,271.80809523809546
1329.75,316.1918571428574
1331.87,360.0024285714288
1333.98,363.2428095238097
1336.08,339.0590476190478
1338.19,312.50147619047635
1340.3,300.3344285714287
1342.4,286.89395238095256
1344.5,241.70650000000012
1346.6,193.06038095238102
1348.7,133.76783333333339
1350.8,116.8792380952382
1352.9,136.77737619047628
1354.99,143.4172571428572
1357.09,133.27741904761916
1359.18,149.31207619047626
1361.27,153.85689523809535
1363.36,165.86625714285725
1365.45,181.38959047619056
1367.54,170.85752380952388
1369.62,168.271761904762
1371.7,174.01471428571438
1373.79,207.80228571428586
1375.87,235.3500476190478
1377.95,266.707142857143
1380.03,279.0650000000001
1382.1,271.3772380952382
1384.18,245.0733333333335
1386.25,229.48761904761915
1388.33,209.14479047619056
1390.4,176.33100476190484
1392.47,147.23705714285722
1394.54,129.291980952381
1396.6,88.44816190476193
1398.67,75.99129523809529
1400.74,65.30248095238099
1402.8,47.42903809523814
1404.86,80.75136666666674
1406.92,101.88810476190481
1408.98,81.69569047619053
1411.04,94.31599047619054
1413.09,110.22422857142865
1415.15,113.46694285714295
1417.2,136.3283714285715
1419.25,121.56917619047624
1421.3,92.37827619047626
1423.35,79.51584285714293
1425.4,108.64638095238104
1427.45,122.00627619047626
1429.49,132.11722857142863
1431.54,101.73892380952384
1433.58,83.29751428571433
1435.62,64.69535714285719
1437.66,71.92963333333338
1439.7,79.188280952381
1441.74,104.65873809523815
1443.77,101.8620190476191
1445.81,104.93781904761909
1447.84,84.02604761904766
1449.87,80.4565571428572
1451.9,68.17863333333338
1453.93,69.04590952380958
1455.96,90.91214285714294
1457.98,114.20242857142865
1460.01,136.53248095238106
1462.03,167.99394285714294
1464.05,185.9167523809525
1466.07,178.2972857142858
1468.09,197.17919047619063
1470.11,249.55923809523827
1472.13,280.67180952380966
1474.14,293.656523809524
1476.16,293.22409523809534
1478.17,253.51385714285726
1480.18,220.76028571428586
1482.19,206.72228571428582
1484.2,169.96796190476198
1486.21,132.30364761904767
1488.21,111.2023333333334
1490.22,85.8037285714286
1492.22,54.05725714285717
1494.22,55.674223809523845
1496.22,50.60470666666668
1498.22,31.750667619047636
1500.22,23.014438571428567
1502.22,9.107967619047624
1504.21,-4.828054761904738
1506.21,12.966033333333348
1508.2,34.39329380952384
1510.19,49.356741904761925
1512.18,30.854804761904774
1514.17,37.362252380952405
1516.16,33.06832857142858
1518.14,28.829042857142888
1520.13,38.357742857142874
1522.11,45.46318095238097
1524.09,23.906580952380974
1526.07,36.87790476190479
1528.05,32.5196142857143
1530.03,31.069495238095254
1532.01,23.38457142857144
1533.98,23.65523333333335
1535.96,23.500561904761938
1537.93,43.06355714285718
1539.9,63.106314285714326
1541.87,77.86721904761909
1543.84,78.44187142857149
1545.81,90.21180476190483
1547.78,93.08217142857148
1549.74,86.8630952380953
1551.7,99.65046190476197
1553.67,120.8260095238096
1555.63,141.86671428571438
1557.59,146.39260952380957
1559.55,128.54715238095244
1561.5,100.80780952380958
1563.46,93.17533333333341
1565.41,123.07938095238103
1567.37,141.18787619047623
1569.32,106.31137619047624
1571.27,94.83208571428578
1573.22,102.60838571428579
1575.17,112.30794285714293
1577.11,144.646080952381
1579.06,131.91000952380955
1581.0,105.67221904761912
1582.95,115.79162857142865
1584.89,139.31693333333342
1586.83,148.106561904762
1588.77,165.20935238095248
1590.7,145.76940952380963
1592.64,123.16900952380959
1594.58,108.21909047619056
1596.51,115.82543333333356
1598.44,160.32250476190518
