Raman Shift,Processed Intensity
331.095,-4.9969849999998015
333.909,28.625366190476235
336.721,13.456763333333251
339.531,-20.04798523809525
342.339,-14.862923809523801
345.145,2.1573219047619174
347.949,14.349670476190479
350.751,8.575763333333306
353.55,-11.968536190476204
356.348,-19.895882380952365
359.144,-3.0083604761904645
361.937,-3.1069947619047578
364.729,26.77006047619052
367.518,41.6811614285715
370.306,121.73346523809542
373.091,248.70171000000022
375.874,370.88579333333354
378.656,379.4917619047621
381.435,338.67873333333347
384.212,222.6548952380953
386.988,126.39168095238101
389.761,50.19491904761909
392.532,25.086271428571425
395.301,-11.38728571428572
398.068,-22.86832380952381
400.833,-29.188333333333343
403.596,-25.79645333333335
406.358,-23.71185333333334
409.117,-26.999920952380958
411.874,-9.867500952380944
414.629,-2.0438990476190506
417.382,8.647690476190501
420.133,33.67104380952385
422.882,51.15785809523814
425.629,70.81235523809532
428.374,136.00679809523822
431.117,206.01910952380968
433.858,255.36642380952395
436.597,284.5667904761906
439.334,251.18723809523817
442.069,178.69995238095242
444.802,137.05442857142867
447.533,145.29628571428583
450.262,176.13852380952397
452.989,256.91366666666687
455.714,287.43200000000013
458.438,258.5511238095239
461.159,185.74886190476195
463.878,107.55134285714291
466.595,61.05642380952387
469.31,75.9337714285715
472.024,92.2351476190477
474.735,123.10717142857149
477.444,126.6500476190477
480.152,141.44033333333343
482.857,142.57866666666675
485.561,139.73761904761912
488.262,164.0186476190477
490.962,155.5231238095239
493.659,141.11500000000007
496.355,133.94415238095243
499.048,110.49370476190484
501.74,90.2473714285715
504.43,119.54615238095246
507.118,117.73089523809533
509.804,145.3333238095239
512.488,192.17080952380962
515.17,210.63180952380966
517.85,232.0577333333335
520.528,217.9805190476191
523.204,176.36046666666675
525.878,143.2057952380953
528.551,124.90532857142863
531.221,97.56181428571436
533.89,110.70730952380958
536.556,93.9208047619048
539.221,108.06730000000006
541.883,92.67810476190479
544.544,85.56991428571433
547.203,79.51186666666672
549.86,79.74956190476195
552.515,69.33730000000006
555.168,120.7584476190477
557.819,128.40031904761912
560.469,145.84049523809531
563.116,143.84730000000008
565.761,134.6648857142858
568.405,131.39415714285724
571.047,164.18347619047628
573.687,141.51431904761913
576.324,141.67731428571437
578.96,123.01071428571436
581.594,120.8522000000001
584.227,108.20609047619055
586.857,116.1714476190477
589.485,101.4186095238096
592.112,130.2841904761906
594.737,161.3907000000001
597.359,170.26436666666672
599.98,157.860361904762
602.599,162.37111904761915
605.216,131.46518571428578
607.831,121.81080476190485
610.445,133.64770000000007
613.056,112.88161428571436
615.666,99.13249047619054
618.274,96.06710952380958
620.88,87.4003714285715
623.484,106.03680476190485
626.086,138.02360952380963
628.686,168.45560000000012
631.284,200.8079523809525
633.881,217.07933333333347
636.476,237.69752380952394
639.068,248.47017142857158
641.659,206.72890952380965
644.249,180.5195714285715
646.836,151.41110000000006
649.421,109.82959047619056
652.005,95.34417619047625
654.587,67.18995714285715
657.166,21.887995238095268
659.745,15.530695238095257
662.321,24.543342857142896
664.895,50.06562857142862
667.468,67.80858571428575
670.038,74.38783809523814
672.607,63.08564761904764
675.174,52.89852857142861
677.739,43.77518095238098
680.303,48.56909142857146
682.864,27.562258095238114
685.424,38.131830476190494
687.982,33.65494666666668
690.538,34.36581619047621
693.092,27.593829523809543
695.645,30.049348571428578
698.195,17.0617523809524
700.744,27.3889523809524
703.291,29.59839285714287
705.836,28.733657142857155
708.38,18.028849047619044
710.921,-4.8057390476190465
713.461,-2.583632857142833
715.999,25.691172380952416
718.535,65.3004552380953
721.069,82.14502285714289
723.602,90.79242761904766
726.133,70.00068285714288
728.662,45.146880476190496
731.189,29.56056095238097
733.714,29.66647666666669
736.238,36.2704990476191
738.759,60.08310428571432
741.279,74.91009714285717
743.798,63.98597523809526
746.314,38.1643180952381
748.829,19.393950476190497
751.342,22.528681904761925
753.853,31.850693333333364
756.362,41.78522761904763
758.869,40.614770476190486
761.375,12.336104761904766
763.879,19.04134761904765
766.381,25.870352380952408
768.882,34.62970476190479
771.38,61.792738095238136
773.877,72.40435714285718
776.372,62.604757142857196
778.866,78.15331428571432
781.357,64.80948095238098
783.847,52.14235714285719
786.335,71.76869523809529
788.821,74.25778571428576
791.306,79.89331428571433
793.789,79.7685523809524
796.27,57.3578666666667
798.749,55.32623333333339
801.227,75.38609047619055
803.702,98.34569523809532
806.176,156.82261904761918
808.649,193.6727809523811
811.119,192.2758095238096
813.588,191.91627619047628
816.055,162.64058571428578
818.521,130.1626000000001
820.984,137.48131904761914
823.446,126.88212380952389
825.906,120.12591904761913
828.365,140.45046666666676
830.821,136.52233333333342
833.276,136.72227619047626
835.729,131.47871428571432
838.181,100.22041904761912
840.631,89.42342857142863
843.079,89.088180952381
845.525,84.64379523809528
847.97,72.94773809523812
850.412,69.42932380952384
852.854,42.13690952380954
855.293,35.6904285714286
857.731,41.900439047619074
860.167,39.91092238095239
862.601,11.580297142857154
865.034,34.00519190476193
867.465,32.90142095238098
869.894,42.74677952380956
872.321,53.44786285714288
874.747,45.292223809523826
877.171,32.758052380952435
879.594,66.32349047619053
882.014,98.32432857142864
884.433,104.61997142857149
886.851,126.49840000000009
889.266,118.15270000000007
891.68,110.34733809523816
894.092,98.79911428571434
896.503,103.74914761904768
898.912,74.81911428571435
901.319,83.82119523809529
903.724,77.80635714285721
906.128,107.7771714285715
908.53,129.26073333333343
910.931,146.97444761904768
913.329,142.96900000000005
915.726,131.8665523809524
918.122,102.67058571428578
920.516,98.71726190476195
922.908,88.7244428571429
925.298,74.40961428571434
927.687,76.01423809523814
930.074,92.16047142857148
932.459,80.0899428571429
934.843,73.71070952380956
937.225,65.35942857142861
939.605,44.99181428571432
941.984,52.134970476190524
944.361,52.030156190476205
946.736,52.680769523809566
949.11,55.89957238095241
951.482,46.68979333333336
953.853,39.48317523809528
956.222,58.42571809523812
958.589,33.901485714285734
960.954,46.199247619047654
963.318,54.84581428571432
965.68,56.65367142857147
968.041,60.1971104761905
970.4,52.62183904761905
972.757,30.40677619047621
975.113,17.697482857142866
977.467,11.115540952380966
979.819,21.092036190476204
982.17,19.29604476190477
984.519,18.348902857142882
986.866,32.300440952380974
989.212,41.53373333333337
991.556,70.28886190476197
993.899,106.56758571428578
996.24,122.70506666666672
998.579,121.75066666666673
1000.92,109.18216190476194
1003.25,71.66760952380956
1005.59,55.54163333333337
1007.92,48.66235238095241
1010.25,47.983238095238136
1012.58,63.02920000000005
1014.91,85.22950000000004
1017.24,91.01334285714292
1019.56,101.38131428571434
1021.88,90.80998095238098
1024.2,76.2520571428572
1026.52,77.8032190476191
1028.84,85.89193809523817
1031.16,104.51811428571436
1033.48,110.96744761904768
1035.79,114.90624761904769
1038.1,120.71522380952389
1040.41,133.2035523809525
1042.72,143.70415714285724
1045.03,175.64484761904774
1047.33,176.78690476190485
1049.64,191.12946666666676
1051.94,167.81451428571438
1054.24,134.41245714285722
1056.54,105.92248571428578
1058.84,132.62912380952392
1061.13,144.76889523809535
1063.43,167.3885142857144
1065.72,163.1531428571429
1068.01,137.6330000000001
1070.3,138.0169523809525
1072.59,155.4464761904763
1074.87,150.06242857142865
1077.16,163.29209523809533
1079.44,173.75280952380965
1081.72,181.9188571428573
1084.0,249.59780952380976
1086.28,327.35942857142885
1088.56,412.58266666666697
1090.84,534.9799047619051
1093.11,615.8825714285717
1095.38,619.9550000000003
1097.65,569.0525238095241
1099.92,493.4586190476193
1102.19,405.3617142857145
1104.46,357.4263809523812
1106.72,350.2690952380954
1108.98,354.84033333333355
1111.24,369.5187142857145
1113.5,432.5396666666669
1115.76,463.85380952380973
1118.02,470.5063809523812
1120.28,472.68504761904785
1122.53,450.1977619047621
1124.78,417.232285714286
1127.03,400.26219047619065
1129.28,348.0473809523811
1131.53,277.014142857143
1133.77,223.77890476190484
1136.02,169.91119047619057
1138.26,156.31314285714296
1140.5,175.55366666666677
1142.74,195.725761904762
1144.98,191.11295238095246
1147.22,193.95114285714297
1149.45,199.1426666666668
1151.69,214.92357142857156
1153.92,222.95828571428586
1156.15,209.5302000000001
1158.38,166.01796666666672
1160.61,111.89587619047624
1162.83,74.87585238095242
1165.06,64.33720952380958
1167.28,65.70638095238101
1169.5,72.83837619047624
1171.72,100.39778571428576
1173.94,85.33529047619051
1176.16,69.41097142857149
1178.37,79.718280952381
1180.58,68.77929047619052
1182.8,62.06851428571433
1185.01,69.20317142857144
1187.22,48.13428761904765
1189.42,30.527013809523833
1191.63,33.18936571428573
1193.84,32.40588333333336
1196.04,27.88960571428573
1198.24,31.687017619047634
1200.44,17.463828571428568
1202.64,5.552480000000012
1204.84,1.6189066666666792
1207.03,13.51966857142859
1209.23,31.873386666666693
1211.42,46.3940461904762
1213.61,30.795799523809535
1215.8,27.745282380952386
1217.99,3.337890000000002
1220.18,6.288150952380985
1222.36,29.548908095238115
1224.55,46.16827619047623
1226.73,57.051709523809556
1228.91,61.43805714285716
1231.09,32.42348571428573
1233.27,29.056576190476218
1235.44,36.5765428571429
1237.62,64.88946666666672
1239.79,89.75834761904767
1241.96,103.75610476190481
1244.13,108.40780000000007
1246.3,112.38161904761913
1248.47,127.44104761904771
1250.64,143.0640476190477
1252.8,137.20466666666675
1254.96,139.0074761904763
1257.13,144.18871428571438
1259.29,166.51233333333346
1261.44,201.31328571428583
1263.6,234.11761904761917
1265.76,232.4034285714287
1267.91,233.83938095238108
1270.06,198.04695238095246
1272.22,174.83790476190487
1274.37,164.78561904761915
1276.51,162.41666666666674
1278.66,150.7329523809525
1280.81,174.8323238095239
1282.95,157.57418095238106
1285.09,155.72302857142864
1287.23,145.0432476190477
1289.37,142.25169523809532
1291.51,141.06484761904773
1293.65,167.29494285714293
1295.78,165.65885714285724
1297.92,175.5876380952382
1300.05,157.08405238095244
1302.18,127.67447619047626
1304.31,110.26621428571437
1306.44,110.33821904761913
1308.57,124.41706190476201
1310.69,140.9811238095239
1312.82,166.93805714285722
1314.94,169.24304761904773
1317.06,184.56533333333346
1319.18,214.43128571428582
1321.3,229.653142857143
1323.41,229.09038095238108
1325.53,241.79338095238109
1327.64,262.2885714285716
1329.75,306.435523809524
1331.87,355.1892380952383
1333.98,336.45723809523827
1336.08,316.7182380952383
1338.19,278.9268571428573
1340.3,245.22828571428587
1342.4,223.43461904761918
1344.5,203.738761904762
1346.6,158.52409523809536
1348.7,157.12609523809533
1350.8,154.59438095238104
1352.9,145.74100000000007
1354.99,131.37780952380962
1357.09,126.17361904761913
1359.18,127.08266666666675
1361.27,145.44009523809532
1363.36,141.34342857142866
1365.45,149.08019047619058
1367.54,151.60471428571438
1369.62,155.49028571428585
1371.7,182.59547619047635
1373.79,200.92200000000014
1375.87,230.8050476190478
1377.95,278.3885714285716
1380.03,276.6265238095239
1382.1,269.3777142857144
1384.18,237.73852380952388
1386.25,195.18633333333344
1388.33,169.43638095238103
1390.4,164.20414285714295
1392.47,127.96652857142864
1394.54,112.34378571428576
1396.6,86.95560476190481
1398.67,79.99302380952386
1400.74,64.36127142857147
1402.8,64.34681904761908
1404.86,78.99755238095244
1406.92,84.2184333333334
1408.98,91.15246952380957
1411.04,74.60920285714288
1413.09,48.39816285714288
1415.15,38.090401904761954
1417.2,60.066820000000035
1419.25,67.23168857142862
1421.3,84.39398380952385
1423.35,66.60069523809527
1425.4,71.61290952380958
1427.45,78.19150952380957
1429.49,89.71656666666671
1431.54,69.9964404761905
1433.58,71.02981428571432
1435.62,44.4819785714286
1437.66,46.58948571428575
1439.7,45.874559523809566
1441.74,70.57343333333338
1443.77,66.0176047619048
1445.81,92.91943333333339
1447.84,73.27672380952384
1449.87,84.42078952380957
1451.9,63.58723000000004
1453.93,65.05950761904766
1455.96,64.54937952380958
1457.98,68.62585047619051
1460.01,71.09578238095246
1462.03,118.86145619047626
1464.05,140.9677857142858
1466.07,161.22194285714298
1468.09,187.28777142857155
1470.11,207.16242857142873
1472.13,248.5574761904764
1474.14,278.75561904761923
1476.16,295.0396666666669
1478.17,290.4070952380954
1480.18,256.7600000000001
1482.19,209.61914285714295
1484.2,164.5534428571429
1486.21,109.08370476190481
1488.21,84.68320476190482
1490.22,75.73031904761908
1492.22,62.031817142857165
1494.22,43.77528619047621
1496.22,18.958229523809536
1498.22,17.673175714285748
1500.22,36.82232666666669
1502.22,29.97457619047621
1504.21,30.936916190476207
1506.21,40.326010000000025
1508.2,24.806141904761922
1510.19,30.66070428571431
1512.18,40.03033523809525
1514.17,30.674809523809543
1516.16,21.306295238095263
1518.14,41.589502857142875
1520.13,30.760555238095254
1522.11,35.81761333333337
1524.09,34.663638095238106
1526.07,34.10643523809526
1528.05,21.19196904761906
1530.03,15.156775238095245
1532.01,16.189781428571457
1533.98,35.38479809523812
1535.96,35.2642404761905
1537.93,45.5410285714286
1539.9,51.8806047619048
1541.87,44.138923809523845
1543.84,60.93386666666672
1545.81,77.31200952380956
1547.78,80.70087619047625
1549.74,75.71858571428577
1551.7,94.07847619047627
1553.67,96.20852380952388
1555.63,110.10758571428578
1557.59,111.34664285714291
1559.55,128.92471428571434
1561.5,126.0320476190477
1563.46,144.7155238095239
1565.41,152.4510476190477
1567.37,147.5233333333334
1569.32,131.88485714285724
1571.27,133.86819047619053
1573.22,127.94966666666676
1575.17,140.747761904762
1577.11,153.40528571428578
1579.06,149.8267142857144
1581.0,163.63109523809536
1582.95,164.67561904761914
1584.89,154.6267142857144
1586.83,159.4841904761906
1588.77,150.6770000000001
1590.7,139.72895238095248
1592.64,158.1638761904763
1594.58,160.76799523809527
1596.51,146.63643809523813
1598.44,107.10258809523819
