Raman Shift,Processed Intensity
331.095,72.86842952380962
333.909,48.69908904761909
336.721,16.049730476190504
339.531,-11.789422857142862
342.339,-4.599819047619022
345.145,12.551679619047626
347.949,18.95636247619049
350.751,8.953860190476178
353.55,0.4560365714285668
356.348,-16.14823742857142
359.144,-12.564405142857138
361.937,3.0267867619047912
364.729,28.6836228571429
367.518,56.65600904761912
370.306,128.76590857142872
373.091,231.3606314285716
375.874,340.6928190476193
378.656,398.58771428571447
381.435,380.5862285714287
384.212,278.84939047619054
386.988,159.9676428571429
389.761,63.056947619047634
392.532,15.472033333333336
395.301,-15.335652380952377
398.068,-22.86546666666668
400.833,-39.42514285714288
403.596,-24.368671428571435
406.358,-20.572438095238105
409.117,-22.86378571428572
411.874,-13.830585714285718
414.629,-7.059309523809518
417.382,3.4363952380952725
420.133,35.167933333333366
422.882,53.7908190476191
425.629,99.00948571428583
428.374,166.00573809523823
431.117,237.62890952380968
433.858,309.3012666666669
436.597,308.06500000000017
439.334,254.2962380952382
442.069,180.75357142857152
444.802,144.86285714285725
447.533,156.47890476190491
450.262,200.93447619047632
452.989,235.75295238095256
455.714,257.88690476190493
458.438,233.81383809523822
461.159,202.34510000000012
463.878,160.43543809523817
466.595,122.56406190476197
469.31,108.30580952380959
472.024,94.95037142857149
474.735,104.50204761904769
477.444,109.9659476190477
480.152,105.1570095238096
482.857,125.55715714285724
485.561,131.50563809523817
488.262,158.38985714285727
490.962,172.50209523809534
493.659,184.23038095238107
496.355,165.67700000000008
499.048,144.27852380952388
501.74,107.9465714285715
504.43,119.54619047619055
507.118,113.65676190476199
509.804,148.52414285714298
512.488,195.91833333333346
515.17,216.56214285714293
517.85,212.1774285714287
520.528,192.7249142857144
523.204,153.54634761904768
525.878,109.50674285714292
528.551,86.471480952381
531.221,82.35347619047626
533.89,72.1604190476191
536.556,83.66195238095246
539.221,101.53289047619053
541.883,111.97126666666676
544.544,122.93692857142865
547.203,136.0563333333334
549.86,128.00322857142865
552.515,113.21301428571435
555.168,121.69264761904772
557.819,124.35374761904771
560.469,138.5836476190477
563.116,151.8167761904763
565.761,165.82113333333342
568.405,151.7928095238096
571.047,152.45138095238102
573.687,131.37385714285722
576.324,133.9460476190477
578.96,146.1247142857144
581.594,148.2475571428572
584.227,114.31853333333338
586.857,105.34147142857151
589.485,122.12922857142867
592.112,140.87532857142867
594.737,169.44013333333342
597.359,169.0640333333334
599.98,126.36832857142863
602.599,99.40264285714292
605.216,105.35896666666673
607.831,87.80980952380958
610.445,105.99470000000008
613.056,94.72355238095244
615.666,90.75858095238102
618.274,102.90969523809532
620.88,128.65261904761914
623.484,136.6061095238096
626.086,161.5312761904763
628.686,178.85561904761917
631.284,213.006142857143
633.881,250.7435714285716
636.476,262.82719047619065
639.068,252.54123809523824
641.659,239.5499047619049
644.249,208.27909523809535
646.836,181.72590476190484
649.421,159.55415238095244
652.005,137.9983838095239
654.587,108.29366238095243
657.166,68.2459342857143
659.745,28.80369952380955
662.321,10.820291428571458
664.895,42.149121619047676
667.468,62.88118304761908
670.038,70.25047942857145
672.607,56.96710457142861
675.174,64.88396990476194
677.739,66.23491352380958
680.303,68.11104257142858
682.864,46.174480952380975
685.424,48.27804619047623
687.982,39.56023904761908
690.538,52.683342380952425
693.092,66.59544190476193
695.645,57.816006666666695
698.195,29.388410476190487
700.744,31.1179342857143
703.291,31.524250476190502
705.836,34.603292380952404
708.38,35.82728333333334
710.921,31.47803809523809
713.461,1.2184042857143051
715.999,19.187610476190525
718.535,60.66767571428575
721.069,72.32173714285717
723.602,83.57493333333338
726.133,77.56676380952385
728.662,39.34150666666669
731.189,42.75329904761908
733.714,42.89406476190479
736.238,46.66551333333339
738.759,66.4456066666667
741.279,96.99354190476195
743.798,72.1158090476191
746.314,86.04775142857147
748.829,68.59621952380957
751.342,71.94906000000005
753.853,59.24660571428574
756.362,58.4865761904762
758.869,34.9996747619048
761.375,45.25971714285718
763.879,53.78837761904768
766.381,85.10719904761909
768.882,71.73794285714288
771.38,77.34502857142863
773.877,65.83143809523813
776.372,61.43336190476195
778.866,65.91088095238099
781.357,85.16700000000004
783.847,67.67625714285718
786.335,85.38924285714289
788.821,69.97130476190479
791.306,64.56379047619052
793.789,69.11765714285721
796.27,89.53643333333339
798.749,111.3902476190477
801.227,132.15448571428578
803.702,150.4468952380953
806.176,140.26655238095248
808.649,142.23153333333343
811.119,158.91254285714297
813.588,171.4514380952382
816.055,162.03855238095247
818.521,166.53011428571435
820.984,122.87818095238102
823.446,109.03460000000008
825.906,123.95167619047626
828.365,124.53350476190484
830.821,139.875561904762
833.276,154.21589523809533
835.729,143.36414285714295
838.181,133.12966666666674
840.631,134.1793238095239
843.079,125.41802380952389
845.525,108.37020476190483
847.97,96.3696714285715
850.412,95.89334761904767
852.854,88.37026380952386
855.293,72.08676380952384
857.731,58.18665142857144
860.167,29.09942666666669
862.601,19.635494285714326
865.034,45.74847809523814
867.465,69.82042571428576
869.894,73.28122380952387
872.321,86.6560190476191
874.747,86.23199047619053
877.171,72.05830000000005
879.594,87.61266666666671
882.014,92.32540000000007
884.433,101.29354285714294
886.851,116.80460476190484
889.266,125.90823809523818
891.68,145.41567142857153
894.092,170.04326666666677
896.503,167.5075714285715
898.912,154.9534761904763
901.319,136.19261904761913
903.724,128.7038095238096
906.128,139.34623809523816
908.53,140.64620000000005
910.931,117.51093809523813
913.329,97.60944761904767
915.726,92.75368095238102
918.122,103.13706666666675
920.516,122.57179523809533
922.908,136.82200952380958
925.298,123.7001333333334
927.687,109.06606190476195
930.074,102.16039047619053
932.459,95.79583333333338
934.843,98.21333904761909
937.225,78.7963985714286
939.605,59.310030476190505
941.984,49.04283000000003
944.361,30.80701142857144
946.736,26.27241285714288
949.11,29.63238190476192
951.482,23.03278571428575
953.853,36.809933333333376
956.222,80.34790000000005
958.589,87.07818095238099
960.954,94.0038047619048
963.318,103.84184761904766
965.68,93.45267142857148
968.041,84.41064285714293
970.4,98.24263809523814
972.757,76.23716190476193
975.113,52.58756190476194
977.467,46.58211904761907
979.819,46.033345809523844
982.17,44.848611761904785
984.519,36.125793047619055
986.866,32.295993476190496
989.212,24.171165428571456
991.556,34.75375652380958
993.899,74.6650048571429
996.24,99.57351619047625
998.579,109.48170000000007
1000.92,152.48644761904768
1003.25,140.92295238095244
1005.59,103.0786904761905
1007.92,65.57411428571432
1010.25,48.83894761904767
1012.58,50.77954761904769
1014.91,98.58712857142864
1017.24,114.50074761904767
1019.56,112.14012380952389
1021.88,97.02950000000007
1024.2,121.5502857142858
1026.52,126.46471428571435
1028.84,139.96333333333342
1031.16,148.331761904762
1033.48,143.14147619047628
1035.79,137.48709523809535
1038.1,169.74942857142867
1040.41,198.40409523809535
1042.72,220.450142857143
1045.03,232.74385714285725
1047.33,225.52290476190487
1049.64,199.88114285714295
1051.94,181.76990476190488
1054.24,169.28338095238104
1056.54,154.6580476190477
1058.84,164.74947619047632
1061.13,170.36595238095248
1063.43,172.93433333333343
1065.72,177.07204761904774
1068.01,179.7777142857144
1070.3,196.7157142857144
1072.59,203.59842857142868
1074.87,207.09038095238105
1077.16,182.9515238095239
1079.44,187.94166666666683
1081.72,222.34438095238113
1084.0,273.91904761904783
1086.28,339.8067619047622
1088.56,473.6239523809527
1090.84,575.6541904761908
1093.11,658.7042380952385
1095.38,685.9620000000002
1097.65,618.0440952380956
1099.92,490.4243809523812
1102.19,406.10033333333365
1104.46,354.1645238095241
1106.72,351.8045714285717
1108.98,385.5418095238098
1111.24,437.0403333333336
1113.5,448.53580952380975
1115.76,491.45414285714315
1118.02,507.79257142857176
1120.28,507.02457142857173
1122.53,472.29028571428603
1124.78,437.8729523809527
1127.03,399.91280952380976
1129.28,376.8358095238097
1131.53,341.44890476190494
1133.77,291.32104761904776
1136.02,238.06852380952392
1138.26,201.64147619047634
1140.5,196.27538095238108
1142.74,197.82528571428585
1144.98,224.43147619047636
1147.22,242.90123809523828
1149.45,265.23200000000014
1151.69,265.99300000000017
1153.92,232.2772380952382
1156.15,202.5117142857144
1158.38,165.31338095238104
1160.61,137.15626666666674
1162.83,124.80029047619055
1165.06,128.33865714285724
1167.28,109.76969047619053
1169.5,119.5207333333334
1171.72,122.39966190476198
1173.94,125.69051428571433
1176.16,93.20145238095243
1178.37,96.74040571428576
1180.58,66.1636504761905
1182.8,42.18444428571431
1185.01,26.325626666666675
1187.22,20.586269047619055
1189.42,10.82277142857146
1191.63,33.84384333333336
1193.84,36.88726380952383
1196.04,52.714528571428616
1198.24,67.51585714285719
1200.44,84.05301428571433
1202.64,83.32602380952385
1204.84,82.71596666666669
1207.03,43.604090476190486
1209.23,30.943238095238115
1211.42,24.30544285714287
1213.61,18.119969047619062
1215.8,6.054380952380972
1217.99,20.15731190476192
1220.18,34.09659142857147
1222.36,45.15924380952383
1224.55,54.44193047619049
1226.73,44.51755857142858
1228.91,30.530597142857165
1231.09,23.387517619047646
1233.27,37.56633904761907
1235.44,40.97374761904766
1237.62,67.27832857142863
1239.79,83.95841428571434
1241.96,100.34952380952387
1244.13,91.88244285714289
1246.3,68.98811428571432
1248.47,69.33550476190484
1250.64,123.30805714285725
1252.8,168.09883809523822
1254.96,200.47239523809537
1257.13,212.00246666666678
1259.29,195.69214285714298
1261.44,201.11528571428587
1263.6,234.51300000000015
1265.76,245.65004761904777
1267.91,230.1959047619049
1270.06,203.67733333333342
1272.22,157.430761904762
1274.37,148.07804761904774
1276.51,150.14610476190487
1278.66,146.3046095238096
1280.81,126.27080952380956
1282.95,100.66702380952387
1285.09,80.35342857142864
1287.23,86.52355714285721
1289.37,99.56147619047624
1291.51,91.56551428571431
1293.65,84.06267619047624
1295.78,85.7703190476191
1297.92,105.45348571428579
1300.05,107.87710952380958
1302.18,129.18712380952388
1304.31,116.10094285714293
1306.44,92.14553333333339
1308.57,90.27616190476198
1310.69,115.68627619047626
1312.82,97.04555238095246
1314.94,142.7378380952382
1317.06,173.43285714285724
1319.18,184.84751428571442
1321.3,194.88944761904776
1323.41,207.656542857143
1325.53,191.9608571428573
1327.64,221.56733333333352
1329.75,251.52638095238115
1331.87,289.84009523809544
1333.98,298.89204761904784
1336.08,273.5417142857145
1338.19,269.6484285714287
1340.3,256.4529047619049
1342.4,223.57617142857154
1344.5,187.44860000000008
1346.6,147.59610476190483
1348.7,109.06854285714296
1350.8,121.676961904762
1352.9,136.99464761904767
1354.99,149.9756000000001
1357.09,144.85923809523817
1359.18,136.21857142857152
1361.27,141.62642857142865
1363.36,135.65514285714295
1365.45,144.78200000000015
1367.54,178.7224761904763
1369.62,207.38185714285726
1371.7,224.76114285714297
1373.79,233.00347619047633
1375.87,250.15695238095256
1377.95,255.36471428571443
1380.03,266.00795238095253
1382.1,252.086761904762
1384.18,220.9345238095239
1386.25,174.3600000000001
1388.33,158.600761904762
1390.4,150.3708000000001
1392.47,132.76440000000005
1394.54,114.16174285714293
1396.6,82.79984761904765
1398.67,65.05828571428576
1400.74,56.22108571428576
1402.8,91.33466666666672
1404.86,97.11123809523815
1406.92,105.02513809523815
1408.98,101.55026666666673
1411.04,93.73232857142862
1413.09,92.52115238095244
1415.15,100.5811333333334
1417.2,105.00465714285721
1419.25,108.26532857142865
1421.3,126.3124857142858
1423.35,116.66720000000008
1425.4,128.088361904762
1427.45,124.81100476190483
1429.49,135.06966666666676
1431.54,122.19457619047625
1433.58,138.89647619047628
1435.62,121.88642857142864
1437.66,105.63738095238101
1439.7,79.05056190476193
1441.74,64.36036190476194
1443.77,57.13481904761912
1445.81,89.65566666666672
1447.84,105.82418095238101
1449.87,111.39884285714292
1451.9,101.56630476190482
1453.93,102.22781428571437
1455.96,117.66570476190485
1457.98,145.63794761904774
1460.01,173.1409714285715
1462.03,171.55209523809535
1464.05,185.96304761904773
1466.07,209.27523809523825
1468.09,243.8185714285716
1470.11,284.0657142857144
1472.13,328.0609523809525
1474.14,317.3723333333335
1476.16,311.85419047619064
1478.17,288.07495238095254
1480.18,255.60304761904774
1482.19,232.8163333333335
1484.2,212.5690095238096
1486.21,162.23941428571436
1488.21,134.4918571428572
1490.22,105.51425238095244
1492.22,66.35197142857146
1494.22,55.47889523809528
1496.22,55.845238095238145
1498.22,60.3064952380953
1500.22,85.24203333333338
1502.22,102.17392857142862
1504.21,63.053233333333345
1506.21,53.021523809523856
1508.2,48.553985714285744
1510.19,47.221290476190525
1512.18,52.356152380952416
1514.17,65.57716190476194
1516.16,47.21737619047624
1518.14,70.37191904761909
1520.13,70.85050000000004
1522.11,60.653290476190506
1524.09,51.16166666666669
1526.07,31.185647619047643
1528.05,50.059309523809574
1530.03,73.73575238095243
1532.01,83.40635714285719
1533.98,65.50068571428574
1535.96,51.92460476190478
1537.93,31.63168095238099
1539.9,40.52801428571432
1541.87,56.04346666666671
1543.84,60.13181428571431
1545.81,72.12792380952386
1547.78,79.46187142857148
1549.74,101.08758095238103
1551.7,97.24481904761912
1553.67,125.22090476190485
1555.63,134.39865714285722
1557.59,146.208180952381
1559.55,137.88959523809532
1561.5,131.68285714285722
1563.46,124.01833333333343
1565.41,155.94518095238104
1567.37,147.41791904761908
1569.32,110.0572190476191
1571.27,79.91293809523815
1573.22,76.89188571428579
1575.17,94.99568095238104
1577.11,125.46403809523815
1579.06,127.15638095238101
1581.0,126.35995238095246
1582.95,116.648180952381
1584.89,116.7849333333334
1586.83,93.24797142857147
1588.77,104.27722857142865
1590.7,121.63657142857151
1592.64,140.56529047619054
1594.58,140.18421904761914
1596.51,125.73294047619066
1598.44,96.37967142857171
