Raman Shift,Processed Intensity
331.095,32.75354447619035
333.909,-16.095366714285852
336.721,-32.985382000000136
339.531,-28.62775138095238
342.339,-13.448336000000001
345.145,-3.539212857142861
347.949,1.2468312380952442
350.751,11.819928999999995
353.55,-9.194548476190494
356.348,-26.83678661904763
359.144,-16.812577809523802
361.937,-4.588494285714246
364.729,43.89407428571435
367.518,94.31343238095246
370.306,176.9686895238097
373.091,280.1122000000002
375.874,373.093104761905
378.656,405.1661904761907
381.435,363.11149523809536
384.212,241.0432352380953
386.988,135.83935904761907
389.761,43.47393714285715
392.532,-13.362972380952371
395.301,-33.83755714285715
398.068,-19.209767619047597
400.833,19.357148571428606
403.596,41.17740666666668
406.358,40.328539047619046
409.117,2.4608247619047336
411.874,-28.678861904761902
414.629,-16.19945238095235
417.382,31.791422857142898
420.133,46.377925238095266
422.882,47.788312380952405
425.629,68.156731904762
428.374,113.66631238095249
431.117,202.7391490476192
433.858,291.3220990476192
436.597,299.98225714285724
439.334,262.4304952380954
442.069,201.3309952380953
444.802,134.34908571428582
447.533,132.86476666666678
450.262,146.68732380952395
452.989,214.29342380952397
455.714,248.54178095238106
458.438,238.81551428571439
461.159,189.35560476190483
463.878,141.30819047619053
466.595,82.72470000000007
469.31,84.2759666666667
472.024,52.58611428571433
474.735,76.56501428571434
477.444,98.02823333333342
480.152,132.64840476190483
482.857,141.14652857142866
485.561,158.8626380952382
488.262,170.42301904761916
490.962,174.73975714285726
493.659,168.29718095238104
496.355,153.76921428571433
499.048,113.25950000000006
501.74,93.96654761904769
504.43,118.27981428571435
507.118,114.63647619047626
509.804,133.14040476190485
512.488,175.70453333333342
515.17,189.19499047619058
517.85,200.85847619047632
520.528,200.60842857142865
523.204,163.3108095238096
525.878,139.9743238095239
528.551,105.98827619047624
531.221,94.12307619047628
533.89,110.8154857142858
536.556,113.26426666666676
539.221,122.57279047619055
541.883,109.0350285714286
544.544,72.0394095238096
547.203,84.87948571428579
549.86,116.41974285714295
552.515,136.76246666666674
555.168,184.39099047619058
557.819,173.21671428571437
560.469,172.43652380952392
563.116,169.104761904762
565.761,170.13173333333341
568.405,128.5232095238096
571.047,141.52283809523817
573.687,105.89749523809529
576.324,124.22363809523819
578.96,131.6964095238096
581.594,149.46227619047627
584.227,110.00179047619054
586.857,119.46106666666674
589.485,101.4150095238096
592.112,123.77121904761914
594.737,137.0086571428572
597.359,144.9387047619048
599.98,135.03990476190484
602.599,143.78966666666673
605.216,138.09401904761913
607.831,125.23961428571434
610.445,128.98918095238102
613.056,95.77117142857149
615.666,99.15727619047627
618.274,109.33701904761912
620.88,115.262161904762
623.484,134.6937380952382
626.086,157.15414285714297
628.686,161.49861904761914
631.284,190.58261904761918
633.881,223.78442857142872
636.476,223.62566666666677
639.068,245.81752380952395
641.659,220.2615238095239
644.249,201.09730476190487
646.836,160.51166190476198
649.421,141.73868380952388
652.005,85.39348380952386
654.587,72.4238771428572
657.166,57.96826380952385
659.745,53.64123428571432
662.321,41.77111714285718
664.895,48.352945714285724
667.468,29.143533333333355
670.038,23.804371428571447
672.607,17.758742857142874
675.174,31.858438095238135
677.739,54.47904285714289
680.303,56.13895238095241
682.864,59.40419523809527
685.424,73.17420952380955
687.982,41.39604285714288
690.538,29.73106190476193
693.092,48.55524095238098
695.645,39.48237904761908
698.195,39.364681904761945
700.744,75.76879714285717
703.291,47.83292952380954
705.836,23.409702857142886
708.38,37.16160285714287
710.921,17.65564761904763
713.461,14.26873809523813
715.999,35.330304761904785
718.535,61.645971428571485
721.069,68.73599047619052
723.602,80.78726190476195
726.133,72.41544761904765
728.662,60.712490476190496
731.189,34.675228571428605
733.714,51.63380952380956
736.238,32.728280952380985
738.759,73.62247619047628
741.279,99.69460952380959
743.798,106.94206190476196
746.314,93.74327142857148
748.829,77.81009523809527
751.342,55.47369047619054
753.853,87.49372190476194
756.362,78.53470714285717
758.869,54.30894571428573
761.375,26.814555714285724
763.879,25.383151428571473
766.381,33.91781380952385
768.882,64.03600952380957
771.38,88.35532571428575
773.877,87.58843809523815
776.372,86.30545809523814
778.866,70.02903666666668
781.357,49.710420952381014
783.847,75.49150142857151
786.335,105.6571257142858
788.821,127.72989380952387
791.306,125.80443904761908
793.789,100.4992571428572
796.27,75.09931904761909
798.749,92.74692380952389
801.227,119.6797476190477
803.702,146.897161904762
806.176,155.06551904761915
808.649,175.04201904761914
811.119,178.01704761904773
813.588,183.65704761904775
816.055,183.91438095238104
818.521,176.17019047619056
820.984,159.614761904762
823.446,140.91538095238104
825.906,123.59623809523818
828.365,117.37157142857151
830.821,118.6704761904763
833.276,137.77934285714295
835.729,132.2697714285715
838.181,134.42835238095248
840.631,133.16041904761914
843.079,140.6574095238096
845.525,135.49155238095244
847.97,125.47325714285718
850.412,81.9842047619048
852.854,55.16829047619052
855.293,46.55033333333337
857.731,43.655485714285746
860.167,45.19901428571433
862.601,47.61074761904764
865.034,59.32037142857148
867.465,80.9008571428572
869.894,90.40107142857147
872.321,84.29861428571432
874.747,83.02356190476195
877.171,72.86308571428577
879.594,101.1995333333334
882.014,115.65393809523815
884.433,113.89431428571434
886.851,116.63693809523818
889.266,140.4072666666668
891.68,166.9688523809525
894.092,176.51390000000006
896.503,157.75862857142866
898.912,143.89525238095246
901.319,111.92607619047627
903.724,118.37670952380961
906.128,127.86820000000004
908.53,122.54546666666675
910.931,121.83925714285722
913.329,145.60845714285722
915.726,128.85540000000006
918.122,124.20124285714292
920.516,114.64811428571434
922.908,113.91266190476196
925.298,90.14013333333338
927.687,79.09436190476194
930.074,65.06355238095242
932.459,60.04998571428577
934.843,76.67496761904768
937.225,80.60756285714288
939.605,58.27873523809526
941.984,50.35751809523813
944.361,34.13202571428573
946.736,26.17615333333336
949.11,40.77804380952384
951.482,37.84491428571432
953.853,49.617361904761964
956.222,74.00264285714289
958.589,69.52702857142862
960.954,77.95508571428577
963.318,86.90823333333337
965.68,85.15085238095244
968.041,100.39972380952385
970.4,91.75258857142862
972.757,61.64046238095241
975.113,57.25639714285717
977.467,29.793114761904775
979.819,24.014879047619083
982.17,24.733513809523824
984.519,40.04655238095242
986.866,43.90857238095242
989.212,59.655039047619084
991.556,66.47870476190481
993.899,86.76250952380958
996.24,92.17492380952388
998.579,107.19409047619052
1000.92,109.72658571428578
1003.25,100.0598333333334
1005.59,83.76715161904767
1007.92,49.70715114285716
1010.25,28.833530857142883
1012.58,27.766795523809556
1014.91,42.4605308571429
1017.24,61.10635590476194
1019.56,62.848180190476214
1021.88,72.44874285714292
1024.2,70.76610952380958
1026.52,90.70562380952387
1028.84,105.458580952381
1031.16,117.93022857142864
1033.48,106.54942380952389
1035.79,121.888161904762
1038.1,142.27985714285728
1040.41,184.86752380952396
1042.72,214.9368571428573
1045.03,218.05933333333346
1047.33,200.90142857142868
1049.64,182.55838095238107
1051.94,171.60114285714292
1054.24,167.1247142857144
1056.54,166.12842857142869
1058.84,153.61200000000008
1061.13,164.71800000000007
1063.43,152.96914285714294
1065.72,159.0792380952382
1068.01,146.14261904761912
1070.3,170.58670476190485
1072.59,153.36308571428577
1074.87,144.7566476190477
1077.16,129.28981904761915
1079.44,157.77131428571437
1081.72,167.29527619047633
1084.0,232.3363714285716
1086.28,295.6553333333336
1088.56,402.25076190476216
1090.84,550.1690000000003
1093.11,644.1227619047622
1095.38,666.8249047619051
1097.65,610.4166190476194
1099.92,511.80071428571455
1102.19,410.309285714286
1104.46,375.41676190476215
1106.72,347.35961904761933
1108.98,368.421904761905
1111.24,393.8873333333336
1113.5,418.13476190476223
1115.76,443.5437142857146
1118.02,474.11185714285745
1120.28,489.98071428571455
1122.53,467.4336666666669
1124.78,408.6592380952383
1127.03,358.2744761904764
1129.28,311.039142857143
1131.53,268.2367619047621
1133.77,246.77028571428585
1136.02,212.97085714285726
1138.26,186.26509523809537
1140.5,189.65076190476205
1142.74,199.22076190476204
1144.98,193.6399523809525
1147.22,201.66766666666678
1149.45,204.34966666666676
1151.69,194.92171428571442
1153.92,188.09600000000012
1156.15,170.25128571428579
1158.38,146.43300000000008
1160.61,131.82919047619052
1162.83,126.00926666666672
1165.06,121.5425095238096
1167.28,108.04596761904766
1169.5,66.46978190476194
1171.72,47.57347333333336
1173.94,26.974084761904795
1176.16,39.0028228571429
1178.37,50.03849571428573
1180.58,44.45999142857144
1182.8,25.169973333333342
1185.01,7.3092395238095245
1187.22,5.113921904761925
1189.42,12.058204285714297
1191.63,22.330672857142883
1193.84,31.69136714285716
1196.04,36.56703333333335
1198.24,27.955943809523834
1200.44,41.38026285714288
1202.64,48.02888095238099
1204.84,58.80508876190479
1207.03,49.040793047619054
1209.23,30.591867047619054
1211.42,17.647618380952395
1213.61,13.349834095238107
1215.8,18.030926285714294
1217.99,-2.547963809523819
1220.18,11.23149533333336
1222.36,20.130791238095263
1224.55,41.5781627619048
1226.73,42.24007276190477
1228.91,47.40225809523811
1231.09,16.49344190476192
1233.27,17.751984761904772
1235.44,24.321272380952408
1237.62,29.20184761904764
1239.79,44.775607619047676
1241.96,70.85282190476195
1244.13,81.57737142857147
1246.3,74.85520476190482
1248.47,93.59239047619053
1250.64,101.5046476190477
1252.8,130.11762857142864
1254.96,152.28964285714295
1257.13,159.6416857142858
1259.29,180.69966666666681
1261.44,207.37000000000015
1263.6,227.2265714285716
1265.76,230.46209523809537
1267.91,227.41176190476202
1270.06,185.2685238095239
1272.22,177.93989523809535
1274.37,154.04707619047625
1276.51,122.40253809523814
1278.66,94.86602380952385
1280.81,87.2020952380953
1282.95,69.46108095238102
1285.09,94.59846666666675
1287.23,127.5695095238096
1289.37,134.51975714285723
1291.51,149.97640000000007
1293.65,138.27571904761913
1295.78,118.51588571428579
1297.92,103.50981428571436
1300.05,113.26046666666673
1302.18,107.48526190476196
1304.31,126.56884761904769
1306.44,103.60937619047624
1308.57,89.56236190476196
1310.69,84.66908095238102
1312.82,100.45673333333343
1314.94,137.54775714285728
1317.06,172.8024476190477
1319.18,176.36680952380962
1321.3,179.5299523809525
1323.41,197.77100000000013
1325.53,207.1409523809525
1327.64,236.73828571428587
1329.75,255.56619047619063
1331.87,298.81800000000015
1333.98,314.54461904761916
1336.08,309.27261904761923
1338.19,288.29100000000017
1340.3,262.7930000000001
1342.4,223.87704761904772
1344.5,206.6410000000001
1346.6,175.37314285714294
1348.7,132.98076190476198
1350.8,120.4672380952382
1352.9,126.92976190476199
1354.99,127.84723809523818
1357.09,131.98404761904771
1359.18,142.05659047619056
1361.27,124.44780476190483
1363.36,114.11260952380961
1365.45,119.95743333333341
1367.54,129.22241904761916
1369.62,155.05242380952393
1371.7,190.06820952380963
1373.79,213.74747619047633
1375.87,243.18666666666684
1377.95,269.1965714285716
1380.03,271.3023809523811
1382.1,247.1244761904763
1384.18,209.9970476190477
1386.25,161.7305238095239
1388.33,138.46798095238103
1390.4,118.40049047619051
1392.47,84.8618047619048
1394.54,73.1853952380953
1396.6,55.03810000000002
1398.67,46.13412857142862
1400.74,48.42548095238098
1402.8,59.10201904761909
1404.86,62.020404761904814
1406.92,80.27490000000004
1408.98,78.24566190476195
1411.04,69.88394285714287
1413.09,71.9979571428572
1415.15,83.91956190476196
1417.2,104.31383809523817
1419.25,103.32215714285718
1421.3,86.65692857142861
1423.35,67.64973333333339
1425.4,84.67944285714293
1427.45,85.12469523809531
1429.49,99.41183333333339
1431.54,96.01476190476194
1433.58,83.40699047619054
1435.62,91.11023809523816
1437.66,91.64560000000004
1439.7,89.05786666666673
1441.74,102.67781904761912
1443.77,105.50256666666672
1445.81,100.33861904761909
1447.84,73.18323333333335
1449.87,72.27156190476197
1451.9,66.40993809523815
1453.93,86.45232380952388
1455.96,102.96722380952386
1457.98,98.38004761904767
1460.01,87.83030000000008
1462.03,111.60092380952389
1464.05,119.7837000000001
1466.07,150.56586666666675
1468.09,186.08733333333345
1470.11,209.58300000000014
1472.13,249.95423809523828
1474.14,254.67423809523825
1476.16,253.07295238095253
1478.17,254.81400000000014
1480.18,234.98938095238105
1482.19,197.0248476190477
1484.2,165.25057619047624
1486.21,111.94932380952386
1488.21,82.45152380952386
1490.22,71.99253333333338
1492.22,65.09307619047624
1494.22,63.27447142857146
1496.22,51.62918571428574
1498.22,56.05927142857146
1500.22,61.94331190476192
1502.22,49.61223928571431
1504.21,34.3017919047619
1506.21,8.72402166666666
1508.2,-8.599385238095213
1510.19,22.61513309523813
1512.18,43.27059285714288
1514.17,48.4127842857143
1516.16,37.516221904761906
1518.14,14.769840952380964
1520.13,13.934060952380975
1522.11,15.721873333333342
1524.09,18.08444000000001
1526.07,21.0682860952381
1528.05,18.19623514285715
1530.03,10.610317904761919
1532.01,21.500282000000013
1533.98,22.81791790476193
1535.96,35.943735142857165
1537.93,48.21067657142859
1539.9,45.42800476190477
1541.87,38.97653809523811
1543.84,39.85624285714288
1545.81,39.3052666666667
1547.78,38.46664761904764
1549.74,41.95965238095241
1551.7,47.07035238095243
1553.67,78.08490952380959
1555.63,103.90860476190483
1557.59,112.68493809523815
1559.55,120.89070952380958
1561.5,107.76482380952385
1563.46,108.9748714285715
1565.41,123.28354285714293
1567.37,108.88226190476196
1569.32,87.34352857142864
1571.27,81.76357619047624
1573.22,69.33412857142864
1575.17,83.29453333333339
1577.11,99.50320000000005
1579.06,102.62798571428576
1581.0,95.00354761904765
1582.95,73.82178095238099
1584.89,78.41724285714292
1586.83,86.83929047619054
1588.77,103.61331904761913
1590.7,139.40712857142864
1592.64,140.07963333333342
1594.58,122.15609761904751
1596.51,109.51906904761911
1598.44,118.17011428571446
