Raman Shift,Processed Intensity
331.095,202.10971115454458
333.909,138.15258185200082
336.721,124.51892475666727
339.531,144.87542674032193
342.339,184.24595794210381
345.145,217.91635387839415
347.949,221.17253088602092
350.751,235.82431585117774
353.55,267.9673711764385
356.348,278.6975007001588
359.144,292.25352704444913
361.937,293.77921658218565
364.729,279.70425202308434
367.518,296.36330023786877
370.306,379.8531753205252
373.091,419.4138111743937
375.874,492.0949483839581
378.656,507.5656782295032
381.435,465.25732003509484
384.212,339.98248899275677
386.988,261.55416398664875
389.761,123.88094589342472
392.532,57.30041112070376
395.301,3.4362746693409463
398.068,-42.18254204238701
400.833,-78.1695100212628
403.596,-59.7566629701887
406.358,-65.41362906160293
409.117,-22.133337738123373
411.874,-36.622494733047006
414.629,-57.11111168229718
417.382,-58.304895161712466
420.133,-74.5757348006764
422.882,-57.62838798664052
425.629,3.1185434425970016
428.374,18.818295004761694
431.117,77.91018656083043
433.858,140.21482200599849
436.597,169.3150051731668
439.334,198.50808430785946
442.069,181.0440108288508
444.802,152.74435046974168
447.533,135.43081823005832
450.262,113.16333713588438
452.989,136.85904938144722
455.714,186.2922798516547
458.438,224.76116631130253
461.159,213.84952768951644
463.878,213.09349426896188
466.595,185.88623311314632
469.31,157.66838777943303
472.024,154.83280374633205
474.735,132.3435395550905
477.444,95.7358303322194
480.152,69.78271797870048
482.857,102.39977659727083
485.561,129.83556207312495
488.262,179.76683093937663
490.962,212.67948409829387
493.659,246.7733332040857
496.355,245.00972418854371
499.048,280.73058935812014
501.74,293.0394042529051
504.43,343.658334981797
507.118,378.737766510053
509.804,429.4753547563596
512.488,477.4493644041818
515.17,540.6186733797931
517.85,605.5132535207763
520.528,694.8532226730945
523.204,761.3583729786442
525.878,806.2719848771017
528.551,817.1703553934781
531.221,822.4389930923444
533.89,838.605955889213
536.556,852.0561412428551
539.221,861.0789096809685
541.883,853.249041659164
544.544,849.0457896580483
547.203,823.1862159945922
549.86,813.8632925382685
552.515,812.5078099509942
555.168,838.2169535937369
557.819,893.5638318140727
560.469,916.9308137575695
563.116,922.5095338458254
565.761,888.2532772068935
568.405,827.543650819985
571.047,804.9524927554171
573.687,790.0990195097997
576.324,777.4117352459871
578.96,747.7474838901712
581.594,695.3438345623149
584.227,637.5809908161013
586.857,618.8865570217431
589.485,612.5926857011837
592.112,673.6027486728271
594.737,706.7722939105442
597.359,745.1471452598253
599.98,793.391978344413
602.599,896.9331821872097
605.216,975.0064827359611
607.831,1090.4664711508385
610.445,1174.119941615837
613.056,1194.2497053406414
615.666,1219.6622140862987
618.274,1257.7351836908942
620.88,1238.3699794999898
623.484,1268.0868589399165
626.086,1326.7868807577302
628.686,1415.0376237849814
631.284,1549.406524749099
633.881,1650.0323113228724
636.476,1672.4821494596436
639.068,1669.180219299932
641.659,1599.3124815542424
644.249,1475.1600153144395
646.836,1281.527593960367
649.421,1035.4103563045428
652.005,786.4223824987812
654.587,593.7014604169854
657.166,453.4328996570034
659.745,341.6590598281982
662.321,262.75554550567176
664.895,202.00263927973037
667.468,134.68054432916506
670.038,75.35510318500656
672.607,67.92542125618093
675.174,49.147680831365506
677.739,37.920859842734444
680.303,8.95340301066517
682.864,13.048945574505524
685.424,2.9158504041201923
687.982,16.691031756209213
690.538,-1.8695529554206587
693.092,3.418636532214805
695.645,-20.497925744967233
698.195,-0.1965288672195129
700.744,-9.73058823492238
703.291,4.703703366166337
705.836,-16.280227701466174
708.38,-11.973607064886437
710.921,-6.477059190394357
713.461,-15.272022582295904
715.999,-29.268356687945925
718.535,14.576621964892638
721.069,10.49624492105886
723.602,19.533546299160207
726.133,49.255555387981076
728.662,43.991398766703696
731.189,30.641830996550652
733.714,38.9173367410026
736.238,11.433375743155011
738.759,-11.194372196930999
741.279,-12.49285748297416
743.798,-36.56022526893594
746.314,-11.827714466224279
748.829,1.9403467526426539
751.342,-9.782029733730724
753.853,-13.282492443536285
756.362,-12.229398358724211
758.869,-15.909909591139694
761.375,47.6747657600331
763.879,65.04746485743544
766.381,66.06458834572823
768.882,68.91609476227086
771.38,39.79216161446766
773.877,24.0736559809161
776.372,12.522605112555539
778.866,-0.8606662995184706
781.357,38.8291249532881
783.847,57.97364357916513
786.335,89.71664448228603
788.821,130.9639671734717
791.306,140.90733970467636
793.789,162.21484927013535
796.27,209.1737937599005
798.749,236.54781902765444
801.227,316.6245323490125
803.702,393.8345444512411
806.176,476.5609877334632
808.649,495.7585582963816
811.119,495.28684368629274
813.588,447.8626982581395
816.055,424.2507137766661
818.521,421.5965471604295
820.984,426.9507244162801
823.446,390.7924445738636
825.906,364.5533836201189
828.365,299.61768890997473
830.821,274.5600688151353
833.276,236.6219776109583
835.729,210.42589560143688
838.181,184.78484733941286
840.631,169.32144365631302
843.079,158.22978083474936
845.525,168.89448263825216
847.97,122.50974234101477
850.412,106.26979332905466
852.854,85.94033208233623
855.293,74.14422687117212
857.731,70.36151216692178
860.167,87.11985924316286
862.601,65.6612372530517
865.034,50.18000287811128
867.465,45.346704262736694
869.894,48.403313520127085
872.321,42.59179257155665
874.747,49.963611366593796
877.171,51.42736134142115
879.594,64.89160697238685
882.014,70.50297542480303
884.433,39.97948429698636
886.851,20.848631269054295
889.266,10.209293275534037
891.68,51.20791139225412
894.092,93.13372543717787
896.503,124.371152464018
898.912,123.30454620822638
901.319,148.12771843774863
903.724,161.93917458948954
906.128,187.8373494057755
908.53,176.53965209463013
910.931,178.28722577576582
913.329,162.36875454561414
915.726,142.21569911378492
918.122,134.3546752966754
920.516,149.93126108249862
922.908,146.28142274394304
925.298,144.7410361889224
927.687,137.93159878751976
930.074,126.61736977035616
932.459,121.32441538886587
934.843,138.67393978986593
937.225,141.28704446154597
939.605,137.9752019651819
941.984,156.8354915716027
944.361,172.67916823100222
946.736,153.55546963798452
949.11,144.75161377280574
951.482,110.31660596642769
953.853,100.0136173941446
956.222,88.60569690254124
958.589,91.61767331264582
960.954,73.76472438974588
963.318,42.428564860824736
965.68,15.276491574853026
968.041,28.21376199642009
970.4,38.81216317554754
972.757,56.643344172602156
975.113,50.94548464853324
977.467,8.4804396455811
979.819,-12.371020393916751
982.17,-9.275874370627662
984.519,11.146390356389475
986.866,32.70473185430774
989.212,45.77941130151112
991.556,66.84580418909741
993.899,96.3791671747465
996.24,128.66416684135493
998.579,121.41393226519222
1000.92,100.34148853644047
1003.25,58.635952184488815
1005.59,39.39110755561819
1007.92,4.272078428768509
1010.25,-13.913238463926518
1012.58,-26.357025630891712
1014.91,-8.727729910285234
1017.24,27.30613194479656
1019.56,61.36168871761856
1021.88,52.05600070315063
1024.2,55.291776999108606
1026.52,58.066902320805866
1028.84,77.80777333982041
1031.16,92.7026350226538
1033.48,99.3206312551165
1035.79,85.89752213337056
1038.1,111.00235363593015
1040.41,111.58507967660807
1042.72,139.5479936812767
1045.03,135.0790649265307
1047.33,156.5090844021654
1049.64,142.78785829269964
1051.94,156.62706812555848
1054.24,140.16694044306996
1056.54,140.16672599827052
1058.84,146.2904170459458
1061.13,168.96389320509684
1063.43,160.70825779759616
1065.72,184.33031704399195
1068.01,194.6368687831182
1070.3,202.72041976313494
1072.59,212.2925219801907
1074.87,212.5885375885075
1077.16,207.1295466676113
1079.44,236.24615975147003
1081.72,263.078520833815
1084.0,304.3858341829855
1086.28,350.59398639486767
1088.56,409.4145970172633
1090.84,474.8926406028247
1093.11,541.8826401905624
1095.38,566.1439084064004
1097.65,536.5786457065938
1099.92,485.4224195735178
1102.19,399.62511990194
1104.46,340.27953343290415
1106.72,335.192775330466
1108.98,323.69581599652633
1111.24,351.6911031237544
1113.5,400.55732660566355
1115.76,456.24465963715534
1118.02,516.6557141007877
1120.28,588.2645911911306
1122.53,603.9740272772287
1124.78,588.1630159555305
1127.03,532.2106205790224
1129.28,483.01978678634805
1131.53,434.1602026499829
1133.77,396.3921112053581
1136.02,372.7615515514151
1138.26,345.40988566543797
1140.5,347.6690395036071
1142.74,356.5853155301211
1144.98,377.68130048441435
1147.22,385.3368207674214
1149.45,397.9318025897446
1151.69,400.1796083103043
1153.92,420.2698965845002
1156.15,394.8210063219069
1158.38,361.83234064396765
1160.61,310.9700841750148
1162.83,300.2814917618748
1165.06,269.05203433632187
1167.28,250.32921144420152
1169.5,209.68445901264613
1171.72,168.2607714030139
1173.94,137.0584187019233
1176.16,138.22066401228426
1178.37,106.6051950300407
1180.58,62.64126990663317
1182.8,28.8059107305005
1185.01,-4.614188705702418
1187.22,-6.141707518835574
1189.42,0.46273384146752505
1191.63,10.819623746529942
1193.84,4.501989866886561
1196.04,-0.3931703023695263
1198.24,-12.530600680953967
1200.44,7.2346454719029225
1202.64,7.33339949733022
1204.84,1.7204747436435355
1207.03,-12.553901957442122
1209.23,-26.48694378192181
1211.42,-43.64710960925413
1213.61,-25.697911021978143
1215.8,-10.874103045165839
1217.99,14.684977589798336
1220.18,47.935404804931295
1222.36,87.64294011583547
1224.55,86.66873964355614
1226.73,86.4931563645348
1228.91,85.35858997961395
1231.09,84.17424154494006
1233.27,65.08753476953666
1235.44,68.00791826525301
1237.62,82.0354297014735
1239.79,118.55592662649292
1241.96,158.09822205080354
1244.13,205.762648601808
1246.3,263.1258131547254
1248.47,344.2882086063489
1250.64,489.35039707738474
1252.8,610.9844312100283
1254.96,767.8147992750619
1257.13,897.7993702789558
1259.29,1061.8484343090668
1261.44,1203.443742878831
1263.6,1321.3051683205813
1265.76,1312.5335536545454
1267.91,1304.7535624578522
1270.06,1218.2565287335342
1272.22,1125.8099734461944
1274.37,1027.0385496291092
1276.51,909.8526065389401
1278.66,792.638658572363
1280.81,702.0212827541245
1282.95,600.4345400346238
1285.09,539.8362537303551
1287.23,500.517526059587
1289.37,482.95987372566196
1291.51,509.8352206431541
1293.65,520.0058906640284
1295.78,518.0007907799895
1297.92,526.6820705153068
1300.05,492.7689241767753
1302.18,490.7423454846298
1304.31,468.27369172726685
1306.44,416.7484860112095
1308.57,440.4092671301132
1310.69,444.4508203861574
1312.82,476.3535036495332
1314.94,535.7880019893578
1317.06,560.5200823045961
1319.18,539.3629670025912
1321.3,557.7963743442706
1323.41,552.5855587893407
1325.53,563.5908275319593
1327.64,569.9580094173657
1329.75,593.5946381442272
1331.87,589.1223259431749
1333.98,571.7338991601091
1336.08,535.2886290775964
1338.19,468.1693674981707
1340.3,387.94920613716613
1342.4,308.05813601554837
1344.5,249.021135424176
1346.6,169.79149598330514
1348.7,113.60795822589807
1350.8,77.8518471809266
1352.9,48.95182700429814
1354.99,31.38389370501227
1357.09,55.81422501417819
1359.18,44.67060663483835
1361.27,41.38052837907708
1363.36,60.60928591103311
1365.45,77.06951558766377
1367.54,93.99740016806436
1369.62,109.53363642754493
1371.7,119.96154562884794
1373.79,123.80232685051715
1375.87,176.29126269621474
1377.95,184.90154405165822
1380.03,174.58238055584707
1382.1,141.5685396437184
1384.18,115.47559987450495
1386.25,92.58568045057473
1388.33,73.5141231172297
1390.4,1.7809359672583014
1392.47,-32.046334183080035
1394.54,-55.97163417997422
1396.6,-54.80848435149892
1398.67,-28.084728428231756
1400.74,-2.2330038692216476
1402.8,19.69497230396678
1404.86,28.028400391133346
1406.92,14.620251807202749
1408.98,-1.4384465363987147
1411.04,-14.199563097398368
1413.09,13.380236553074383
1415.15,80.53473069357733
1417.2,126.73576187310209
1419.25,187.16943013590367
1421.3,213.6408576748929
1423.35,216.66942967551586
1425.4,223.7745113501078
1427.45,216.9516411627185
1429.49,204.86300976823168
1431.54,220.78984371339038
1433.58,207.48955104258107
1435.62,187.95762880837947
1437.66,177.09433248686082
1439.7,149.70467872623976
1441.74,115.49844809551314
1443.77,108.56637830928389
1445.81,105.66588126211514
1447.84,89.4591410152641
1449.87,116.27502130723019
1451.9,143.01383020715184
1453.93,154.00446572059013
1455.96,168.86156139530635
1457.98,211.58072716513766
1460.01,227.4909330510102
1462.03,307.58784524290354
1464.05,405.6290669437212
1466.07,553.8484268322138
1468.09,727.3369341925645
1470.11,925.9951626154038
1472.13,1102.2951575083468
1474.14,1340.1852007493799
1476.16,1571.7088610545447
1478.17,1784.766901488463
1480.18,1912.1172822129813
1482.19,1917.2323060929366
1484.2,1782.5367166828896
1486.21,1581.407700975755
1488.21,1339.8415588181092
1490.22,1080.6918008969214
1492.22,817.5739133929485
1494.22,586.5320273960338
1496.22,425.6579692727971
1498.22,300.7103110343128
1500.22,234.82865879903397
1502.22,192.67651268428335
1504.21,125.67936479298737
1506.21,75.5961305337346
1508.2,54.852484702743595
1510.19,28.207530899157746
1512.18,14.896661416537654
1514.17,0.7267980867291044
1516.16,-14.828366876269456
1518.14,-24.818842818984194
1520.13,-29.627860136225536
1522.11,-16.162343667777805
1524.09,-3.233864862675773
1526.07,0.29849820815366
1528.05,15.575775366629841
1530.03,5.1676708943691665
1532.01,8.643987272633467
1533.98,8.71747749370661
1535.96,23.958126464098996
1537.93,-3.5401857726944854
1539.9,-1.4930199396787884
1541.87,5.09842942729847
1543.84,13.471140575246864
1545.81,33.81454716962935
1547.78,66.12767858371512
1549.74,86.2191573307864
1551.7,118.80243459157987
1553.67,149.82912097982353
1555.63,155.06041254586717
1557.59,166.82899297078438
1559.55,185.0866500461998
1561.5,214.73760643981996
1563.46,229.6861361752599
1565.41,228.6937049213841
1567.37,227.23611028165647
1569.32,229.12252684538976
1571.27,215.59074171519046
1573.22,167.11667574868625
1575.17,137.36676194310894
1577.11,108.1027047722614
1579.06,95.56242999967594
1581.0,96.79341544415297
1582.95,122.65268841197053
1584.89,113.94968027194795
1586.83,138.25574769717423
1588.77,144.09464628769638
1590.7,111.99014705034688
1592.64,85.75174811666352
1594.58,80.49848169890083
1596.51,65.42081628414144
1598.44,25.685415971251587
