Raman Shift,Processed Intensity
331.095,62.39067329564159
333.909,127.4681556680116
336.721,144.59681460759202
339.531,141.94332301544546
342.339,160.7457948328447
345.145,211.14712460903365
347.949,260.29023183086383
350.751,279.93711477624856
353.55,296.46885674856776
356.348,303.8856323110849
359.144,346.9971897118371
361.937,371.1847618799379
364.729,383.1629774219118
367.518,378.26558114181717
370.306,400.5882974185338
373.091,478.2745507258928
375.874,554.4678528194963
378.656,597.6451423044759
381.435,548.9025051556318
384.212,411.76470476139184
386.988,283.75661672966544
389.761,181.73656845560618
392.532,82.94396440365608
395.301,45.09453043721442
398.068,-10.524441851690426
400.833,-28.673136527015686
403.596,-0.11158802665522671
406.358,-7.028247453338281
409.117,-29.46855205263728
411.874,-50.66825660756149
414.629,-76.14867036854366
417.382,-38.7166593847287
420.133,8.773439939905984
422.882,45.94361102550283
425.629,58.654037524181604
428.374,97.90784190544628
431.117,193.04154339048955
433.858,295.20123657848217
436.597,355.3902085870527
439.334,394.0879847641886
442.069,377.34556487633745
444.802,379.78542120126576
447.533,384.125306144731
450.262,386.3211074761957
452.989,376.85256070740206
455.714,418.3422948042735
458.438,446.7939255178853
461.159,462.8777677630301
463.878,410.2641670444191
466.595,385.24254516859173
469.31,329.8166364320182
472.024,326.46639047587223
474.735,351.7670179979532
477.444,356.2461317027082
480.152,363.3837443940979
482.857,369.7551242113186
485.561,351.79269748357046
488.262,382.02414206101685
490.962,430.59619493145783
493.659,474.7984598370149
496.355,529.1110244146212
499.048,526.1092201936603
501.74,569.9874302126541
504.43,631.0352775883225
507.118,684.7804807513157
509.804,777.3698039200499
512.488,867.5214361459607
515.17,929.1440370254331
517.85,1048.1462586021944
520.528,1140.198648222096
523.204,1177.4003132926555
525.878,1224.6598717568731
528.551,1250.1716406622863
531.221,1223.3203961586005
533.89,1229.0147049239013
536.556,1278.1631127337123
539.221,1276.2455711252983
541.883,1255.4562926333997
544.544,1238.1799393592933
547.203,1208.7059067779614
549.86,1199.228321830973
552.515,1251.7031838765442
555.168,1253.848362782438
557.819,1234.8102636855515
560.469,1227.4019203229204
563.116,1217.6268026484408
565.761,1234.9645292114851
568.405,1253.7518176307653
571.047,1252.4205779253293
573.687,1237.0217201312744
576.324,1178.4632476327492
578.96,1095.938826683443
581.594,1037.4515940232955
584.227,1014.1474883047467
586.857,1007.6485815189799
589.485,1011.1483151840671
592.112,1021.8876889140743
594.737,1037.8219251786345
597.359,1112.525229300622
599.98,1210.6193589776344
602.599,1313.8212414225254
605.216,1376.4667809801194
607.831,1451.7965715058267
610.445,1514.4797039823675
613.056,1615.8994788983878
615.666,1644.6772138651672
618.274,1694.8150988523807
620.88,1699.5057180905342
623.484,1701.0844291162452
626.086,1764.5531703889737
628.686,1851.9137927172555
631.284,1925.310914494477
633.881,2046.5557293155807
636.476,2100.4117183557087
639.068,2079.880362748827
641.659,2019.72495120445
644.249,1843.1848638148404
646.836,1628.4517606241097
649.421,1412.5743416258915
652.005,1152.220249618154
654.587,929.8665444865928
657.166,713.7997012975352
659.745,526.2584655337105
662.321,398.4338511871638
664.895,326.32628170931093
667.468,290.88844524671276
670.038,284.64434035303066
672.607,226.02260741528062
675.174,195.11843150865388
677.739,168.45544525133846
680.303,125.08096499267322
682.864,122.51836985845011
685.424,128.100433177166
687.982,102.7788443824561
690.538,93.83849282029814
693.092,85.23079917525274
695.645,60.287999277670224
698.195,80.48504695850352
700.744,73.6777073803205
703.291,39.483513747683446
705.836,6.615104969917866
708.38,-15.453103342795202
710.921,-20.484910415554168
713.461,14.04148841964161
715.999,26.457318648873297
718.535,25.807993489869204
721.069,33.615025155359945
723.602,27.876034055262608
726.133,14.06476061027115
728.662,11.321553255933395
731.189,7.9771897800569604
733.714,-1.161395155739683
736.238,20.522237695355216
738.759,32.02547591922075
741.279,22.86952764737589
743.798,11.480389001635558
746.314,-6.953997985039223
748.829,-39.48373030482935
751.342,-20.53978605420525
753.853,-15.124486256603177
756.362,-29.525770456282316
758.869,-23.17433155433355
761.375,-10.595990257733774
763.879,10.112117895379015
766.381,38.47201982837214
768.882,26.291572694977276
771.38,5.902560219573843
773.877,-7.125020486337235
776.372,-35.22105306004096
778.866,-19.148634118755126
781.357,18.091165937799815
783.847,39.06882424705918
786.335,45.831124898515554
788.821,46.663061205751546
791.306,45.27830940705235
793.789,109.48589284220543
796.27,183.7616080340722
798.749,249.10516505586384
801.227,310.04018504128453
803.702,370.70943578990546
806.176,454.54149594397313
808.649,522.6793239271224
811.119,542.5516840259379
813.588,535.7779058048632
816.055,523.644072092527
818.521,456.7220641109311
820.984,413.15527327129166
823.446,335.3252653508425
825.906,307.18511133629727
828.365,290.16414683873654
830.821,281.977493413252
833.276,227.38796083098168
835.729,190.44413982732067
838.181,150.38516151680597
840.631,151.16450442704445
843.079,152.1642777231218
845.525,150.05236157486252
847.97,123.8776427621865
850.412,92.83191694712878
852.854,69.39274332681407
855.293,50.41868023880397
857.731,62.95880648073853
860.167,67.49081405854076
862.601,51.39719617272067
865.034,57.393816157058154
867.465,62.148952607758474
869.894,81.80710641737505
872.321,97.6080459039681
874.747,94.7439471783664
877.171,60.64510593999694
879.594,49.74183974891503
882.014,25.845437916879746
884.433,17.291016160336312
886.851,26.08037125339024
889.266,48.215311871264475
891.68,64.12622752898824
894.092,102.71970513913493
896.503,138.4261455695655
898.912,149.5330944868765
901.319,184.04238272365728
903.724,172.76536188384443
906.128,160.51337804331615
908.53,138.9549121171508
910.931,119.90129165546114
913.329,129.4971645439914
915.726,141.74430603804967
918.122,151.45399722500724
920.516,166.05654634394477
922.908,139.41081010529933
925.298,105.47085786765683
927.687,112.7145405764436
930.074,115.47682160739168
932.459,147.66405999093877
934.843,170.0397222080719
937.225,163.1767606528283
939.605,143.6480873328942
941.984,119.02657137972801
944.361,119.40884608248825
946.736,124.9867349695869
949.11,137.28534455689805
951.482,162.40115709597194
953.853,148.859170941294
956.222,130.7081361556343
958.589,131.04436154396308
960.954,112.48790263975116
963.318,124.08732111982863
965.68,137.89111088592654
968.041,106.75721938430252
970.4,89.73399749679993
972.757,72.48876847952761
975.113,55.307825472967124
977.467,52.85833377398785
979.819,40.61689977452443
982.17,32.25052085264724
984.519,38.47372573980965
986.866,21.572381554774438
989.212,19.641786551821042
991.556,35.72952477371746
993.899,32.5973705306028
996.24,50.38795679983559
998.579,61.19620553059485
1000.92,31.926472234203175
1003.25,8.483023907783718
1005.59,28.436707434107575
1007.92,32.739237029062224
1010.25,61.62795876564883
1012.58,79.24490081225895
1014.91,65.25582367095444
1017.24,55.99307993955449
1019.56,60.88418835943594
1021.88,51.308979291909736
1024.2,58.59959733745404
1026.52,71.75478966923151
1028.84,101.3446705570841
1031.16,122.36786684390358
1033.48,138.96580627915546
1035.79,145.99414870953387
1038.1,153.64183631724222
1040.41,164.47871528684232
1042.72,176.69363366257653
1045.03,152.47539634854343
1047.33,133.6318153469731
1049.64,142.58971237745754
1051.94,132.20444530569853
1054.24,137.90276790559028
1056.54,144.58759438321067
1058.84,159.25704961509223
1061.13,166.81399557697068
1063.43,169.5898434868202
1065.72,138.8207469002707
1068.01,132.45712813936075
1070.3,160.4970142450975
1072.59,192.1765157871523
1074.87,213.5888771021357
1077.16,229.54162176996465
1079.44,247.12798380451613
1081.72,267.72691027285805
1084.0,294.05068296209515
1086.28,331.33539718907696
1088.56,367.96001203867945
1090.84,451.3034958401827
1093.11,536.6495906912683
1095.38,574.7582436486812
1097.65,547.6275141093615
1099.92,477.4459573820616
1102.19,390.3069130208571
1104.46,361.01803125389756
1106.72,377.3869898883422
1108.98,411.8405445486376
1111.24,421.28167415288203
1113.5,426.8514882939521
1115.76,443.07208700158185
1118.02,475.0846585996853
1120.28,531.2685299446177
1122.53,573.3840261872583
1124.78,556.8581876779454
1127.03,512.5466773475976
1129.28,441.20997380312906
1131.53,377.9419453752321
1133.77,333.88413845187733
1136.02,313.6067324784847
1138.26,282.0133044818972
1140.5,263.245593594351
1142.74,281.6835036726857
1144.98,337.23082020326
1147.22,388.60092720687544
1149.45,441.74538128655695
1151.69,435.0443904372314
1153.92,393.8782452363653
1156.15,356.62732146316466
1158.38,344.33874938445047
1160.61,343.01213065957677
1162.83,333.02811238820914
1165.06,313.95791353906134
1167.28,279.61094661671405
1169.5,251.79672504273026
1171.72,236.18200863200173
1173.94,220.48128240242727
1176.16,158.74247347983533
1178.37,121.5374299076584
1180.58,84.9143042185226
1182.8,64.44517510107039
1185.01,46.79747859059694
1187.22,24.495915450165512
1189.42,-0.7918319244693066
1191.63,-13.25509688565262
1193.84,-11.083083057479143
1196.04,-5.22676655839814
1198.24,-4.446513893064321
1200.44,-22.12160576135193
1202.64,-23.631189978136035
1204.84,-16.497139614818025
1207.03,-4.193580204564114
1209.23,11.948342376269466
1211.42,16.21664462879903
1213.61,18.94706866368233
1215.8,34.23736093293223
1217.99,52.566314504899765
1220.18,90.31757515461891
1222.36,116.73201888272979
1224.55,146.0982246724925
1226.73,146.03818534202924
1228.91,131.41206601562294
1231.09,97.5562959283377
1233.27,78.14070784969954
1235.44,72.31139179308207
1237.62,106.35735824890503
1239.79,159.18672522735847
1241.96,225.94576244398172
1244.13,264.3046021719192
1246.3,310.69533104654715
1248.47,378.8834152034392
1250.64,511.6343635115677
1252.8,669.9042003303207
1254.96,894.6489858855671
1257.13,1102.5867175980952
1259.29,1322.0068504596802
1261.44,1497.0083888377053
1263.6,1654.4998830417046
1265.76,1679.2470449375148
1267.91,1623.5870302280941
1270.06,1518.9998635914976
1272.22,1410.1560542950247
1274.37,1229.9165927617635
1276.51,1097.9043757085615
1278.66,971.3137265220889
1280.81,820.9103918253859
1282.95,775.222014234881
1285.09,750.3952717840807
1287.23,685.814922109158
1289.37,655.0561799678844
1291.51,632.8370947585599
1293.65,606.6852137532246
1295.78,606.3661500927769
1297.92,609.8835793535227
1300.05,606.8125694470518
1302.18,612.5852914725065
1304.31,606.6814924736091
1306.44,592.3427777194934
1308.57,568.8107025093536
1310.69,564.9934354056522
1312.82,580.9419452768593
1314.94,632.8976169116145
1317.06,656.1017713947995
1319.18,704.2718531502842
1321.3,723.4585693646245
1323.41,741.4744579821918
1325.53,760.0843604622078
1327.64,761.5292278691081
1329.75,767.6689745819522
1331.87,769.5539034324156
1333.98,725.377083223721
1336.08,695.4267262495791
1338.19,644.9909467655066
1340.3,548.1196623172887
1342.4,446.7198284027713
1344.5,329.98400646699383
1346.6,236.19988427826547
1348.7,213.8931296375813
1350.8,191.73214884994195
1352.9,154.28998805281753
1354.99,140.09194883032296
1357.09,118.80606097025748
1359.18,102.71926950685247
1361.27,128.35647890636983
1363.36,119.86150201461396
1365.45,120.66372329014712
1367.54,152.0019048946533
1369.62,165.2575165928247
1371.7,168.1928275570117
1373.79,188.56995055282277
1375.87,169.2460766009185
1377.95,177.17347154357776
1380.03,171.1137583255445
1382.1,179.6379135605912
1384.18,151.1738831457028
1386.25,118.86372168477328
1388.33,68.08739857898036
1390.4,44.08184221239026
1392.47,27.32188889947065
1394.54,15.615517546892306
1396.6,-0.18186351634130915
1398.67,-19.54836488020942
1400.74,-7.343229349784906
1402.8,25.09793569040926
1404.86,74.53459026515884
1406.92,78.67840724243024
1408.98,67.14565850951203
1411.04,43.36198210154021
1413.09,67.80048266335757
1415.15,117.83887953041699
1417.2,189.9023690954018
1419.25,236.98743955579152
1421.3,247.75711423286543
1423.35,263.6361948907031
1425.4,311.81126695994953
1427.45,319.3735619044303
1429.49,310.69991482586715
1431.54,279.40515064002443
1433.58,236.72304168142273
1435.62,202.7444081651979
1437.66,186.8456948394453
1439.7,164.54611906612809
1441.74,132.9362474734187
1443.77,97.05895356041924
1445.81,100.09989911140588
1447.84,122.38753941959999
1449.87,149.86931898712737
1451.9,169.9688196059342
1453.93,191.44290843870112
1455.96,208.42936229023576
1457.98,268.87544425981105
1460.01,331.15695658399204
1462.03,410.5544363365957
1464.05,513.3960177953231
1466.07,653.6764852845781
1468.09,827.9620403040033
1470.11,1065.8188781808176
1472.13,1319.813193293586
1474.14,1590.1302319150357
1476.16,1864.5742974358197
1478.17,2071.425898445423
1480.18,2204.917944432127
1482.19,2216.997655768677
1484.2,2116.7551403646166
1486.21,1915.0900655567307
1488.21,1636.1878538089918
1490.22,1292.3768307934788
1492.22,1009.0329925189008
1494.22,736.6752486495982
1496.22,525.0130467769261
1498.22,376.47018716683056
1500.22,266.13720893598975
1502.22,162.19996670415208
1504.21,113.98725486551416
1506.21,66.16128900295962
1508.2,19.622473016584536
1510.19,2.509404347459167
1512.18,14.008403010912616
1514.17,15.496373963154156
1516.16,6.493193528709753
1518.14,-3.623999410236138
1520.13,-10.049369367357485
1522.11,7.689716460961108
1524.09,21.637455207490348
1526.07,8.50485050043676
1528.05,-18.758854894092337
1530.03,-30.109032143906234
1532.01,-28.83423370827518
1533.98,-1.4609531459157097
1535.96,3.6273261063320206
1537.93,-0.9527306779746141
1539.9,15.987114640432537
1541.87,36.873335317082365
1543.84,45.703968544901954
1545.81,71.33432522773387
1547.78,77.90555689671191
1549.74,71.03512738853738
1551.7,110.24537976185479
1553.67,142.8682936898174
1555.63,187.52167142408075
1557.59,242.8234189968905
1559.55,260.3915417088904
1561.5,267.7489015216868
1563.46,292.3232125456557
1565.41,279.20894128964756
1567.37,261.2625402440276
1569.32,241.626252892288
1571.27,199.2042996750356
1573.22,162.47239728731847
1575.17,162.38251607118445
1577.11,149.69620883681614
1579.06,131.98460635033166
1581.0,138.58079377396575
1582.95,123.81790139196323
1584.89,108.8862429555245
1586.83,110.6904540277485
1588.77,88.89710651904988
1590.7,68.55375179400903
1592.64,69.32701139726305
1594.58,51.76447730321229
1596.51,40.81851692762848
1598.44,45.155792424974834
