Raman Shift,Processed Intensity
331.095,57.855002037335
333.909,168.082840754465
336.721,210.31047269384544
339.531,221.37123696021808
342.339,266.76515086781
345.145,331.0160585688691
347.949,346.6954463488846
350.751,329.5653055408434
353.55,318.0067097252145
356.348,315.4960109775411
359.144,389.6524646874773
361.937,420.09537818734225
364.729,453.1584022378088
367.518,451.8895367993364
370.306,492.5749463273819
373.091,583.3103941152594
375.874,650.8107718750807
378.656,635.0767721758466
381.435,614.2044180243902
384.212,462.5279257796733
386.988,338.4768537813379
389.761,251.43325097827255
392.532,148.01737698575653
395.301,89.8972316664017
398.068,34.55046566349165
400.833,-17.97370906568449
403.596,-30.102132526013065
406.358,-45.30911948455923
409.117,-30.116455645021688
411.874,5.525650379724084
414.629,-7.285247477651865
417.382,-11.880031805314502
420.133,-6.970410635278313
422.882,-0.220354843714631
425.629,80.70627252778377
428.374,192.28856228404948
431.117,257.19616696563617
433.858,314.19406018068594
436.597,369.9996768891874
439.334,390.37814892532924
442.069,414.6184929008
444.802,409.20027429857737
447.533,360.17455728099594
450.262,386.97342592638734
452.989,418.9337911800003
455.714,450.1545311382556
458.438,462.16315514251846
461.159,430.58246787287953
463.878,389.1781858228842
466.595,413.0970299647379
469.31,430.9143422240527
472.024,447.4912257641063
474.735,432.40311384152756
477.444,404.5111958048292
480.152,399.6767002358033
482.857,393.856130471866
485.561,421.95840489031434
488.262,464.8924733830654
490.962,503.995886212349
493.659,576.5586009616322
496.355,641.0134561532118
499.048,633.317121056275
501.74,632.3310454949715
504.43,656.3928858469512
507.118,709.4117405657139
509.804,788.1062428458067
512.488,910.5759866213557
515.17,1045.063428755086
517.85,1121.5253150368549
520.528,1224.5850585631433
523.204,1320.6755943070193
525.878,1348.8489003547838
528.551,1395.1569477140247
531.221,1427.9850310740594
533.89,1366.7660519473243
536.556,1363.599563715538
539.221,1365.6803404853713
541.883,1340.1555173727115
544.544,1347.3150641202565
547.203,1360.8298777627178
549.86,1364.0374943396587
552.515,1383.1801815607078
555.168,1421.1668409945878
557.819,1417.144434067664
560.469,1413.3551223481768
563.116,1418.183884020977
565.761,1417.6347017908288
568.405,1419.1877031666568
571.047,1401.2277293172315
573.687,1358.5205229744747
576.324,1260.7365353843757
578.96,1208.1175904007682
581.594,1193.2387866743325
584.227,1232.7703998416155
586.857,1206.9540704283268
589.485,1230.4123250859743
592.112,1251.2914311618351
594.737,1277.6423465070225
597.359,1324.4683359512155
599.98,1390.2011592059544
602.599,1423.7010682917485
605.216,1515.1139478223286
607.831,1661.7284552889137
610.445,1779.0236375349332
613.056,1847.0022615164753
615.666,1885.667002205595
618.274,1912.306154303145
620.88,1927.9698201420829
623.484,1945.3746690193448
626.086,2026.713458432494
628.686,2092.9407457925463
631.284,2202.0586001368024
633.881,2335.87850431788
636.476,2374.545161954634
639.068,2390.346018668801
641.659,2322.1874499882992
644.249,2143.8804730600577
646.836,1914.2836012199805
649.421,1630.8266509438736
652.005,1293.6535964173981
654.587,1018.4320907727151
657.166,783.1629873250972
659.745,614.8470036667063
662.321,494.9609095698852
664.895,410.9337148904556
667.468,317.8133336614942
670.038,237.5999148537794
672.607,200.15060170766355
675.174,189.41762439828244
677.739,170.54353555790476
680.303,173.48025532209112
682.864,139.89383066156734
685.424,131.73586138076553
687.982,115.43397373540802
690.538,123.36800833581628
693.092,150.48906519305956
695.645,182.36713177014235
698.195,167.5244253188971
700.744,119.4830209311749
703.291,60.574384351920344
705.836,5.2250952684489675
708.38,-16.233619876478315
710.921,6.291270166751019
713.461,11.321283907815996
715.999,16.18739338644309
718.535,38.696705417875364
721.069,26.513429762022497
723.602,36.301753740438926
726.133,51.2972882818749
728.662,32.449942539242784
731.189,24.281084220878256
733.714,2.121652302757866
736.238,-61.2687778783411
738.759,-62.178167626912
741.279,-54.27533074793064
743.798,-28.657541891142955
746.314,-10.088627888360406
748.829,7.905792282341281
751.342,-15.437884848518479
753.853,-4.978391967922107
756.362,12.47326429355644
758.869,7.629991968994091
761.375,3.9667071242602105
763.879,-0.13681086807582687
766.381,-20.34830215007787
768.882,-8.383028247400489
771.38,20.472416537947993
773.877,-7.2113253127809
776.372,9.041242643591431
778.866,0.8485641813149414
781.357,18.257742822476303
783.847,59.935016158519375
786.335,87.2609920765376
788.821,75.66398022365638
791.306,116.42951394760712
793.789,171.50987223730726
796.27,234.85741118725264
798.749,307.1388478428494
801.227,367.6876392838508
803.702,429.4563617077906
806.176,486.8738514181732
808.649,561.6071077174383
811.119,566.7993862761041
813.588,559.4511496447699
816.055,527.8962558613571
818.521,478.2305280107298
820.984,419.16889521288203
823.446,410.9025336111272
825.906,353.6226740269585
828.365,331.66345723395034
830.821,295.40669399357284
833.276,245.71043461481668
835.729,227.57563375190284
838.181,223.43186282105034
840.631,195.94683194105164
843.079,200.83591187384673
845.525,170.43356072701
847.97,150.7409411324229
850.412,137.33068028209436
852.854,119.63258234493469
855.293,95.55267421685858
857.731,92.13987031851866
860.167,57.87168501208362
862.601,63.36851644658964
865.034,56.584120879473176
867.465,52.90084890287244
869.894,50.32011976516105
872.321,36.510038549628916
874.747,30.18634668649429
877.171,26.39813436968052
879.594,29.480219640254745
882.014,37.624575088917936
884.433,45.11842122515873
886.851,35.43946270355673
889.266,54.9225531215111
891.68,41.75969315030625
894.092,75.52383818998533
896.503,112.31175364326555
898.912,117.50591780850573
901.319,139.10785334410093
903.724,148.50003016144365
906.128,124.73157784170098
908.53,135.23256948115522
910.931,161.62354363178247
913.329,143.8583595751611
915.726,139.7956240249464
918.122,117.055832115062
920.516,95.97374648312825
922.908,97.02696683008935
925.298,125.07402328935723
927.687,130.3067555102425
930.074,158.53602507470896
932.459,182.23933267603252
934.843,209.513197202235
937.225,204.16839196236197
939.605,199.9680380556283
941.984,190.7228405977039
944.361,161.19584875651935
946.736,131.5786443595057
949.11,125.77705431035338
951.482,78.88733919625338
953.853,68.57714379989511
956.222,97.18073332574704
958.589,104.8418486739688
960.954,100.08513314288348
963.318,106.673273417171
965.68,77.70223579414733
968.041,100.6488833624312
970.4,144.56145032346922
972.757,162.8690639321103
975.113,156.4293616752734
977.467,109.71896559347852
979.819,42.45252803093808
982.17,17.39225357613259
984.519,6.0621829071442335
986.866,8.938667113187421
989.212,54.73608011137003
991.556,67.59729357907736
993.899,83.56986706921816
996.24,74.27271431594272
998.579,71.08657906417648
1000.92,58.34451089914273
1003.25,56.2366267901848
1005.59,29.000586920286423
1007.92,30.63588003940913
1010.25,23.522870722586504
1012.58,45.851370437549576
1014.91,47.763494326632554
1017.24,50.40127989344455
1019.56,6.192400927631297
1021.88,10.75492904868588
1024.2,16.611619059283385
1026.52,56.904194933522376
1028.84,98.25049403995217
1031.16,144.83970826790983
1033.48,136.38476801099296
1035.79,131.12234519815684
1038.1,122.81285632481604
1040.41,133.93094167441632
1042.72,171.9511826352482
1045.03,190.30048568392112
1047.33,178.40570446408242
1049.64,148.97935710322758
1051.94,124.21010543427428
1054.24,117.76275802665896
1056.54,129.8735113126711
1058.84,144.159476428076
1061.13,161.57106319558784
1063.43,183.8681736321646
1065.72,207.28687164677012
1068.01,240.1108146429035
1070.3,221.0522089306446
1072.59,209.58514609109034
1074.87,205.04084410268797
1077.16,190.2743170390047
1079.44,220.09294952839787
1081.72,252.9707854993976
1084.0,253.85805502132575
1086.28,307.27641543062873
1088.56,373.2713353143556
1090.84,450.07876420792763
1093.11,552.6965641976594
1095.38,594.3607034280465
1097.65,597.7833543709578
1099.92,562.5338492376861
1102.19,477.7529687243343
1104.46,410.0100879000481
1106.72,382.0174649524047
1108.98,407.535006123268
1111.24,446.3226496922673
1113.5,483.3784642459898
1115.76,530.1767469471697
1118.02,549.9061218038812
1120.28,564.9457331768258
1122.53,587.4366773818551
1124.78,567.2343866734489
1127.03,527.6229179901006
1129.28,479.5054321758846
1131.53,439.45181605917537
1133.77,381.07963786469145
1136.02,342.2446264350722
1138.26,334.8025790238644
1140.5,335.7522214694752
1142.74,361.5209255119696
1144.98,430.25042610987134
1147.22,455.8920625664907
1149.45,462.3972577514826
1151.69,464.76514017955924
1153.92,463.18540418442626
1156.15,424.18117009272237
1158.38,402.65660630272305
1160.61,376.18264660113687
1162.83,348.6160408132216
1165.06,338.1469768814893
1167.28,338.1562267539182
1169.5,288.6913398912259
1171.72,262.7523605836625
1173.94,227.57754526781287
1176.16,187.26241317671975
1178.37,133.37879699001542
1180.58,112.02246491261508
1182.8,78.00359989627464
1185.01,84.22775505161894
1187.22,63.838713822078034
1189.42,19.028016824496717
1191.63,-34.44122559597713
1193.84,-35.28194938242609
1196.04,-38.49265562768096
1198.24,-21.024076203855202
1200.44,7.601775624431639
1202.64,33.95826442369503
1204.84,52.57126565484282
1207.03,55.01439477741201
1209.23,49.90900166333881
1211.42,20.257498344060195
1213.61,60.20525818619126
1215.8,81.32632459101342
1217.99,105.33769325777212
1220.18,131.90883254221012
1222.36,153.0426323865354
1224.55,168.17063896367472
1226.73,208.58162265486249
1228.91,170.04062221769823
1231.09,134.21751276373675
1233.27,124.35366897416407
1235.44,107.73815212499971
1237.62,175.04103996944673
1239.79,212.07532804881134
1241.96,248.13025957486116
1244.13,314.01894102646133
1246.3,428.3640529843133
1248.47,547.0740371561619
1250.64,714.0573786401012
1252.8,861.5559358069211
1254.96,1063.8592225634147
1257.13,1287.9234525204379
1259.29,1534.4191545895437
1261.44,1717.4930742938964
1263.6,1826.5776941268127
1265.76,1883.438849148386
1267.91,1858.3661997249787
1270.06,1777.9827518877555
1272.22,1647.1972348340746
1274.37,1461.0136212860202
1276.51,1299.912076420368
1278.66,1167.8489544175968
1280.81,1010.9710807251859
1282.95,895.1871771780498
1285.09,831.1678585475497
1287.23,766.2027719476414
1289.37,780.105355288646
1291.51,783.5937862072019
1293.65,783.1957405200278
1295.78,801.8674363919731
1297.92,818.6602975516798
1300.05,760.9590450786823
1302.18,744.6721701428783
1304.31,707.9938353154366
1306.44,713.9276806416005
1308.57,740.5725344754046
1310.69,770.3605052667658
1312.82,751.533168586669
1314.94,792.332039866646
1317.06,834.4271423763421
1319.18,854.8693847249015
1321.3,855.7096050290147
1323.41,868.5223769857316
1325.53,846.5488635643205
1327.64,863.601575460033
1329.75,867.2548438335848
1331.87,848.9876740030213
1333.98,828.2789800879559
1336.08,781.6075815585787
1338.19,709.5474378798963
1340.3,644.0057402988355
1342.4,545.3657655361058
1344.5,447.10591995424966
1346.6,346.8949742018867
1348.7,248.40158357224618
1350.8,191.484760742645
1352.9,179.717681847304
1354.99,147.53054016920032
1357.09,152.5438760223974
1359.18,159.99714472961296
1361.27,146.27252269501332
1363.36,148.32347538178374
1365.45,149.150944337302
1367.54,114.04143898023494
1369.62,136.3289379114285
1371.7,174.49012355813784
1373.79,178.23961681825813
1375.87,219.14902122836656
1377.95,232.98025284604591
1380.03,223.92363203697914
1382.1,205.88359430965465
1384.18,180.71678210245273
1386.25,122.70823180882917
1388.33,138.3808941358243
1390.4,131.78134493878224
1392.47,109.19406748463734
1394.54,64.6176394771096
1396.6,23.050443891423583
1398.67,-34.17600114335255
1400.74,-20.158943995483014
1402.8,1.3851299365219347
1404.86,15.88240439333481
1406.92,50.377921719098595
1408.98,84.34510581690597
1411.04,107.78100113527921
1413.09,133.1110405767315
1415.15,153.0938134063324
1417.2,184.34488077932065
1419.25,241.86059126871032
1421.3,299.68475353576764
1423.35,370.0514994766613
1425.4,391.09957594055413
1427.45,388.7294935905454
1429.49,383.98448528842346
1431.54,322.00289305084516
1433.58,264.3038883388458
1435.62,222.54938282354829
1437.66,191.02022486615192
1439.7,189.47334837887752
1441.74,229.4274931144805
1443.77,216.92511543196156
1445.81,211.77048953846315
1447.84,190.00590396927078
1449.87,183.05452473447917
1451.9,181.52992513232084
1453.93,229.66466318154608
1455.96,278.35790667284596
1457.98,344.93734393456157
1460.01,442.3496660269741
1462.03,518.9224775080174
1464.05,641.8404929132766
1466.07,814.8122094264625
1468.09,1001.6413414546396
1470.11,1260.9887313939362
1472.13,1540.896165157145
1474.14,1825.691140082291
1476.16,2127.082109031665
1478.17,2412.3013435384837
1480.18,2561.4858921916484
1482.19,2602.344253306213
1484.2,2486.965904736702
1486.21,2232.7260717856925
1488.21,1845.714304636177
1490.22,1466.9725795934733
1492.22,1097.2572098509297
1494.22,806.2293276842058
1496.22,625.4548904550759
1498.22,471.3570675676185
1500.22,345.9781512339209
1502.22,237.17003866836944
1504.21,179.92757142478035
1506.21,135.43616044782812
1508.2,111.35750636256557
1510.19,93.97246262108638
1512.18,76.22866055394707
1514.17,31.026229659685896
1516.16,41.836851227678835
1518.14,20.132335770511418
1520.13,6.622724265879469
1522.11,6.922960827059114
1524.09,-8.63757748376679
1526.07,-2.34840798504365
1528.05,-1.5941268482331452
1530.03,-28.140118266293257
1532.01,-35.75159719334806
1533.98,-22.288842721786978
1535.96,-7.088148760168451
1537.93,40.51436425063525
1539.9,51.27798288055919
1541.87,54.00977638411905
1543.84,69.85030570752292
1545.81,67.27361821006457
1547.78,86.94438524266297
1549.74,120.24170639306794
1551.7,139.78291373106026
1553.67,162.2330903393738
1555.63,192.87649360651176
1557.59,197.6641689957571
1559.55,218.8329923856097
1561.5,247.3342362197434
1563.46,279.59546899029624
1565.41,302.6157880544913
1567.37,317.0134334036436
1569.32,292.64483000359314
1571.27,269.4141063256134
1573.22,224.32070811541507
1575.17,209.50701216214588
1577.11,198.6392734007295
1579.06,176.19333391895702
1581.0,152.45461767887855
1582.95,168.42288714294455
1584.89,152.24080942396563
1586.83,126.71776053031158
1588.77,116.32982008730096
1590.7,84.02928986811571
1592.64,73.33992661042862
1594.58,87.69027007112823
1596.51,88.2707806048511
1598.44,52.91478626631556
