Raman Shift,Processed Intensity
331.095,85.14801346681725
333.909,83.03227494275507
336.721,103.56646195592202
339.531,135.08391635025782
342.339,149.7751398480359
345.145,185.94970732238198
347.949,198.9410372126249
350.751,228.51116193966664
353.55,285.5174030832477
356.348,346.2457132258887
359.144,364.886874939677
361.937,390.4412712016383
364.729,396.14746533290963
367.518,430.8631618903137
370.306,468.77950089125943
373.091,538.1353520386406
375.874,569.2173232314663
378.656,563.1216738373842
381.435,525.7067041556979
384.212,388.5927639279853
386.988,266.40035608682047
389.761,150.5120500282933
392.532,59.35820440835914
395.301,-26.24969101321176
398.068,-26.547578290773345
400.833,-46.77120373455955
403.596,-25.537064624244977
406.358,-30.41383504607211
409.117,-33.5890353466807
411.874,-47.96427594124452
414.629,-22.250504715090756
417.382,12.031979592850803
420.133,31.267793581751448
422.882,60.07978026349792
425.629,78.28136914987363
428.374,127.20989225297353
431.117,182.0122875124257
433.858,266.1689057088315
436.597,318.77922213910597
439.334,343.9427863870578
442.069,347.902076855878
444.802,348.5663076815931
447.533,336.51142612269086
450.262,395.9801099497513
452.989,451.92938388269204
455.714,486.4115693613421
458.438,525.0980914588845
461.159,484.4699524619555
463.878,415.1986816412241
466.595,357.7177612124474
469.31,317.9369094403819
472.024,319.76588755222474
474.735,388.16211617486215
477.444,450.2259108197359
480.152,485.7242887962784
482.857,478.4242999348762
485.561,473.9501668336429
488.262,508.40232986708634
490.962,533.786016004306
493.659,561.8683790557557
496.355,573.6070684914343
499.048,590.3883220686025
501.74,635.503153697593
504.43,712.0044936885806
507.118,731.3262337602482
509.804,830.5689387151206
512.488,951.3569866863259
515.17,1075.3147570034048
517.85,1189.542818058117
520.528,1268.1417342178634
523.204,1313.7834917867235
525.878,1405.3305440141207
528.551,1473.5024751511087
531.221,1490.44742641142
533.89,1501.55161717061
536.556,1513.0107709271024
539.221,1501.3063031680017
541.883,1465.3481759015644
544.544,1420.379656951584
547.203,1373.6439840136768
549.86,1368.9081715687012
552.515,1450.796341605705
555.168,1503.7897210115389
557.819,1549.1314008652253
560.469,1591.493000494247
563.116,1575.546093435581
565.761,1515.6764905395898
568.405,1497.4604278358383
571.047,1434.1407543988798
573.687,1422.5793106902515
576.324,1412.0188307099752
578.96,1363.368653671876
581.594,1300.4904356789025
584.227,1249.3410042555734
586.857,1200.5437843090126
589.485,1198.2935574233097
592.112,1233.4040782967454
594.737,1318.1175959409206
597.359,1401.4858034513122
599.98,1519.0841211111751
602.599,1622.2021699716147
605.216,1694.129483526915
607.831,1803.6793146279479
610.445,1910.3791090622467
613.056,1950.518121991247
615.666,2014.0521772446432
618.274,2060.413188519522
620.88,2113.5091567699656
623.484,2168.6289295014208
626.086,2251.0612457793613
628.686,2309.6185431427016
631.284,2423.636954993396
633.881,2561.881069890807
636.476,2635.782024179398
639.068,2585.151785092626
641.659,2444.08791004729
644.249,2210.2116392712283
646.836,1933.1440836691027
649.421,1667.3157460215184
652.005,1370.7284231365293
654.587,1124.6694889535106
657.166,904.4737966946541
659.745,731.1903429212343
662.321,565.3917887327198
664.895,434.69826668017777
667.468,330.96785434634876
670.038,274.344190782866
672.607,237.49456913795348
675.174,208.84802928412364
677.739,188.54773616015018
680.303,160.54621525591347
682.864,146.6529690496186
685.424,147.29637915930425
687.982,148.8094180181556
690.538,142.47726531171656
693.092,171.44206727225583
695.645,161.65531502074737
698.195,137.87784195647419
700.744,90.10839257519638
703.291,40.5836198587549
705.836,25.301892188484544
708.38,39.35662406814845
710.921,40.93627791924882
713.461,46.99103534946971
715.999,13.137567826428949
718.535,9.135240183166388
721.069,20.07660459601766
723.602,45.53027693520562
726.133,53.16000457575092
728.662,62.20087914754595
731.189,64.60221595210123
733.714,35.64662385546808
736.238,11.47383708593361
738.759,-10.871643444480014
741.279,-45.91671834232238
743.798,-27.331096030259687
746.314,-20.403462067044984
748.829,-22.565272583398382
751.342,-26.247883911674307
753.853,-35.45397001080801
756.362,-44.471799325533084
758.869,-18.875228595273256
761.375,-21.380843164180078
763.879,34.199659985180915
766.381,-1.3738631827914105
768.882,5.706184638157538
771.38,12.437997157696827
773.877,18.534171931422406
776.372,42.08837494622412
778.866,66.90867187232061
781.357,38.89847836291756
783.847,54.10417702052837
786.335,81.04844864901588
788.821,99.15884160086125
791.306,120.76776969587218
793.789,132.3506053779829
796.27,185.52567763396019
798.749,276.3876032454432
801.227,387.6977608981256
803.702,474.26524148140925
806.176,550.9468460071039
808.649,577.4089882900257
811.119,610.6991214381296
813.588,630.3885929140647
816.055,641.1440710253055
818.521,624.0608761761869
820.984,586.5677406913705
823.446,511.141092448825
825.906,432.8288623223375
828.365,389.2504821002144
830.821,332.596882403986
833.276,317.725728702344
835.729,287.58999065840953
838.181,249.5236543341498
840.631,222.28933915669722
843.079,218.69734345609913
845.525,162.51040428877513
847.97,160.82464773716583
850.412,138.5457773046137
852.854,130.62716707216168
855.293,145.87938342676034
857.731,153.5892305990228
860.167,148.09117715334241
862.601,117.43402057326739
865.034,94.38088518019367
867.465,89.17112481397044
869.894,90.13936837065103
872.321,107.28694629262145
874.747,95.66284086825453
877.171,67.64939843632465
879.594,57.58137492376272
882.014,53.03164805007327
884.433,52.954072388900386
886.851,73.01681062006355
889.266,77.22137906731041
891.68,110.80740752178644
894.092,138.8240657321653
896.503,148.5110137043025
898.912,155.20316152469923
901.319,170.71161966016007
903.724,173.32369687649953
906.128,181.66004101439194
908.53,200.10320833665264
910.931,195.41670906598893
913.329,188.50691006561465
915.726,189.4706518055732
918.122,176.97619866239847
920.516,167.6441892187686
922.908,178.1428722774549
925.298,181.47381906574492
927.687,163.11477829700425
930.074,184.54348361319353
932.459,179.76146102738676
934.843,176.38926493771396
937.225,173.33314271273002
939.605,173.1659849910793
941.984,156.27018074305124
944.361,184.07571042738482
946.736,183.15538200520768
949.11,179.27244790636405
951.482,167.90441247192666
953.853,155.19541082528667
956.222,125.14668298134211
958.589,112.80704795568317
960.954,101.89194930234635
963.318,104.92631017538315
965.68,109.6731026761413
968.041,134.51429815292613
970.4,131.9746746435194
972.757,129.0075290795985
975.113,125.23277044353699
977.467,100.17501292520637
979.819,52.263573840674326
982.17,37.165804884242334
984.519,4.882328142383358
986.866,10.413700679108842
989.212,37.998507692771454
991.556,70.16097999216845
993.899,82.04432683420328
996.24,92.02978304725093
998.579,65.68898948786045
1000.92,47.403040164111644
1003.25,38.36248173993636
1005.59,39.043503515616976
1007.92,54.35079407495596
1010.25,62.6175407895912
1012.58,35.98638170425602
1014.91,28.314166945860052
1017.24,36.88624394208591
1019.56,47.27359978283903
1021.88,56.99953024233946
1024.2,84.39678499168485
1026.52,73.89328423999132
1028.84,97.96450204219536
1031.16,124.41918294019615
1033.48,123.97077288970468
1035.79,112.14218352043463
1038.1,126.78960401533823
1040.41,133.7215510850824
1042.72,159.7464903710934
1045.03,148.81569594384928
1047.33,111.78515742020909
1049.64,97.22510612837004
1051.94,108.89620793949234
1054.24,144.27337514693681
1056.54,173.68862596455938
1058.84,160.18822973928354
1061.13,154.77080454462794
1063.43,153.05398620279448
1065.72,171.46490683057482
1068.01,199.00210195668706
1070.3,234.6164652581615
1072.59,216.73506043958423
1074.87,195.73731406471734
1077.16,197.19311315003256
1079.44,199.95804561537875
1081.72,228.07816454417775
1084.0,264.7423714912429
1086.28,293.23479979058834
1088.56,342.0300550061006
1090.84,445.36464585839826
1093.11,532.3798437231246
1095.38,569.3121611768647
1097.65,551.207640066867
1099.92,474.96947291410015
1102.19,403.21514812582586
1104.46,356.94311901770084
1106.72,352.3899490263516
1108.98,368.12555216004057
1111.24,411.3865286874204
1113.5,434.69521511201924
1115.76,485.38349605147096
1118.02,532.5928065929452
1120.28,582.7503251247654
1122.53,578.7594518823093
1124.78,558.1902874939155
1127.03,498.4224924791665
1129.28,421.8357657947902
1131.53,391.0479424281766
1133.77,366.34356718138656
1136.02,341.91199226467506
1138.26,345.2759510804874
1140.5,330.3391796265073
1142.74,333.2911807558439
1144.98,387.9881789134065
1147.22,423.76264630085757
1149.45,435.2804480891798
1151.69,411.2551304883948
1153.92,374.01935167441843
1156.15,362.9534555730693
1158.38,359.7711885012161
1160.61,384.8054158079244
1162.83,376.62717184893654
1165.06,350.85518615162414
1167.28,339.82255243708096
1169.5,308.6243500231674
1171.72,235.54621760849568
1173.94,194.30245086592936
1176.16,120.13124289322923
1178.37,69.60421037798619
1180.58,56.8644911911224
1182.8,50.055318170869896
1185.01,26.939069097216134
1187.22,26.087745237789022
1189.42,7.978211798497796
1191.63,11.849343136083007
1193.84,-0.7265463150472442
1196.04,-20.08179409107356
1198.24,-41.12005194327844
1200.44,-37.36390054158187
1202.64,6.997533556719873
1204.84,33.72762271628676
1207.03,58.35175480346766
1209.23,73.44304099182818
1211.42,62.19374126223693
1213.61,59.986689902952094
1215.8,78.34767339066161
1217.99,60.707332081046616
1220.18,55.68687142315571
1222.36,89.57424936425468
1224.55,109.41941137373078
1226.73,147.3676207050862
1228.91,150.27850294365453
1231.09,123.63080484002785
1233.27,87.14143885777094
1235.44,105.8607181973266
1237.62,137.1723537246835
1239.79,181.22202232861582
1241.96,248.15545908744662
1244.13,294.5946446739117
1246.3,400.25684990287573
1248.47,577.7641564695309
1250.64,760.5958348304471
1252.8,950.3740554179599
1254.96,1203.7686474736065
1257.13,1405.2113816910837
1259.29,1637.419776668734
1261.44,1860.539952981073
1263.6,2008.2894872503275
1265.76,2042.4812185989222
1267.91,2021.166102721012
1270.06,1892.4903516683048
1272.22,1715.552573635876
1274.37,1550.8799603670436
1276.51,1393.9997126534768
1278.66,1204.3437991686396
1280.81,1072.6775248250474
1282.95,971.6709562743763
1285.09,876.137014074242
1287.23,829.1267077121179
1289.37,822.1196087244953
1291.51,821.2619428636522
1293.65,853.6523013120504
1295.78,867.5797328491108
1297.92,847.9046931608473
1300.05,803.6304703399765
1302.18,762.5698484812692
1304.31,747.5831998483359
1306.44,777.1022913261281
1308.57,785.796948016296
1310.69,818.0988596896932
1312.82,834.7730062864998
1314.94,832.9176548449118
1317.06,864.9167373822206
1319.18,907.9160382996979
1321.3,932.7279532160537
1323.41,951.2124382770908
1325.53,981.610340417742
1327.64,976.5910133383904
1329.75,972.6332668145265
1331.87,980.596792196879
1333.98,928.7697783877334
1336.08,845.7736706744013
1338.19,761.8488819436307
1340.3,637.3309800865059
1342.4,523.6506849271404
1344.5,445.6671984847212
1346.6,363.7158209498202
1348.7,295.1317571369095
1350.8,253.67868484163182
1352.9,244.92970415045465
1354.99,229.2673343693732
1357.09,193.69303476213236
1359.18,186.30339195511579
1361.27,131.1472597231891
1363.36,103.36861306125411
1365.45,128.92083082723684
1367.54,153.61431171839695
1369.62,174.02123310478873
1371.7,202.142214624625
1373.79,205.64441035107302
1375.87,205.48055333999764
1377.95,229.98419065389817
1380.03,224.67920410012448
1382.1,208.94647382624044
1384.18,180.30958953443314
1386.25,156.76818074354833
1388.33,132.75029467016793
1390.4,90.25525030016888
1392.47,70.32982579361078
1394.54,41.16349350867495
1396.6,7.040797882748393
1398.67,-5.991980972205056
1400.74,-0.5553975639081727
1402.8,-9.60350577698
1404.86,22.338047121553245
1406.92,26.076783557930412
1408.98,42.75339573837118
1411.04,73.12746235267196
1413.09,126.86316796390906
1415.15,200.71978430289323
1417.2,254.2183420388178
1419.25,297.0702073118109
1421.3,353.9389915988163
1423.35,396.8691282461439
1425.4,451.3334966210698
1427.45,455.2810462634336
1429.49,410.1844210372492
1431.54,340.7066309013435
1433.58,301.41534272762533
1435.62,286.11621873839886
1437.66,286.0433978008218
1439.7,241.95473862612607
1441.74,206.41753915931076
1443.77,168.90377977836147
1445.81,173.12346173155674
1447.84,206.83413605097417
1449.87,231.60281341836549
1451.9,242.90120736436688
1453.93,271.43907270581167
1455.96,305.30706779255297
1457.98,339.26247389715263
1460.01,421.30062889028136
1462.03,516.369218058976
1464.05,640.1778030201372
1466.07,828.5311601578394
1468.09,1058.710238108261
1470.11,1325.757877149364
1472.13,1641.9073857334467
1474.14,1969.058736067304
1476.16,2275.8261882638253
1478.17,2549.2049621126425
1480.18,2711.9998136126733
1482.19,2751.967897218965
1484.2,2608.53305666095
1486.21,2354.738210998817
1488.21,1993.6263121084298
1490.22,1641.335587880556
1492.22,1286.3376425629376
1494.22,963.5803190071306
1496.22,681.6781799629675
1498.22,447.19822746825
1500.22,278.46943176226
1502.22,205.7732125802156
1504.21,169.77201568582677
1506.21,140.31884178480277
1508.2,132.60010877169248
1510.19,76.27851397673317
1512.18,37.4454202222239
1514.17,23.144670450318927
1516.16,-0.05597860155012313
1518.14,-7.921994153834703
1520.13,2.2574615286462176
1522.11,-14.330463759309396
1524.09,-0.16516500792045008
1526.07,14.226471924852149
1528.05,-3.9204030598793906
1530.03,-7.560982453532688
1532.01,-15.745560244045691
1533.98,-36.47667236837924
1535.96,-2.8043331740884696
1537.93,13.983488386474164
1539.9,30.598960007414462
1541.87,43.42104842575918
1543.84,63.78122943697235
1545.81,62.153959815225335
1547.78,79.82333970986383
1549.74,83.74025123234833
1551.7,99.85568751938672
1553.67,141.0731294151135
1555.63,188.86758881993637
1557.59,246.47608061081064
1559.55,272.0404755138984
1561.5,296.94082916769776
1563.46,286.70013975760526
1565.41,279.36529612666936
1567.37,265.3165973149107
1569.32,273.12489114626874
1571.27,259.1229985298244
1573.22,246.02475680865155
1575.17,210.73453929913853
1577.11,200.87106054459468
1579.06,163.91022918790532
1581.0,149.5660960822804
1582.95,131.6479928781912
1584.89,127.15576584840187
1586.83,135.8988192368131
1588.77,150.44849194063386
1590.7,123.85233895446709
1592.64,119.91984138582507
1594.58,96.88906885159486
1596.51,70.045722826889
1598.44,42.723132374838315
