Raman Shift,Processed Intensity
331.095,163.22514370534782
333.909,183.47147182040953
336.721,218.63150509425805
339.531,258.20525984478036
342.339,289.3356421684907
345.145,298.5703690203436
347.949,318.1000797697102
350.751,300.49644775636534
353.55,266.9979108940961
356.348,246.50968798860504
359.144,244.74665219826147
361.937,265.8047759234246
364.729,320.58971855291657
367.518,361.4358904009705
370.306,393.82075473941495
373.091,455.12674887748926
375.874,527.8793957178532
378.656,557.0330343602013
381.435,491.8279792763192
384.212,367.88577472322277
386.988,215.54254439440047
389.761,94.42043630914577
392.532,22.38002008285048
395.301,1.472684197293347
398.068,-23.345061967157562
400.833,-6.7353813374370475
403.596,-5.883854734631768
406.358,-22.547085991834592
409.117,-70.48126013230831
411.874,-82.53736880929227
414.629,-91.75643807409233
417.382,-55.27428763493481
420.133,-49.46439449624813
422.882,-32.890290706921405
425.629,-25.9722528155512
428.374,29.20314618171051
431.117,90.97824328932302
433.858,177.74329872339513
436.597,195.46027396796035
439.334,220.5675622121962
442.069,204.9799568828921
444.802,215.61242970071726
447.533,204.14200397459217
450.262,230.96010408652091
452.989,234.83919069072772
455.714,265.98034829374274
458.438,270.4418252154446
461.159,244.90090688342434
463.878,181.03483674640438
466.595,153.04459433050624
469.31,96.65486377170646
472.024,76.1140023482908
474.735,100.33686615617125
477.444,100.95239768896272
480.152,116.87503069093373
482.857,142.9237140575824
485.561,93.77426906954452
488.262,74.81650853125802
490.962,103.5827844810592
493.659,144.31940257612268
496.355,190.55804426010945
499.048,234.11577084578767
501.74,228.66645616906953
504.43,213.88364781448627
507.118,253.96438072160072
509.804,333.0577526961888
512.488,436.36016658808967
515.17,520.4010486595303
517.85,602.3761860010713
520.528,627.5763020427976
523.204,656.6251558750273
525.878,688.9081177594976
528.551,699.2864589262713
531.221,710.5735461325362
533.89,730.6777028880838
536.556,691.0307849664914
539.221,668.3024702020175
541.883,658.7335959055495
544.544,660.1361629472144
547.203,705.5600065056678
549.86,734.3404191983254
552.515,691.9076789735004
555.168,702.5013389072988
557.819,698.7416598576547
560.469,733.5343764517015
563.116,763.6421297398119
565.761,755.6844712782085
568.405,719.518819592518
571.047,721.5737975937195
573.687,716.6111414226593
576.324,702.7257045326628
578.96,653.7264141530904
581.594,587.1838944195692
584.227,542.4780895042113
586.857,504.4649343648821
589.485,501.42873978019134
592.112,529.7964821463811
594.737,560.2806647027992
597.359,644.307893043077
599.98,724.2569744358384
602.599,781.982731431121
605.216,838.7207678477498
607.831,916.8493776178584
610.445,957.0324060123553
613.056,1005.7430632473397
615.666,999.6448809476769
618.274,1008.3060019438899
620.88,1005.8182319738271
623.484,1047.177996146228
626.086,1117.3339620709594
628.686,1197.5203772749524
631.284,1275.0189780467226
633.881,1347.2542316142221
636.476,1342.507625941736
639.068,1334.8700547648746
641.659,1296.575155006511
644.249,1173.237406097492
646.836,1033.1378483449653
649.421,854.2717060626019
652.005,634.4436297484435
654.587,506.55341445321983
657.166,389.54838481534307
659.745,296.8995896197075
662.321,218.88752016601165
664.895,156.22116197042442
667.468,89.84752265772022
670.038,83.14211223436723
672.607,42.766090028280814
675.174,38.14245924761917
677.739,17.170356777682628
680.303,4.225061581503724
682.864,3.5389593394420444
685.424,26.058699335070287
687.982,27.302351781289417
690.538,35.216565514368995
693.092,41.65277594529425
695.645,13.795796716350196
698.195,-7.217112451807225
700.744,-36.77241600832167
703.291,-52.63742380152053
705.836,-59.15074638839269
708.38,-23.222278069055847
710.921,-5.714137987968115
713.461,16.892668060282176
715.999,17.688726260945714
718.535,4.955264253912446
721.069,1.9260577513732642
723.602,28.692194298317645
726.133,45.392551816543346
728.662,46.404277342418936
731.189,40.86659909799255
733.714,0.8236861811342351
736.238,-8.680110791935476
738.759,11.971171432072879
741.279,34.53653994463275
743.798,25.82280933382208
746.314,25.35127010465385
748.829,7.929119004165386
751.342,-24.731491605875817
753.853,4.79607181420306
756.362,9.129116211827295
758.869,-16.876759783460784
761.375,-18.222904728499543
763.879,1.756194384041919
766.381,13.869100120236908
768.882,84.9245631335425
771.38,89.25532736010382
773.877,76.52764949977927
776.372,59.74129468763158
778.866,59.03905597494759
781.357,81.89722619120766
783.847,129.83987932986201
786.335,119.96267574363537
788.821,134.88523876840418
791.306,153.27495991850037
793.789,135.94223265345
796.27,167.17378138280537
798.749,226.92313332812319
801.227,292.4772808611374
803.702,375.456677175257
806.176,447.1485652904021
808.649,432.0784022959324
811.119,433.3908074031028
813.588,413.80193856894493
816.055,397.45663102491426
818.521,388.69029771029136
820.984,374.26702018178
823.446,336.61763952310184
825.906,302.6016567784104
828.365,248.45960957618627
830.821,224.43211541979645
833.276,225.95034354948348
835.729,228.15982013768917
838.181,218.15851919866418
840.631,188.52066778379458
843.079,179.7729321293059
845.525,173.10869904206402
847.97,154.43569061871585
850.412,140.18548372673786
852.854,115.5992199616635
855.293,76.6323632233707
857.731,66.24040967331257
860.167,75.14078816794836
862.601,73.43190354931403
865.034,63.45027517369499
867.465,58.58005639267367
869.894,36.87207784370594
872.321,18.948605026405403
874.747,53.3842863550185
877.171,63.99186311567382
879.594,62.34597656842152
882.014,60.497451239762086
884.433,69.83043535801835
886.851,76.49096986014592
889.266,91.52984311282762
891.68,94.18830277642246
894.092,118.70757719272524
896.503,153.51934915367974
898.912,189.29337252723508
901.319,210.36604126415114
903.724,221.78800602385581
906.128,198.5622669907707
908.53,181.88226669063488
910.931,172.89379233063755
913.329,147.26640194908032
915.726,142.00294580313403
918.122,149.106230613741
920.516,138.86473142957448
922.908,152.37639872908085
925.298,150.31056076062941
927.687,170.9079211207454
930.074,173.74246109425167
932.459,171.4833419944157
934.843,168.03775988404504
937.225,164.40808601086655
939.605,121.9775786714813
941.984,116.98657126578883
944.361,106.1991365418985
946.736,109.33165560293446
949.11,122.95757739004057
951.482,99.41217816538574
953.853,59.79255909040694
956.222,40.71954856596267
958.589,32.81389028676358
960.954,54.93433605771952
963.318,90.93954813408573
965.68,102.25952865766476
968.041,101.13371575966175
970.4,85.99193680640929
972.757,47.35917116888413
975.113,10.760312992234958
977.467,-9.375066034709107
979.819,-21.998430100393307
982.17,-19.442277300800924
984.519,-5.943948177171478
986.866,3.021039597064828
989.212,18.881844942539374
991.556,47.59134695435705
993.899,73.38804593866325
996.24,78.70082351862175
998.579,83.14894083562262
1000.92,49.44679865525336
1003.25,42.73726890184366
1005.59,49.02026428823888
1007.92,65.24797461224239
1010.25,60.42010305305962
1012.58,63.01243580107098
1014.91,44.50064978284786
1017.24,54.45554895759574
1019.56,48.8287768040766
1021.88,46.47662404562425
1024.2,40.398122089443405
1026.52,20.544565037340135
1028.84,47.81950788693234
1031.16,93.22162592862242
1033.48,97.08281434301762
1035.79,106.87771636977368
1038.1,94.17610861930234
1040.41,86.45242924161676
1042.72,122.80006799994703
1045.03,150.50279920149433
1047.33,148.36811939009294
1049.64,153.39391837220137
1051.94,136.62562643337606
1054.24,150.10859964997485
1056.54,164.7928861532414
1058.84,151.39037334577824
1061.13,96.23193511801946
1063.43,82.93410287422512
1065.72,74.3038317965711
1068.01,119.43374329970743
1070.3,173.1783198662688
1072.59,191.72533797763026
1074.87,205.11968199703279
1077.16,220.64430090985297
1079.44,212.48687934959025
1081.72,250.12079433813756
1084.0,284.49559583557107
1086.28,312.1322491947067
1088.56,387.98028237755307
1090.84,460.1320760289143
1093.11,523.489534502366
1095.38,581.2878997433816
1097.65,561.0481366010301
1099.92,490.48169909205285
1102.19,396.014344283984
1104.46,332.6432795116059
1106.72,315.6514524505483
1108.98,312.8932697623154
1111.24,350.65174431074274
1113.5,387.4004042832171
1115.76,431.6128213595125
1118.02,459.85785316634565
1120.28,467.2282190652602
1122.53,437.3405045119375
1124.78,454.62087970122775
1127.03,396.257484878847
1129.28,384.15281565307305
1131.53,330.16182259215884
1133.77,278.5204870122143
1136.02,237.1315396222376
1138.26,255.37398869296362
1140.5,231.7221720352261
1142.74,268.74576135928896
1144.98,280.4907190151125
1147.22,309.7650166373894
1149.45,315.71006807628714
1151.69,351.61025756629283
1153.92,365.79770599029007
1156.15,375.4617990484028
1158.38,332.69681066492103
1160.61,288.97809782380864
1162.83,239.447819213731
1165.06,219.2006538730791
1167.28,219.99809126356945
1169.5,196.98272134384024
1171.72,177.67823892876527
1173.94,120.13230519162425
1176.16,88.86893297579377
1178.37,43.31706258263148
1180.58,28.810566130784082
1182.8,7.4930138202562375
1185.01,13.74624972029278
1187.22,-19.09531815702826
1189.42,-22.839950839380435
1191.63,-29.24809709105375
1193.84,-27.318104561430346
1196.04,-8.190980925560325
1198.24,6.230556200111096
1200.44,-4.765544941173175
1202.64,-21.034009570522812
1204.84,-26.42938459192078
1207.03,-28.948901583771658
1209.23,-18.970580075441603
1211.42,18.984856882835857
1213.61,11.587302200760405
1215.8,16.030582252461727
1217.99,15.27053818823606
1220.18,46.834536989296566
1222.36,51.82146032821424
1224.55,50.90169497117154
1226.73,15.793313656401779
1228.91,2.8811131154873237
1231.09,-11.640538381531087
1233.27,25.946576692978624
1235.44,34.02737456874161
1237.62,53.32012792641899
1239.79,78.06693578723412
1241.96,107.55753014438301
1244.13,143.36736830872906
1246.3,203.88143954020893
1248.47,273.81807167924353
1250.64,414.7527377781462
1252.8,538.8323389230029
1254.96,687.394248960316
1257.13,832.585359223651
1259.29,945.3144565936179
1261.44,1033.395077748334
1263.6,1114.5931253186434
1265.76,1133.436388805245
1267.91,1120.54787501963
1270.06,1068.5505670964449
1272.22,966.6388501725257
1274.37,859.2451751611677
1276.51,775.6591034787687
1278.66,680.4082565333822
1280.81,599.5916461656468
1282.95,510.59395747068015
1285.09,441.9426887628174
1287.23,405.07005344512527
1289.37,417.69392949796315
1291.51,424.1988089675417
1293.65,447.01674745448804
1295.78,452.05593265002403
1297.92,461.4625862054827
1300.05,441.4304846494392
1302.18,410.1533374477008
1304.31,372.5390698251954
1306.44,354.78124844502145
1308.57,389.7876499446211
1310.69,424.98978185292117
1312.82,449.3428796979406
1314.94,436.2306660191621
1317.06,431.51296652276324
1319.18,451.71618337969585
1321.3,463.1761494761513
1323.41,452.5143159973554
1325.53,463.4472733447042
1327.64,458.92960538622356
1329.75,484.3443627546494
1331.87,505.884012335991
1333.98,489.7409105676079
1336.08,472.58349102201373
1338.19,447.31816627639
1340.3,412.2798012106641
1342.4,381.9459958294069
1344.5,295.6037490361068
1346.6,226.01612240744453
1348.7,165.6127134913745
1350.8,96.53727196235423
1352.9,85.55245863372102
1354.99,94.51603304149103
1357.09,105.23799340911091
1359.18,116.71866899316001
1361.27,100.10109814334055
1363.36,75.24245398151015
1365.45,84.33308912833718
1367.54,81.99177090614057
1369.62,119.97997169481005
1371.7,129.24949262105633
1373.79,143.2281824857555
1375.87,143.15327573892068
1377.95,148.92853997847874
1380.03,170.029042496667
1382.1,169.59639301690504
1384.18,175.81970071637738
1386.25,157.31653124861668
1388.33,124.79957805180925
1390.4,88.12428603804324
1392.47,70.00314194923135
1394.54,14.291393284451487
1396.6,-4.96532801080275
1398.67,-42.91195328394451
1400.74,-37.16968532020337
1402.8,-27.645516542225323
1404.86,-10.389371026596791
1406.92,18.596368425741503
1408.98,38.92828258326267
1411.04,19.603813155987382
1413.09,35.90601923925101
1415.15,58.070242467406615
1417.2,106.28410752777563
1419.25,149.49705012986988
1421.3,176.27746402223784
1423.35,184.47937181882457
1425.4,210.29004820629575
1427.45,199.13478600849794
1429.49,200.9626146318733
1431.54,173.5320185108751
1433.58,147.7918936486251
1435.62,143.2148851099396
1437.66,130.3212007048403
1439.7,92.25004371967884
1441.74,82.18818850541061
1443.77,61.465222732529355
1445.81,72.02974202695918
1447.84,106.73506841546487
1449.87,148.29163543773097
1451.9,164.69556373463
1453.93,184.03818901744262
1455.96,180.55368527517544
1457.98,209.6190689342559
1460.01,239.1351553991833
1462.03,294.90751559317505
1464.05,345.3131467845292
1466.07,429.58619103203705
1468.09,565.0084155351544
1470.11,745.3377882222783
1472.13,929.3322914342568
1474.14,1132.321354655515
1476.16,1303.2058586737594
1478.17,1451.1724254539577
1480.18,1558.6458032504243
1482.19,1596.860299337958
1484.2,1523.62168893344
1486.21,1364.8310288793555
1488.21,1141.6275189463445
1490.22,917.626601231007
1492.22,699.1104405060833
1494.22,499.8374521896799
1496.22,343.04230650497993
1498.22,226.86450406851304
1500.22,152.58647528796246
1502.22,95.96691785519579
1504.21,74.1455628107326
1506.21,47.11936917963658
1508.2,53.21871860740657
1510.19,36.726467138718135
1512.18,3.2112827104581356
1514.17,-25.281874498107754
1516.16,-23.184128858020813
1518.14,-14.307446709192618
1520.13,1.9172702408814075
1522.11,-3.0836251874272875
1524.09,-14.074146752825527
1526.07,2.419894770795281
1528.05,19.58707989139407
1530.03,27.901805340051624
1532.01,18.029042590593917
1533.98,18.538620188740197
1535.96,8.238553700298553
1537.93,3.3178994688823877
1539.9,1.3943702783917615
1541.87,-6.009476729821245
1543.84,10.248043432483428
1545.81,55.78488437336023
1547.78,84.4095513403613
1549.74,114.02586043069732
1551.7,115.77579303949278
1553.67,118.46806459375239
1555.63,133.48288376251435
1557.59,145.81956880986377
1559.55,160.66797347174634
1561.5,199.789436642317
1563.46,188.08820825075782
1565.41,207.04001799523894
1567.37,198.5968345530689
1569.32,179.99638669561386
1571.27,157.52406535558998
1573.22,154.655778075316
1575.17,119.05794631210142
1577.11,112.96845512458754
1579.06,102.05379333527935
1581.0,100.79000321688886
1582.95,101.70077303582548
1584.89,99.59552959568691
1586.83,119.42657839979643
1588.77,129.7176723851685
1590.7,139.56400922789817
1592.64,119.58460960093635
1594.58,84.46993352710001
1596.51,49.64854435113375
1598.44,26.95377271175994
