Raman Shift,Processed Intensity
331.095,47.6398157142856
333.909,-36.79925642857136
336.721,-49.39108999999984
339.531,-17.696389999999976
342.339,23.93779333333337
345.145,58.474804761904785
347.949,54.42803333333332
350.751,29.64594761904762
353.55,-15.687819047619058
356.348,-6.149649476190449
359.144,1.0668623095238208
361.937,15.817667476190515
364.729,43.24642316666674
367.518,104.78417700000011
370.306,161.72121945238112
373.091,296.44485052380975
375.874,386.82075238095257
378.656,394.620523809524
381.435,353.76121904761914
384.212,257.9228714285715
386.988,138.07340952380957
389.761,60.99201904761905
392.532,14.983776190476192
395.301,-14.311699999999973
398.068,15.652478095238134
400.833,42.281482857142876
403.596,42.22062761904762
406.358,16.68826476190475
409.117,-0.4764295238095171
411.874,6.9959542857143076
414.629,2.7097399999999983
417.382,10.842576190476217
420.133,37.95428571428577
422.882,77.32049047619059
425.629,137.2186523809525
428.374,237.02281904761918
431.117,283.06080952380967
433.858,299.80466666666683
436.597,281.39409523809536
439.334,226.58914285714297
442.069,183.38904761904777
444.802,182.93742857142868
447.533,201.37838095238106
450.262,249.6665714285716
452.989,288.80557142857157
455.714,295.84723809523825
458.438,297.8440000000001
461.159,244.8022857142858
463.878,199.5854285714287
466.595,194.81952380952393
469.31,197.51228571428584
472.024,206.8624761904763
474.735,184.2123095238096
477.444,152.52409523809533
480.152,147.6169761904763
482.857,152.5489047619049
485.561,168.42554761904773
488.262,187.30542857142868
490.962,202.48552380952395
493.659,242.78719047619063
496.355,243.3647142857144
499.048,219.9444285714287
501.74,207.53828571428585
504.43,187.82490476190486
507.118,184.67371428571442
509.804,184.33542857142868
512.488,215.48861904761924
515.17,262.5742380952383
517.85,302.4140476190477
520.528,297.06766666666675
523.204,242.16633333333345
525.878,180.57904761904777
528.551,173.07952380952392
531.221,173.82214285714295
533.89,162.86614285714293
536.556,160.07966666666675
539.221,146.80719047619056
541.883,136.48771428571436
544.544,146.75114285714295
547.203,140.46476190476199
549.86,135.25738095238106
552.515,159.090761904762
555.168,184.68876190476203
557.819,190.44095238095252
560.469,226.07033333333345
563.116,238.82333333333347
565.761,233.27880952380966
568.405,250.3491904761906
571.047,228.85100000000008
573.687,195.26695238095252
576.324,159.88876190476196
578.96,152.62680952380964
581.594,143.96290476190484
584.227,144.1400476190477
586.857,116.92442857142863
589.485,129.17733333333342
592.112,121.14042857142866
594.737,127.53095238095247
597.359,141.78047619047626
599.98,155.2720000000001
602.599,180.76928571428584
605.216,226.7973809523811
607.831,230.16700000000014
610.445,228.68804761904775
613.056,216.59857142857155
615.666,223.32700000000014
618.274,215.3487142857144
620.88,193.42438095238106
623.484,179.9810000000001
626.086,208.63576190476206
628.686,250.62409523809544
631.284,300.9436666666668
633.881,316.4008571428573
636.476,326.1350000000002
639.068,336.9997142857145
641.659,320.51457142857157
644.249,319.72255238095255
646.836,265.3813523809525
649.421,183.29559523809533
652.005,142.12686666666673
654.587,110.10814761904767
657.166,65.09079523809528
659.745,42.21201428571428
662.321,24.990058095238105
664.895,-1.1523633333333148
667.468,13.112344761904795
670.038,23.492334761904786
672.607,51.31517809523815
675.174,86.19383190476198
677.739,127.50316761904769
680.303,138.4277190476191
682.864,125.53298095238097
685.424,82.86060190476194
687.982,47.50014000000002
690.538,43.68372761904765
693.092,31.786579047619057
695.645,16.27928476190477
698.195,-1.3674885714285678
700.744,4.507554285714299
703.291,7.47063333333336
705.836,31.08811428571431
708.38,44.2122523809524
710.921,34.88587142857144
713.461,34.29486190476194
715.999,31.19660952380955
718.535,63.92036190476196
721.069,81.08080952380956
723.602,81.62628571428574
726.133,56.31477142857145
728.662,47.618742857142884
731.189,32.344052380952434
733.714,52.01125238095242
736.238,61.52159523809527
738.759,68.20513333333338
741.279,95.0586914285715
743.798,96.84137000000004
746.314,104.64566380952385
748.829,79.70685380952384
751.342,62.68904000000005
753.853,63.161198571428635
756.362,92.45416285714289
758.869,79.56591904761909
761.375,80.25634761904766
763.879,79.66640095238101
766.381,68.74660495238098
768.882,51.59067090476192
771.38,32.054115619047614
773.877,16.135567666666685
776.372,-0.16621580952378334
778.866,30.671508047619085
781.357,63.12388257142862
783.847,74.66628571428575
786.335,72.01228095238099
788.821,68.5421142857143
791.306,64.01735238095245
793.789,72.53264285714292
796.27,102.13530476190483
798.749,116.01590476190484
801.227,118.79321904761913
803.702,140.56264285714298
806.176,175.70533333333347
808.649,211.69747619047635
811.119,240.39661904761917
813.588,224.13666666666677
816.055,193.63262857142868
818.521,156.504161904762
820.984,111.89471904761912
823.446,97.2335333333334
825.906,94.8072714285715
828.365,101.4264857142858
830.821,107.52097619047625
833.276,115.90106666666674
835.729,128.28249523809532
838.181,145.71391428571437
840.631,164.5776761904763
843.079,167.54205714285723
845.525,137.60839047619055
847.97,141.11159047619057
850.412,131.48189047619056
852.854,127.72068571428579
855.293,117.2107333333334
857.731,111.7631714285715
860.167,91.23718095238101
862.601,93.49179523809528
865.034,77.43353333333337
867.465,63.44532857142861
869.894,79.05276666666674
872.321,123.78176666666673
874.747,111.92022380952385
877.171,125.56521904761911
879.594,124.48095238095244
882.014,119.8599238095239
884.433,131.98967619047625
886.851,150.92062857142867
889.266,142.2259523809525
891.68,160.76514285714296
894.092,168.3024761904763
896.503,190.2209523809525
898.912,200.09400000000014
901.319,202.11471428571437
903.724,183.09428571428583
906.128,154.1783333333334
908.53,137.27390476190487
910.931,162.85933333333347
913.329,188.22257142857154
915.726,181.31804761904772
918.122,158.10023809523818
920.516,147.09542857142867
922.908,135.21052380952392
925.298,159.30490476190488
927.687,170.14265714285725
930.074,135.63032380952387
932.459,101.3892190476191
934.843,85.08809523809529
937.225,73.2050952380953
939.605,71.88525238095242
941.984,71.7970904761905
944.361,54.847261904761936
946.736,50.46624761904766
949.11,60.46540000000005
951.482,61.560747619047646
953.853,60.087557142857186
956.222,69.52343809523815
958.589,86.58446190476198
960.954,95.22455238095243
963.318,116.58791428571435
965.68,119.2475676190477
968.041,96.30037000000003
970.4,88.65220666666671
972.757,62.44736809523811
975.113,50.25824000000004
977.467,66.32398533333338
979.819,68.40770890476193
982.17,45.60561590476194
984.519,51.394853476190505
986.866,53.77632066666674
989.212,92.46470319047627
991.556,135.31798676190488
993.899,164.57499047619058
996.24,158.56966666666676
998.579,180.3499523809525
1000.92,192.10702857142866
1003.25,181.3648142857144
1005.59,155.88563809523816
1007.92,125.66983809523813
1010.25,76.38450476190484
1012.58,95.26749523809534
1014.91,123.3190476190477
1017.24,136.7772238095239
1019.56,145.59458095238102
1021.88,132.34238095238103
1024.2,136.54476190476203
1026.52,165.2487142857144
1028.84,202.0256190476192
1031.16,235.49428571428587
1033.48,243.36876190476207
1035.79,255.22009523809538
1038.1,282.3813809523811
1040.41,322.66138095238114
1042.72,349.4410952380954
1045.03,336.57700000000017
1047.33,288.6400476190478
1049.64,253.01095238095252
1051.94,187.6411904761906
1054.24,180.43485714285725
1056.54,201.77252380952393
1058.84,212.510523809524
1061.13,231.07676190476204
1063.43,243.9946666666668
1065.72,213.69157142857156
1068.01,202.21461904761915
1070.3,207.22952380952393
1072.59,223.2117142857144
1074.87,229.97004761904776
1077.16,231.9799523809525
1079.44,235.7165714285716
1081.72,251.98885714285734
1084.0,296.98614285714314
1086.28,381.0884285714289
1088.56,492.4857619047623
1090.84,613.2720952380956
1093.11,717.0656190476194
1095.38,739.5319523809528
1097.65,681.6226666666671
1099.92,560.8604761904764
1102.19,440.5781904761907
1104.46,372.6792380952383
1106.72,381.73419047619075
1108.98,378.74204761904787
1111.24,438.79733333333365
1113.5,485.1371904761908
1115.76,518.4275238095241
1118.02,568.9529523809528
1120.28,601.7124761904765
1122.53,577.371666666667
1124.78,556.6440476190479
1127.03,505.814285714286
1129.28,442.0723809523812
1131.53,396.036523809524
1133.77,332.6580952380954
1136.02,295.4600952380954
1138.26,248.3940952380954
1140.5,237.316142857143
1142.74,243.0832857142859
1144.98,237.12290476190492
1147.22,233.19633333333348
1149.45,226.25519047619062
1151.69,211.2986666666668
1153.92,216.23080952380965
1156.15,221.9087142857144
1158.38,215.42665714285727
1160.61,188.59377619047626
1162.83,152.9805333333334
1165.06,112.96757619047625
1167.28,88.45922380952386
1169.5,64.78863809523814
1171.72,83.38404285714292
1173.94,67.14965238095242
1176.16,79.41834761904767
1178.37,76.66623333333337
1180.58,74.65497619047623
1182.8,51.09869523809527
1185.01,60.23544952380954
1187.22,35.398394761904775
1189.42,27.349427619047635
1191.63,22.70759571428573
1193.84,28.520599047619065
1196.04,33.26477571428575
1198.24,45.60693523809526
1200.44,36.83304761904764
1202.64,35.84816666666669
1204.84,53.938333333333375
1207.03,47.86586666666668
1209.23,44.39320000000001
1211.42,27.377990476190472
1213.61,9.3923523809524
1215.8,6.722657142857172
1217.99,34.1315523809524
1220.18,36.09604761904764
1222.36,37.71220952380954
1224.55,35.5523142857143
1226.73,28.141080952380968
1228.91,30.193590476190515
1231.09,49.948814285714334
1233.27,64.3599428571429
1235.44,83.99942857142862
1237.62,87.91550952380958
1239.79,82.96630952380958
1241.96,83.152380952381
1244.13,91.33190476190481
1246.3,105.93410476190485
1248.47,144.29339047619058
1250.64,167.3626666666668
1252.8,191.42861904761918
1254.96,220.8723809523811
1257.13,272.98100000000017
1259.29,301.46914285714297
1261.44,332.2426666666669
1263.6,343.4927619047621
1265.76,328.4104285714287
1267.91,305.2343809523811
1270.06,280.2036190476192
1272.22,240.12828571428585
1274.37,231.0566190476192
1276.51,240.41809523809536
1278.66,261.1176666666668
1280.81,263.061142857143
1282.95,251.72509523809538
1285.09,247.63438095238112
1287.23,239.78919047619058
1289.37,233.14300000000014
1291.51,250.64823809523824
1293.65,242.25795238095253
1295.78,228.8776190476192
1297.92,189.84138095238103
1300.05,163.05433333333343
1302.18,136.27914285714294
1304.31,143.420761904762
1306.44,158.14638095238107
1308.57,198.88528571428589
1310.69,232.6379047619049
1312.82,263.3573333333335
1314.94,273.13933333333347
1317.06,274.9365714285716
1319.18,270.7494761904764
1321.3,280.0073333333335
1323.41,323.56738095238114
1325.53,364.5256666666669
1327.64,422.50152380952414
1329.75,486.49528571428596
1331.87,529.6501428571431
1333.98,536.7764285714288
1336.08,520.7314285714289
1338.19,477.3727619047621
1340.3,427.41504761904787
1342.4,401.62061904761936
1344.5,372.98961904761927
1346.6,331.99866666666685
1348.7,297.02914285714303
1350.8,259.8430952380954
1352.9,245.01247619047632
1354.99,252.44214285714298
1357.09,262.7990952380954
1359.18,282.1312380952383
1361.27,316.5818095238097
1363.36,320.3415714285716
1365.45,320.26809523809544
1367.54,323.1707619047621
1369.62,335.0500476190478
1371.7,338.3820000000002
1373.79,360.26238095238114
1375.87,382.4531428571431
1377.95,397.0974761904764
1380.03,423.62395238095263
1382.1,450.98538095238126
1384.18,410.4671904761907
1386.25,385.16533333333354
1388.33,333.55580952380967
1390.4,264.82928571428585
1392.47,220.50952380952393
1394.54,191.02514285714295
1396.6,172.09047619047632
1398.67,198.70600000000013
1400.74,210.6811904761906
1402.8,232.06352380952396
1404.86,240.61500000000012
1406.92,216.76400000000015
1408.98,217.65385714285728
1411.04,226.71290476190487
1413.09,222.7029523809525
1415.15,238.7670000000001
1417.2,226.47633333333349
1419.25,242.11666666666682
1421.3,265.8311904761906
1423.35,266.5715714285716
1425.4,261.71890476190487
1427.45,240.4637142857144
1429.49,215.5199047619049
1431.54,213.36400000000015
1433.58,200.23376190476205
1435.62,182.50976190476206
1437.66,210.47780952380964
1439.7,224.23285714285728
1441.74,237.34647619047632
1443.77,232.58028571428588
1445.81,218.31471428571442
1447.84,213.26390476190494
1449.87,239.0944285714287
1451.9,262.09171428571443
1453.93,266.7798095238097
1455.96,254.49128571428585
1457.98,227.70204761904776
1460.01,225.5072857142859
1462.03,244.71614285714304
1464.05,279.1377142857145
1466.07,330.2003809523812
1468.09,366.4749523809526
1470.11,387.1516666666669
1472.13,419.89709523809546
1474.14,415.04404761904783
1476.16,405.2591428571431
1478.17,391.9702857142859
1480.18,374.2722380952383
1482.19,324.4026666666668
1484.2,293.26590476190495
1486.21,244.8139523809525
1488.21,198.7130000000001
1490.22,163.81958095238105
1492.22,141.99053809523815
1494.22,105.41581428571436
1496.22,91.76170000000005
1498.22,80.17052380952384
1500.22,67.35576666666671
1502.22,63.50747142857147
1504.21,69.52977142857148
1506.21,81.94601904761909
1508.2,90.51758000000004
1510.19,67.48190857142859
1512.18,62.74317428571432
1514.17,47.681691428571455
1516.16,44.772831428571465
1518.14,50.873246666666695
1520.13,50.553689523809545
1522.11,39.05158000000003
1524.09,37.03292285714287
1526.07,23.068460000000016
1528.05,37.3479904761905
1530.03,39.3470304761905
1532.01,32.68398285714289
1533.98,37.69150952380954
1535.96,35.32136476190478
1537.93,34.09677047619051
1539.9,43.68379904761907
1541.87,45.60566666666671
1543.84,50.05228571428575
1545.81,62.83259523809529
1547.78,69.85082857142862
1549.74,92.0590190476191
1551.7,98.74221428571437
1553.67,136.3761761904763
1555.63,155.5319238095239
1557.59,170.01833333333343
1559.55,146.6922095238096
1561.5,133.4103238095239
1563.46,136.98169523809537
1565.41,159.54889523809533
1567.37,174.7784000000001
1569.32,186.86001904761912
1571.27,172.12709523809536
1573.22,156.48390476190485
1575.17,149.9775238095239
1577.11,138.36957142857153
1579.06,124.94566666666674
1581.0,145.61000000000013
1582.95,158.88638095238102
1584.89,168.48909523809533
1586.83,157.46519047619057
1588.77,147.10028571428583
1590.7,141.72723809523822
1592.64,172.7269523809525
1594.58,201.40857142857135
1596.51,226.79607142857134
1598.44,242.38945238095238
