Raman Shift,Processed Intensity
331.095,78.19159666666664
333.909,47.50082047619044
336.721,8.32174083333328
339.531,-28.739461428571445
342.339,-52.83916880952383
345.145,-27.609027142857137
347.949,-29.15445142857145
350.751,-17.24557571428572
353.55,-11.555358095238114
356.348,-27.659547142857157
359.144,-42.32238095238094
361.937,3.503535714285734
364.729,25.200755238095304
367.518,64.2969257142858
370.306,148.03570000000013
373.091,237.94875238095256
375.874,348.9025714285717
378.656,424.2420666666668
381.435,373.55173619047633
384.212,229.18015047619053
386.988,100.57271047619051
389.761,-0.3468085714285438
392.532,-16.22474333333331
395.301,-2.419648190476194
398.068,-9.955234857142855
400.833,1.1942550476190696
403.596,23.722882476190478
406.358,8.755008380952377
409.117,-5.34532961904762
411.874,9.64453180952383
414.629,19.044266666666697
417.382,24.270180952380972
420.133,37.45461238095241
422.882,50.68311523809531
425.629,105.94778380952395
428.374,192.33730380952397
431.117,296.7510609523811
433.858,325.8039047619049
436.597,317.8263809523811
439.334,269.67333333333346
442.069,222.01066666666674
444.802,157.21957142857156
447.533,157.53904761904772
450.262,154.30452380952391
452.989,190.18561904761918
455.714,197.23352380952394
458.438,207.595761904762
461.159,191.4202857142858
463.878,163.33181428571436
466.595,118.38451904761911
469.31,88.68073809523814
472.024,75.46620476190483
474.735,88.32079523809531
477.444,108.06253809523815
480.152,124.65298095238103
482.857,122.38749523809531
485.561,121.60913333333345
488.262,143.70913333333345
490.962,190.3648571428573
493.659,200.01538095238104
496.355,201.48161904761918
499.048,168.67947619047627
501.74,152.57258095238106
504.43,106.50600952380961
507.118,150.4914000000001
509.804,172.82613333333344
512.488,203.9030666666668
515.17,247.54320000000018
517.85,252.47267619047634
520.528,228.27466666666683
523.204,236.198761904762
525.878,207.4948095238096
528.551,182.45990476190488
531.221,170.15285714285721
533.89,142.91817142857155
536.556,134.8144333333334
539.221,131.9477238095239
541.883,116.47151904761911
544.544,134.4434857142858
547.203,135.1595761904763
549.86,136.01021904761913
552.515,149.29085714285722
555.168,158.20109523809532
557.819,169.27361904761918
560.469,203.56452380952393
563.116,206.60604761904773
565.761,194.4536666666668
568.405,203.49590476190485
571.047,176.02519047619057
573.687,165.76257142857153
576.324,129.5715476190477
578.96,105.50566666666674
581.594,117.04702380952389
584.227,128.05752380952387
586.857,127.25583333333341
589.485,156.45622857142862
592.112,130.8528000000001
594.737,139.8775523809525
597.359,124.9620095238096
599.98,155.3945047619049
602.599,190.3196571428573
605.216,217.2157523809525
607.831,206.65503809523818
610.445,183.11461428571434
613.056,107.30908095238104
615.666,106.3814238095239
618.274,108.52126190476199
620.88,132.4421666666668
623.484,195.23775714285728
626.086,243.47779047619062
628.686,271.969523809524
631.284,295.1389523809525
633.881,299.93566666666686
636.476,312.832523809524
639.068,347.5397619047621
641.659,339.1008095238097
644.249,298.9876190476192
646.836,254.33819047619062
649.421,206.05241238095246
652.005,127.93438142857148
654.587,105.54991523809528
657.166,85.46433761904767
659.745,71.38602476190482
662.321,83.92745285714291
664.895,87.89168857142859
667.468,39.27215000000002
670.038,32.300338095238125
672.607,26.06429761904765
675.174,40.462076190476246
677.739,80.81955000000006
680.303,95.74880000000005
682.864,77.95701904761908
685.424,82.0084571428572
687.982,49.0865285714286
690.538,44.946319047619085
693.092,40.00904285714286
695.645,28.125219047619055
698.195,0.6690561904761907
700.744,0.8720523809523717
703.291,-23.89116047619048
705.836,7.08753619047621
708.38,11.897385238095254
710.921,30.104077142857165
713.461,37.98775476190478
715.999,55.87642000000003
718.535,52.05065238095242
721.069,72.2674428571429
723.602,80.95057142857146
726.133,66.23838095238098
728.662,65.65027809523814
731.189,59.37255428571429
733.714,31.353599047619067
736.238,29.44676000000004
738.759,58.50544666666671
741.279,66.19290190476197
743.798,87.17241142857148
746.314,110.1550333333334
748.829,120.99503809523819
751.342,130.59444761904768
753.853,117.18866190476194
756.362,89.1561428571429
758.869,52.637271428571474
761.375,59.2012571428572
763.879,83.65552857142863
766.381,97.80778095238101
768.882,85.56101428571432
771.38,70.58030000000002
773.877,52.19747619047622
776.372,55.07792380952385
778.866,67.41077142857146
781.357,74.00455714285718
783.847,70.28694285714289
786.335,78.8284047619048
788.821,93.19984285714291
791.306,87.82923333333338
793.789,93.38285238095244
796.27,87.62241428571434
798.749,107.02359047619058
801.227,151.10993809523822
803.702,178.40572380952392
806.176,192.53009523809538
808.649,214.72138095238108
811.119,211.59909523809534
813.588,231.11557142857157
816.055,237.2716666666668
818.521,212.21100000000013
820.984,181.69600000000008
823.446,173.63249523809532
825.906,138.7357095238096
828.365,107.81608571428576
830.821,102.0176714285715
833.276,100.7703714285715
835.729,111.93218571428581
838.181,147.3144476190477
840.631,170.2994000000001
843.079,142.50756666666675
845.525,128.8453714285715
847.97,99.07650476190481
850.412,87.63093333333339
852.854,84.93926190476196
855.293,86.76513333333337
857.731,77.1582190476191
860.167,65.8349047619048
862.601,54.55898095238099
865.034,60.61826190476194
867.465,66.53874285714288
869.894,46.941657142857174
872.321,45.067457142857165
874.747,33.72784285714289
877.171,62.92540476190483
879.594,65.23372380952385
882.014,86.08380000000008
884.433,112.8115476190477
886.851,132.3238857142858
889.266,138.90943809523822
891.68,176.23762857142867
894.092,165.8820000000001
896.503,187.03561904761918
898.912,212.65400000000014
901.319,217.5486666666668
903.724,209.19923809523823
906.128,216.89390476190488
908.53,198.06357142857155
910.931,197.33009523809534
913.329,179.3155714285715
915.726,174.3080000000001
918.122,185.45333333333346
920.516,190.706761904762
922.908,182.1182857142858
925.298,168.5003333333334
927.687,133.95100000000008
930.074,119.13961904761912
932.459,110.73552380952388
934.843,101.7415714285715
937.225,123.73174285714293
939.605,123.61336190476196
941.984,123.9132095238096
944.361,118.25278476190482
946.736,80.1584466666667
949.11,56.966140952381
951.482,52.10715333333336
953.853,45.15538857142863
956.222,84.92294190476198
958.589,93.41211809523813
960.954,102.8159714285715
963.318,102.946280952381
965.68,109.043561904762
968.041,123.91960476190484
970.4,131.29087714285717
972.757,81.96913190476194
975.113,58.43281142857144
977.467,32.11242619047623
979.819,28.629136666666692
982.17,15.746591428571435
984.519,39.32400333333337
986.866,41.601134761904795
989.212,55.722575714285774
991.556,73.30908238095242
993.899,98.55254095238101
996.24,93.07356190476199
998.579,136.3501095238096
1000.92,141.62142857142862
1003.25,156.8410952380953
1005.59,120.39140476190482
1007.92,100.320880952381
1010.25,68.91626190476195
1012.58,87.75007142857152
1014.91,128.2040142857144
1017.24,164.0403952380953
1019.56,135.0695285714286
1021.88,99.76786666666669
1024.2,74.75519523809533
1026.52,102.79346666666677
1028.84,153.16910952380962
1031.16,168.4532380952382
1033.48,197.02695238095254
1035.79,223.41380952380968
1038.1,270.0902857142859
1040.41,345.3890952380954
1042.72,379.3579523809526
1045.03,368.3770000000002
1047.33,344.3030000000001
1049.64,272.1830476190477
1051.94,217.064142857143
1054.24,196.80285714285725
1056.54,168.87457142857153
1058.84,166.46885714285725
1061.13,149.82314285714293
1063.43,152.55552380952395
1065.72,196.47428571428586
1068.01,227.19738095238108
1070.3,232.3424761904763
1072.59,214.9086190476191
1074.87,180.8469047619049
1077.16,182.34647619047632
1079.44,222.5962857142859
1081.72,269.16642857142875
1084.0,308.0551904761907
1086.28,372.4042380952384
1088.56,471.3068095238099
1090.84,574.333047619048
1093.11,662.195428571429
1095.38,695.8445714285717
1097.65,650.6595238095242
1099.92,548.9241904761907
1102.19,451.9223809523813
1104.46,379.84300000000025
1106.72,366.4931904761907
1108.98,362.490285714286
1111.24,388.78457142857167
1113.5,410.32638095238127
1115.76,459.5900000000003
1118.02,531.4780000000003
1120.28,569.6546666666669
1122.53,548.7850476190479
1124.78,503.7238095238098
1127.03,423.0400952380955
1129.28,343.4938095238097
1131.53,310.225523809524
1133.77,247.85180952380966
1136.02,227.75157142857157
1138.26,211.11309523809533
1140.5,182.88619047619056
1142.74,155.16419047619058
1144.98,170.706761904762
1147.22,210.9873809523811
1149.45,237.3849523809525
1151.69,242.46833333333345
1153.92,228.09238095238103
1156.15,185.96923809523818
1158.38,157.71573333333342
1160.61,151.90080000000006
1162.83,107.18898571428576
1165.06,76.33957142857147
1167.28,40.92193333333336
1169.5,29.98142857142861
1171.72,53.75378095238101
1173.94,74.28440476190482
1176.16,92.80921428571433
1178.37,93.80217619047622
1180.58,74.26106666666671
1182.8,51.42184761904765
1185.01,45.0918666666667
1187.22,43.79291333333336
1189.42,34.90395142857144
1191.63,30.899193333333354
1193.84,24.300567619047627
1196.04,27.392007619047654
1198.24,37.98134190476193
1200.44,62.82888952380955
1202.64,38.2189
1204.84,37.007185714285725
1207.03,17.430687142857153
1209.23,8.25030142857144
1211.42,18.179481428571446
1213.61,22.884303333333328
1215.8,2.3642957142857317
1217.99,8.904953809523814
1220.18,8.934770476190488
1222.36,21.977666666666707
1224.55,51.31966190476194
1226.73,54.15171904761908
1228.91,78.85532857142863
1231.09,87.24091428571433
1233.27,77.97606190476195
1235.44,74.58576190476195
1237.62,84.54725238095243
1239.79,63.481219047619106
1241.96,83.15088095238102
1244.13,107.22488571428579
1246.3,119.41909523809534
1248.47,150.6404523809525
1250.64,197.8909047619049
1252.8,222.7916666666668
1254.96,254.05928571428592
1257.13,286.07709523809535
1259.29,269.4663809523811
1261.44,277.84923809523826
1263.6,272.41900000000015
1265.76,264.7973333333335
1267.91,252.17761904761917
1270.06,248.18166666666679
1272.22,217.5746190476192
1274.37,230.6929047619049
1276.51,217.9684761904763
1278.66,202.0234285714287
1280.81,181.6706666666668
1282.95,177.19933333333344
1285.09,184.47000000000014
1287.23,220.20061904761917
1289.37,219.6327142857144
1291.51,230.5793809523811
1293.65,209.47295238095248
1295.78,171.6500476190477
1297.92,149.92385714285723
1300.05,128.2507857142858
1302.18,116.20590476190486
1304.31,120.22154761904767
1306.44,120.3968095238096
1308.57,131.78269047619057
1310.69,156.430761904762
1312.82,180.82085714285728
1314.94,186.7663333333334
1317.06,165.98500000000007
1319.18,152.8144285714287
1321.3,182.4960952380954
1323.41,216.1290000000002
1325.53,290.19290476190497
1327.64,351.5005714285716
1329.75,426.3890476190479
1331.87,446.2430000000002
1333.98,443.25614285714306
1336.08,411.4799523809526
1338.19,358.8222380952382
1340.3,332.2863333333335
1342.4,331.4470000000002
1344.5,275.25976190476206
1346.6,225.441761904762
1348.7,185.75823809523817
1350.8,140.02122857142865
1352.9,111.61482380952387
1354.99,116.97045714285721
1357.09,120.8049857142858
1359.18,157.73998095238107
1361.27,180.92072857142867
1363.36,190.68294285714293
1365.45,183.79061904761915
1367.54,185.81752380952392
1369.62,187.38447619047633
1371.7,229.4935714285716
1373.79,264.7178095238097
1375.87,277.67800000000017
1377.95,301.66133333333346
1380.03,299.09761904761916
1382.1,276.2260952380954
1384.18,251.61907619047628
1386.25,196.08705238095246
1388.33,142.3926095238096
1390.4,106.5841571428572
1392.47,81.89998095238101
1394.54,83.00695238095244
1396.6,82.66684761904766
1398.67,58.832052380952426
1400.74,53.07347619047623
1402.8,64.43831904761909
1404.86,62.306723809523845
1406.92,50.344423809523825
1408.98,50.02646666666668
1411.04,32.20867142857145
1413.09,26.175214285714336
1415.15,48.162595238095285
1417.2,77.07351904761911
1419.25,97.14421904761913
1421.3,137.9440238095239
1423.35,160.42288571428583
1425.4,164.1497238095239
1427.45,145.59814285714293
1429.49,137.4795238095239
1431.54,128.79119047619056
1433.58,123.05419047619054
1435.62,148.50328571428582
1437.66,170.46885714285725
1439.7,174.7094761904763
1441.74,176.26933333333344
1443.77,171.76380952380964
1445.81,167.04652380952393
1447.84,167.11361904761915
1449.87,167.58095238095248
1451.9,151.87342857142863
1453.93,141.6061904761906
1455.96,141.44190476190485
1457.98,157.90052380952392
1460.01,158.69252380952392
1462.03,191.9092857142859
1464.05,244.68966666666688
1466.07,306.41057142857164
1468.09,338.02009523809545
1470.11,377.70504761904783
1472.13,396.50914285714316
1474.14,412.99966666666694
1476.16,414.55352380952405
1478.17,384.500523809524
1480.18,340.169523809524
1482.19,281.12866666666685
1484.2,241.6596666666668
1486.21,208.23476190476202
1488.21,162.8025714285715
1490.22,121.16922857142865
1492.22,110.52128571428577
1494.22,81.33172380952387
1496.22,71.12082380952384
1498.22,54.78991904761908
1500.22,51.002461904761944
1502.22,40.46958571428574
1504.21,40.33108095238098
1506.21,45.06018571428573
1508.2,33.65407142857143
1510.19,5.395771428571429
1512.18,1.1875047619047612
1514.17,-6.115995238095224
1516.16,14.530585714285749
1518.14,44.98232380952384
1520.13,60.71344285714288
1522.11,62.67454761904765
1524.09,61.95928095238098
1526.07,55.99472000000004
1528.05,43.684236666666685
1530.03,36.16949714285716
1532.01,24.87799190476192
1533.98,25.046892380952407
1535.96,33.19919380952384
1537.93,52.66755333333337
1539.9,62.594252380952426
1541.87,67.83595238095242
1543.84,70.20183333333338
1545.81,87.31064761904769
1547.78,102.87674285714294
1549.74,119.28099523809533
1551.7,139.66635238095245
1553.67,143.84238095238103
1555.63,169.61880952380966
1557.59,177.09138095238103
1559.55,181.49904761904773
1561.5,194.31833333333344
1563.46,200.83566666666678
1565.41,189.62290476190486
1567.37,182.77614285714293
1569.32,144.10585714285722
1571.27,118.27995238095247
1573.22,143.58480952380964
1575.17,135.5456190476191
1577.11,140.63961904761914
1579.06,126.34447619047624
1581.0,122.56623809523819
1582.95,129.40138095238106
1584.89,168.23219047619057
1586.83,161.5839523809525
1588.77,178.50585714285722
1590.7,184.57114285714297
1592.64,174.59080952380964
1594.58,176.2807142857144
1596.51,189.6425714285717
1598.44,221.01138095238136
