Raman Shift,Processed Intensity
331.095,47.90516190476178
333.909,2.3758714285714717
336.721,-30.556785714285652
339.531,-49.12280952380954
342.339,-50.41008857142858
345.145,-34.36263857142856
347.949,-2.612058095238113
350.751,-15.359413809523836
353.55,-27.612815238095237
356.348,-6.3306480952380975
359.144,-23.04046476190477
361.937,-2.838995238095201
364.729,48.131690476190556
367.518,102.35067142857156
370.306,189.58481904761925
373.091,319.4608000000002
375.874,391.8450952380955
378.656,407.5587142857144
381.435,389.80579047619057
384.212,289.5540761904762
386.988,153.44003809523818
389.761,93.43578571428576
392.532,52.4673523809524
395.301,32.22465238095243
398.068,22.87572857142857
400.833,22.828366666666685
403.596,10.206604761904785
406.358,44.80280000000004
409.117,40.36353809523812
411.874,63.065576190476214
414.629,34.03968095238097
417.382,38.37076666666671
420.133,43.62110000000007
422.882,97.64050952380961
425.629,135.32770952380966
428.374,208.48729523809538
431.117,271.830142857143
433.858,329.64023809523826
436.597,296.72547619047634
439.334,278.8006666666668
442.069,229.48580952380962
444.802,192.02100000000016
447.533,181.93300000000013
450.262,230.5120476190478
452.989,235.0956190476192
455.714,282.4990952380954
458.438,289.77632380952394
461.159,235.26772857142865
463.878,174.36164761904774
466.595,145.49546190476198
469.31,144.01079047619058
472.024,163.29810952380961
474.735,180.176561904762
477.444,183.37057142857157
480.152,213.41438095238107
482.857,211.1288571428573
485.561,229.04900000000015
488.262,222.3290476190477
490.962,217.50433333333348
493.659,236.1108666666668
496.355,220.1604857142858
499.048,196.1416857142858
501.74,172.01918095238105
504.43,141.66220952380962
507.118,140.46424761904774
509.804,198.91415238095252
512.488,226.35719047619062
515.17,285.186523809524
517.85,315.89076190476203
520.528,275.2912857142858
523.204,210.54314285714295
525.878,170.70580952380962
528.551,137.9334285714287
531.221,139.76133333333343
533.89,171.67709523809532
536.556,175.92961904761916
539.221,161.2916666666667
541.883,154.10678095238106
544.544,128.7181857142858
547.203,106.5168476190477
549.86,116.89314761904768
552.515,121.57065714285721
555.168,139.12942380952393
557.819,200.19663809523823
560.469,221.92352380952394
563.116,248.17500000000013
565.761,226.72000000000006
568.405,216.66071428571445
571.047,192.05080952380968
573.687,196.27741904761916
576.324,166.48913333333343
578.96,158.26231428571438
581.594,128.74429523809536
584.227,151.03479047619058
586.857,172.89913333333345
589.485,209.67418095238105
592.112,213.45790476190487
594.737,206.72880952380962
597.359,176.91728571428584
599.98,163.31061904761916
602.599,146.9097142857144
605.216,178.00104761904774
607.831,206.29895238095247
610.445,219.70785714285728
613.056,218.17938095238105
615.666,213.75966666666676
618.274,185.78038095238108
620.88,187.0969523809525
623.484,207.89723809523827
626.086,232.89290476190496
628.686,294.03300000000024
631.284,347.02795238095257
633.881,347.3976666666668
636.476,333.18561904761924
639.068,330.2444285714287
641.659,307.95019047619064
644.249,288.72609523809535
646.836,253.09057142857154
649.421,189.2761523809525
652.005,142.51505714285722
654.587,115.84887619047625
657.166,89.79509047619051
659.745,79.39492380952386
662.321,42.308633333333354
664.895,40.5297666666667
667.468,30.76604761904764
670.038,38.39184761904766
672.607,65.11502380952388
675.174,100.35752380952384
677.739,102.82721428571435
680.303,115.27959047619052
682.864,106.70827619047624
685.424,93.4879571428572
687.982,77.46970000000003
690.538,67.21873333333338
693.092,60.06246666666669
695.645,38.51887142857144
698.195,17.677509523809533
700.744,31.00879904761908
703.291,29.5552085714286
705.836,36.7400581904762
708.38,23.320270333333323
710.921,11.95769400000001
713.461,-5.161842238095215
715.999,37.814309238095284
718.535,48.88200271428574
721.069,59.70377914285717
723.602,76.99012857142863
726.133,101.40407142857148
728.662,100.84688571428578
731.189,100.79159047619049
733.714,55.33011904761908
736.238,54.983466666666715
738.759,56.60582380952385
741.279,63.384980952381
743.798,84.69950000000003
746.314,82.83260000000003
748.829,73.49655238095247
751.342,107.02266666666672
753.853,99.74218095238102
756.362,100.93898571428579
758.869,109.37356190476196
761.375,77.47290476190481
763.879,83.7597333333334
766.381,90.28028095238098
768.882,76.98582857142861
771.38,78.35153809523814
773.877,64.28146190476191
776.372,38.44155238095243
778.866,48.069371428571465
781.357,62.640519047619094
783.847,70.5833047619048
786.335,74.75465714285718
788.821,55.58305238095242
791.306,66.83039523809529
793.789,80.78261904761912
796.27,110.29661428571436
798.749,141.89686666666677
801.227,146.0596857142858
803.702,159.166761904762
806.176,192.7424761904763
808.649,213.88300000000012
811.119,216.49352380952394
813.588,217.86061904761917
816.055,195.08057142857155
818.521,194.3447333333334
820.984,173.36855714285724
823.446,133.1057428571429
825.906,108.74812857142864
828.365,112.72532380952387
830.821,102.08658571428579
833.276,134.64256190476198
835.729,133.2520476190477
838.181,131.20240952380962
840.631,157.0192285714287
843.079,177.27537142857153
845.525,147.82980952380962
847.97,151.92274285714294
850.412,115.17487619047624
852.854,102.30246666666673
855.293,91.92639523809528
857.731,89.85816190476196
860.167,75.48080000000006
862.601,84.12973333333339
865.034,79.33082380952385
867.465,89.08627619047626
869.894,103.9220857142858
872.321,125.07866666666675
874.747,125.36752380952389
877.171,113.1718047619048
879.594,89.87480000000004
882.014,71.05028571428576
884.433,80.55775238095245
886.851,94.16143809523818
889.266,131.33980476190487
891.68,155.76160476190483
894.092,170.76272380952392
896.503,201.29766666666677
898.912,215.79738095238105
901.319,192.9785238095239
903.724,184.89142857142866
906.128,156.680761904762
908.53,151.3970000000001
910.931,183.85157142857153
913.329,190.0465238095239
915.726,162.88885714285723
918.122,171.38133333333346
920.516,153.14471428571437
922.908,150.94371428571438
925.298,156.11357142857153
927.687,144.98938095238105
930.074,129.04961904761916
932.459,164.96323809523818
934.843,175.73215238095247
937.225,167.64419047619054
939.605,148.36781428571433
941.984,111.47615714285719
944.361,98.39981904761912
946.736,84.75974523809529
949.11,75.5101428571429
951.482,66.55732142857146
953.853,49.71254285714289
956.222,49.73917380952388
958.589,101.30547619047627
960.954,127.41298571428581
963.318,153.96772857142864
965.68,143.6854571428572
968.041,101.28180476190481
970.4,77.2338952380953
972.757,97.44796666666674
975.113,98.63932857142863
977.467,106.52318000000004
979.819,65.67203238095239
982.17,48.13441714285719
984.519,50.53002476190481
986.866,69.66943142857147
989.212,59.83898952380957
991.556,89.5631133333334
993.899,126.27100000000013
996.24,176.72520476190485
998.579,203.259561904762
1000.92,203.3029238095239
1003.25,158.04609523809532
1005.59,133.44157142857154
1007.92,134.68047619047627
1010.25,126.23909523809533
1012.58,134.92723809523818
1014.91,155.8877142857144
1017.24,172.83476190476202
1019.56,188.14909523809538
1021.88,183.8788571428572
1024.2,187.40466666666677
1026.52,199.53580952380966
1028.84,233.6530952380954
1031.16,266.56585714285734
1033.48,282.51171428571445
1035.79,276.1095714285716
1038.1,313.21619047619066
1040.41,350.44995238095265
1042.72,404.7153809523811
1045.03,390.2978095238097
1047.33,356.5778095238097
1049.64,292.9354761904763
1051.94,284.22752380952403
1054.24,270.35790476190493
1056.54,281.04028571428586
1058.84,269.9406190476192
1061.13,260.6296666666668
1063.43,232.29700000000014
1065.72,236.51366666666678
1068.01,229.85009523809538
1070.3,234.92447619047635
1072.59,260.6405714285716
1074.87,272.42623809523826
1077.16,286.1852857142859
1079.44,321.773904761905
1081.72,348.4292380952383
1084.0,385.7693809523812
1086.28,459.03147619047655
1088.56,534.4049523809527
1090.84,643.4124761904767
1093.11,760.5767142857147
1095.38,775.3255238095243
1097.65,708.6577619047623
1099.92,604.0961904761908
1102.19,485.2586666666669
1104.46,420.33433333333363
1106.72,412.464904761905
1108.98,414.45923809523833
1111.24,439.69690476190505
1113.5,507.27209523809563
1115.76,567.5646190476194
1118.02,613.8110000000004
1120.28,640.6294285714289
1122.53,615.2570000000003
1124.78,590.1208095238098
1127.03,541.5057619047622
1129.28,462.1248095238098
1131.53,391.3099523809526
1133.77,364.82228571428595
1136.02,334.9936666666669
1138.26,324.2992857142859
1140.5,305.3096190476192
1142.74,276.0710476190478
1144.98,267.48709523809543
1147.22,296.4612857142859
1149.45,316.897142857143
1151.69,298.88928571428585
1153.92,271.4365238095239
1156.15,250.6328571428573
1158.38,237.9536190476192
1160.61,233.92128571428586
1162.83,239.67786666666677
1165.06,204.84155714285725
1167.28,151.69692380952392
1169.5,140.90949047619057
1171.72,142.907161904762
1173.94,144.16489047619058
1176.16,174.44415238095246
1178.37,162.50571428571433
1180.58,125.72966666666673
1182.8,109.92461904761912
1185.01,123.32800000000007
1187.22,130.5102857142858
1189.42,121.75661904761911
1191.63,115.39942857142863
1193.84,110.91433333333342
1196.04,119.63414285714296
1198.24,161.03426666666675
1200.44,160.82855238095243
1202.64,138.8258095238096
1204.84,124.59703809523815
1207.03,105.95125238095244
1209.23,66.74536428571433
1211.42,61.788138095238125
1213.61,52.55552619047626
1215.8,71.90446190476197
1217.99,87.35847380952387
1220.18,108.01282380952387
1222.36,98.39071904761911
1224.55,104.01589523809533
1226.73,132.3169095238096
1228.91,127.48413809523817
1231.09,128.4696761904763
1233.27,123.55985238095245
1235.44,133.13491428571436
1237.62,129.9096714285715
1239.79,137.40821904761913
1241.96,147.29723809523819
1244.13,177.81466666666677
1246.3,213.91376190476205
1248.47,257.7846666666668
1250.64,254.85642857142875
1252.8,262.84380952380974
1254.96,297.50900000000024
1257.13,358.23328571428596
1259.29,402.68366666666685
1261.44,427.1462380952384
1263.6,423.81204761904786
1265.76,412.4913333333336
1267.91,397.7083809523812
1270.06,388.2734285714288
1272.22,374.0435714285716
1274.37,383.68633333333355
1276.51,383.77380952380975
1278.66,363.30695238095257
1280.81,351.09595238095255
1282.95,333.28433333333356
1285.09,337.824904761905
1287.23,363.57571428571447
1289.37,352.1088095238097
1291.51,327.9490476190478
1293.65,317.2400952380954
1295.78,300.0303333333335
1297.92,288.9396190476192
1300.05,295.0166190476192
1302.18,285.4522380952383
1304.31,275.29538095238115
1306.44,274.0707142857144
1308.57,264.77928571428595
1310.69,284.5171428571431
1312.82,317.71385714285736
1314.94,329.8464761904764
1317.06,342.91614285714303
1319.18,369.3999523809526
1321.3,379.7752857142859
1323.41,409.9003333333336
1325.53,469.6807619047622
1327.64,513.4510000000004
1329.75,553.6880952380956
1331.87,610.7739523809528
1333.98,603.710047619048
1336.08,588.1164761904765
1338.19,547.8514285714289
1340.3,507.34452380952416
1342.4,472.501285714286
1344.5,464.3230476190478
1346.6,423.00176190476213
1348.7,384.7760952380955
1350.8,338.7427619047621
1352.9,313.7120952380954
1354.99,318.54223809523825
1357.09,343.09176190476217
1359.18,361.8381904761907
1361.27,341.21100000000024
1363.36,345.9732380952383
1365.45,347.69709523809547
1367.54,374.1457142857146
1369.62,390.2725714285716
1371.7,412.93628571428593
1373.79,408.23290476190505
1375.87,434.21104761904786
1377.95,433.5383809523812
1380.03,431.0258571428574
1382.1,423.34104761904786
1384.18,387.15176190476217
1386.25,363.1257142857145
1388.33,350.5018571428573
1390.4,313.75728571428584
1392.47,291.41728571428587
1394.54,254.1492857142858
1396.6,218.62095238095253
1398.67,206.11904761904776
1400.74,210.59671428571443
1402.8,229.0073333333335
1404.86,253.49490476190493
1406.92,239.0128571428573
1408.98,242.60933333333347
1411.04,242.76147619047637
1413.09,243.8035714285716
1415.15,247.35580952380968
1417.2,249.08542857142874
1419.25,263.61252380952396
1421.3,280.74695238095256
1423.35,304.53742857142873
1425.4,291.60357142857157
1427.45,263.899142857143
1429.49,237.75761904761924
1431.54,230.3703809523811
1433.58,232.21419047619062
1435.62,221.67061904761917
1437.66,209.93057142857157
1439.7,205.4236666666668
1441.74,219.1978571428573
1443.77,213.49166666666676
1445.81,216.35352380952392
1447.84,197.73628571428583
1449.87,191.06861904761917
1451.9,197.3034285714287
1453.93,216.48890476190488
1455.96,202.33976190476204
1457.98,213.7133809523811
1460.01,214.9914285714287
1462.03,232.173523809524
1464.05,260.87909523809543
1466.07,312.1086666666669
1468.09,358.43371428571453
1470.11,401.37795238095265
1472.13,438.9895238095241
1474.14,454.41095238095255
1476.16,440.2614761904764
1478.17,402.1603333333336
1480.18,359.5354285714288
1482.19,285.76800000000014
1484.2,245.953142857143
1486.21,200.3767142857144
1488.21,164.94314285714296
1490.22,137.0808095238096
1492.22,139.9794952380953
1494.22,105.68663809523815
1496.22,112.58267333333339
1498.22,85.14371380952383
1500.22,59.892960952380996
1502.22,64.40145285714291
1504.21,67.90661809523813
1506.21,45.12210904761909
1508.2,61.856744761904785
1510.19,50.871800000000036
1512.18,58.54747142857148
1514.17,71.59726190476192
1516.16,55.35362380952382
1518.14,36.00615142857145
1520.13,20.411096666666676
1522.11,19.99612666666669
1524.09,19.33171285714286
1526.07,14.559769523809535
1528.05,15.250782380952398
1530.03,23.9751704761905
1532.01,23.970142857142886
1533.98,39.425195238095256
1535.96,51.57750190476194
1537.93,48.52138523809526
1539.9,44.54161809523812
1541.87,41.637281428571455
1543.84,44.47430380952386
1545.81,68.24189476190483
1547.78,103.60627809523815
1549.74,115.61385714285721
1551.7,127.26400952380959
1553.67,131.41295238095245
1555.63,119.58357142857149
1557.59,130.77490476190485
1559.55,134.74847619047628
1561.5,131.40771428571438
1563.46,134.4663333333334
1565.41,145.9232857142858
1567.37,144.5874285714287
1569.32,170.60114285714297
1571.27,174.01114285714294
1573.22,154.1972857142858
1575.17,137.53994285714293
1577.11,119.80008571428579
1579.06,117.26293333333342
1581.0,125.21334285714293
1582.95,125.03155238095246
1584.89,132.05004761904772
1586.83,120.93502380952387
1588.77,134.82859047619058
1590.7,162.9680142857144
1592.64,168.40006666666676
1594.58,176.55280476190492
1596.51,179.37789047619066
1598.44,175.37464047619068
