Raman Shift,Processed Intensity
331.095,-35.43472523809499
333.909,-10.979856190476
336.721,-8.913571904761739
339.531,-13.962705714285715
342.339,12.4071161904762
345.145,13.993134285714312
347.949,48.547634285714324
350.751,51.44395238095237
353.55,8.152661904761896
356.348,-12.044064761904766
359.144,-15.33822428571429
361.937,-35.34829142857141
364.729,21.499519523809578
367.518,59.82926095238105
370.306,150.0759042857145
373.091,301.8196828571431
375.874,427.8805428571431
378.656,432.65166666666687
381.435,387.86135238095255
384.212,248.00250000000008
386.988,126.94996666666671
389.761,68.10469523809529
392.532,56.44042095238098
395.301,34.50397809523812
398.068,32.51072285714287
400.833,12.77317190476191
403.596,11.557665714285735
406.358,26.989427142857167
409.117,39.14762476190478
411.874,11.351162380952374
414.629,0.20616761904762093
417.382,6.082417142857185
420.133,34.87475619047626
422.882,86.33692285714295
425.629,151.89063809523822
428.374,213.33981904761924
431.117,258.9660000000002
433.858,292.62347619047637
436.597,297.8343333333335
439.334,266.5029047619049
442.069,246.39171428571444
444.802,253.31176190476202
447.533,223.1701904761906
450.262,236.87528571428592
452.989,289.19290476190497
455.714,324.41390476190503
458.438,332.687142857143
461.159,294.0193333333334
463.878,218.46519047619057
466.595,152.27083333333343
469.31,121.01580952380962
472.024,125.42340476190486
474.735,158.50338095238106
477.444,186.02745238095247
480.152,211.7680000000001
482.857,198.21195238095248
485.561,199.79895238095253
488.262,212.25452380952396
490.962,244.54290476190494
493.659,251.1993904761906
496.355,209.1887714285715
499.048,143.3329238095239
501.74,125.21565714285722
504.43,137.70649523809536
507.118,183.24643809523826
509.804,198.94334285714297
512.488,224.42866666666683
515.17,255.42971428571445
517.85,281.48271428571445
520.528,277.7431047619049
523.204,221.366080952381
525.878,137.03056190476198
528.551,92.84381904761912
531.221,92.19910476190485
533.89,113.63180000000008
536.556,140.24911428571437
539.221,116.1098714285715
541.883,105.3202952380953
544.544,95.17736190476198
547.203,103.50103809523819
549.86,115.73030476190483
552.515,140.1136857142858
555.168,143.4700476190477
557.819,148.52342857142867
560.469,159.28280952380962
563.116,166.18552380952391
565.761,170.23985714285726
568.405,192.4541904761906
571.047,211.6929523809525
573.687,221.29681904761912
576.324,201.36774761904772
578.96,149.5789238095239
581.594,118.22187142857152
584.227,124.87369523809534
586.857,126.53940000000009
589.485,146.8425333333334
592.112,140.97792380952387
594.737,105.04455238095247
597.359,120.04574285714295
599.98,133.9366857142858
602.599,153.43410000000011
605.216,183.4921714285715
607.831,196.35042857142867
610.445,178.72428571428583
613.056,187.9950952380953
615.666,153.49633333333338
618.274,122.94214285714295
620.88,126.90285714285724
623.484,166.94904761904775
626.086,216.88842857142873
628.686,264.5760476190478
631.284,318.34242857142874
633.881,328.3277142857145
636.476,353.3378571428574
639.068,356.6553809523811
641.659,336.5139047619049
644.249,272.1472761904763
646.836,216.5502380952382
649.421,140.90825238095246
652.005,113.26326666666672
654.587,86.2765571428572
657.166,72.27530952380957
659.745,64.58669523809526
662.321,38.108835714285725
664.895,17.549333333333358
667.468,17.85347857142858
670.038,21.34770000000003
672.607,28.500930952380987
675.174,56.44880476190482
677.739,101.85033809523819
680.303,109.41251428571435
682.864,127.55647047619055
685.424,106.5126085714286
687.982,74.22572666666672
690.538,63.11683809523814
693.092,65.03528523809526
695.645,34.878535238095274
698.195,46.59159380952382
700.744,30.92895142857144
703.291,1.5025176190476142
705.836,-0.5043066666666656
708.38,1.9492457142857242
710.921,1.1898685714285868
713.461,13.306364761904783
715.999,40.29257523809526
718.535,30.618701904761934
721.069,56.94574380952386
723.602,69.12519619047622
726.133,80.00912857142863
728.662,88.16366190476194
731.189,80.72680000000004
733.714,58.21767142857146
736.238,55.917642857142894
738.759,54.01265238095244
741.279,76.78476666666673
743.798,95.27733809523815
746.314,110.62954761904768
748.829,116.98108571428578
751.342,130.7093333333334
753.853,140.95380952380958
756.362,137.90223809523818
758.869,111.36104761904767
761.375,108.47042857142864
763.879,116.32339047619057
766.381,115.58420000000007
768.882,113.10790952380958
771.38,89.22590000000002
773.877,48.69820000000004
776.372,56.90396666666673
778.866,87.74639047619056
781.357,120.60507142857153
783.847,163.05038571428582
786.335,158.22416190476198
788.821,153.2204761904763
791.306,171.46709523809534
793.789,169.4872857142858
796.27,187.66123809523822
798.749,184.51271428571437
801.227,161.08909523809535
803.702,180.3421904761906
806.176,222.12919047619062
808.649,250.68833333333345
811.119,254.2579523809525
813.588,217.07680952380963
816.055,195.57376190476205
818.521,218.70166666666682
820.984,221.79438095238106
823.446,202.90038095238103
825.906,161.63976190476197
828.365,139.06104761904774
830.821,136.87938095238107
833.276,175.00066666666675
835.729,172.33090476190483
838.181,177.96690476190489
840.631,179.38647619047632
843.079,212.400542857143
845.525,187.2962571428572
847.97,175.21808571428582
850.412,151.97745714285725
852.854,148.05211428571437
855.293,127.20611904761911
857.731,134.10802857142863
860.167,108.66480476190483
862.601,119.73543809523818
865.034,135.65576666666675
867.465,135.4276952380953
869.894,114.3390952380953
872.321,124.39257142857151
874.747,142.59058095238106
877.171,150.649461904762
879.594,166.52435238095248
882.014,156.8843476190477
884.433,148.77925714285726
886.851,171.40274761904774
889.266,208.5666761904763
891.68,212.84533333333349
894.092,223.71723809523823
896.503,224.9471904761906
898.912,203.63285714285726
901.319,197.30114285714302
903.724,198.24042857142868
906.128,205.35842857142873
908.53,200.94333333333344
910.931,210.85542857142872
913.329,202.4781904761906
915.726,200.62419047619056
918.122,189.91528571428583
920.516,184.25909523809534
922.908,157.61047619047628
925.298,152.5440000000001
927.687,145.6338095238096
930.074,136.88290476190485
932.459,142.19847619047627
934.843,146.01209523809533
937.225,132.51671428571436
939.605,126.00106666666673
941.984,90.03935238095241
944.361,74.72956190476197
946.736,77.02635238095245
949.11,85.45640952380958
951.482,95.73652380952389
953.853,114.86919047619054
956.222,97.80940476190482
958.589,94.89312380952386
960.954,90.17032857142863
963.318,98.9291333333334
965.68,114.02890000000009
968.041,132.13837142857147
970.4,121.97415333333338
972.757,85.58616523809528
975.113,50.97650190476193
977.467,31.337793809523824
979.819,14.624389523809542
982.17,11.266616666666692
984.519,30.742703809523846
986.866,65.19716571428579
989.212,86.77448285714291
991.556,109.80955428571434
993.899,110.30390952380957
996.24,117.4019238095239
998.579,132.72412857142865
1000.92,166.03381904761912
1003.25,156.23694285714294
1005.59,139.8583714285715
1007.92,120.37555238095246
1010.25,110.59881904761913
1012.58,103.67207619047626
1014.91,118.21522857142864
1017.24,118.46703809523818
1019.56,138.57138095238105
1021.88,154.48133333333342
1024.2,161.00695238095247
1026.52,158.33971428571436
1028.84,164.62238095238106
1031.16,157.14133333333345
1033.48,186.70652380952396
1035.79,221.22304761904775
1038.1,254.1675714285716
1040.41,289.39747619047637
1042.72,309.72219047619063
1045.03,311.85623809523827
1047.33,291.03757142857154
1049.64,258.64757142857155
1051.94,203.5434285714287
1054.24,169.67730476190485
1056.54,129.1442571428572
1058.84,117.42027619047626
1061.13,102.88602857142862
1063.43,115.30313333333343
1065.72,132.2431142857144
1068.01,155.41963809523818
1070.3,158.40385714285722
1072.59,165.1955238095239
1074.87,178.6988571428573
1077.16,195.19880952380964
1079.44,224.36176190476206
1081.72,248.71100000000015
1084.0,258.531523809524
1086.28,337.2513809523812
1088.56,452.29861904761935
1090.84,558.4818571428575
1093.11,679.419428571429
1095.38,744.7300000000004
1097.65,678.9362857142861
1099.92,591.2281428571431
1102.19,466.55700000000024
1104.46,349.8266666666669
1106.72,301.2746190476193
1108.98,327.233285714286
1111.24,370.4160952380955
1113.5,446.58414285714315
1115.76,542.2598571428575
1118.02,593.8711428571431
1120.28,604.0837619047622
1122.53,596.7060952380955
1124.78,538.070523809524
1127.03,467.8429523809527
1129.28,404.68852380952393
1131.53,318.27352380952397
1133.77,249.1678095238097
1136.02,216.418142857143
1138.26,180.8329523809525
1140.5,187.50666666666677
1142.74,198.5332380952382
1144.98,203.14985714285726
1147.22,231.7837142857144
1149.45,221.0054285714287
1151.69,212.14704761904773
1153.92,216.68413333333345
1156.15,190.47259523809535
1158.38,159.84448571428578
1160.61,136.65601428571432
1162.83,83.66799523809527
1165.06,58.40313333333337
1167.28,66.289080952381
1169.5,76.46765619047623
1171.72,70.03309190476193
1173.94,54.74631714285717
1176.16,50.55870333333337
1178.37,50.231202857142904
1180.58,50.14363952380956
1182.8,68.9618504761905
1185.01,53.11345857142858
1187.22,30.311835238095252
1189.42,12.50845238095239
1191.63,17.416743809523815
1193.84,3.702523809523828
1196.04,26.74590190476193
1198.24,38.64130619047621
1200.44,29.816518095238113
1202.64,39.79457904761909
1204.84,43.670000476190495
1207.03,37.5849485714286
1209.23,35.53874476190477
1211.42,20.673591428571438
1213.61,14.369830476190502
1215.8,22.86495428571429
1217.99,19.634614761904782
1220.18,29.821177142857156
1222.36,18.519407619047623
1224.55,8.633608571428592
1226.73,26.06818000000002
1228.91,31.29894761904765
1231.09,31.801838095238118
1233.27,32.19566666666669
1235.44,48.003923809523855
1237.62,50.70262857142862
1239.79,75.91065238095244
1241.96,98.67541428571433
1244.13,97.75879047619053
1246.3,111.16042857142867
1248.47,132.45147619047628
1250.64,155.63204761904774
1252.8,196.4162380952382
1254.96,243.94700000000014
1257.13,271.6529523809525
1259.29,305.2955714285716
1261.44,322.82728571428595
1263.6,348.15295238095257
1265.76,348.93895238095257
1267.91,330.28080952380975
1270.06,312.1784285714287
1272.22,285.9175714285716
1274.37,283.4031904761907
1276.51,313.0636666666669
1278.66,323.7560000000002
1280.81,309.95661904761926
1282.95,310.3322857142859
1285.09,291.8357619047621
1287.23,273.5624285714287
1289.37,277.84552380952397
1291.51,274.3992380952382
1293.65,262.89038095238107
1295.78,251.89066666666682
1297.92,240.1624285714287
1300.05,213.3246666666668
1302.18,197.6156190476192
1304.31,209.083142857143
1306.44,236.632142857143
1308.57,276.97709523809544
1310.69,315.9757142857145
1312.82,312.48514285714305
1314.94,300.83871428571445
1317.06,299.46566666666683
1319.18,315.84195238095265
1321.3,349.06328571428594
1323.41,406.7015714285717
1325.53,435.99519047619077
1327.64,463.277285714286
1329.75,518.977285714286
1331.87,560.428428571429
1333.98,589.7740476190479
1336.08,609.3476190476193
1338.19,571.0069523809527
1340.3,528.5615238095241
1342.4,502.3453333333336
1344.5,441.59661904761924
1346.6,418.17290476190504
1348.7,396.6934761904764
1350.8,362.01604761904787
1352.9,341.75985714285736
1354.99,316.2588095238097
1357.09,297.7509523809526
1359.18,313.8085714285716
1361.27,324.38414285714305
1363.36,350.9542857142859
1365.45,372.61452380952403
1367.54,357.3655714285716
1369.62,375.5407619047621
1371.7,371.8550952380955
1373.79,392.02285714285745
1375.87,434.7592380952384
1377.95,476.6357142857146
1380.03,473.17680952380977
1382.1,470.1444761904764
1384.18,416.8724285714287
1386.25,377.59909523809546
1388.33,335.4204761904764
1390.4,316.19409523809543
1392.47,307.25395238095257
1394.54,292.3143809523811
1396.6,289.8520000000002
1398.67,267.7242857142859
1400.74,265.0268571428573
1402.8,272.7602857142859
1404.86,264.92485714285726
1406.92,253.33076190476208
1408.98,251.35909523809536
1411.04,225.62952380952396
1413.09,242.66614285714303
1415.15,254.18366666666685
1417.2,262.46809523809543
1419.25,292.52004761904783
1421.3,288.6730000000001
1423.35,260.49904761904776
1425.4,266.18904761904776
1427.45,244.50514285714303
1429.49,249.35266666666683
1431.54,272.92228571428586
1433.58,275.357142857143
1435.62,257.6577619047621
1437.66,278.58642857142877
1439.7,279.7625714285716
1441.74,285.28195238095253
1443.77,308.47819047619066
1445.81,294.6848095238097
1447.84,269.2358095238097
1449.87,263.5596666666668
1451.9,254.03800000000015
1453.93,239.76623809523824
1455.96,250.4589523809525
1457.98,244.30723809523823
1460.01,244.69219047619063
1462.03,269.614142857143
1464.05,299.8828571428573
1466.07,341.68900000000025
1468.09,381.69971428571455
1470.11,404.53442857142875
1472.13,408.6694285714288
1474.14,408.9148095238097
1476.16,384.2226666666669
1478.17,386.64119047619073
1480.18,372.9800952380955
1482.19,336.6680000000001
1484.2,295.8960476190477
1486.21,231.2358095238096
1488.21,161.734761904762
1490.22,169.25078095238106
1492.22,161.25981428571436
1494.22,144.1430476190477
1496.22,145.13887142857146
1498.22,112.96164761904767
1500.22,83.89714476190481
1502.22,73.99340857142857
1504.21,32.67896047619049
1506.21,10.43014952380955
1508.2,25.389875714285743
1510.19,38.93924857142861
1512.18,60.69737285714289
1514.17,69.37859714285717
1516.16,51.88776666666669
1518.14,45.986809523809555
1520.13,60.29485714285718
1522.11,71.52615238095242
1524.09,58.15691428571431
1526.07,47.52044285714287
1528.05,20.854847714285718
1530.03,-7.5542037142857
1532.01,15.721880666666697
1533.98,34.587743714285736
1535.96,48.519566380952426
1537.93,62.89820580952384
1539.9,64.39021676190478
1541.87,66.85280000000006
1543.84,77.47615714285718
1545.81,66.45067619047623
1547.78,67.25236190476194
1549.74,75.73832380952389
1551.7,103.09892857142867
1553.67,151.61996190476202
1555.63,161.11038095238104
1557.59,150.47505714285722
1559.55,129.14201904761913
1561.5,128.53981904761915
1563.46,145.81116190476197
1565.41,155.28937619047628
1567.37,134.16457619047625
1569.32,111.9605095238096
1571.27,97.9623857142858
1573.22,110.55110952380961
1575.17,128.20244285714293
1577.11,147.67821904761914
1579.06,140.40683809523816
1581.0,129.6260571428572
1582.95,132.57360000000006
1584.89,120.7255190476191
1586.83,117.55771428571438
1588.77,123.06980476190483
1590.7,140.9284000000001
1592.64,153.94236666666677
1594.58,175.94472380952388
1596.51,179.07823095238095
1598.44,147.50937142857128
