Raman Shift,Processed Intensity
331.095,40.88616261904764
333.909,-15.64381714285706
336.721,-25.808911428571264
339.531,-8.83981523809522
342.339,8.151404285714293
345.145,19.48180190476193
347.949,46.94624523809526
350.751,32.15041428571428
353.55,-6.870095238095256
356.348,-13.697247619047621
359.144,-14.006738095238065
361.937,14.81298571428577
364.729,55.42274761904766
367.518,92.29478571428581
370.306,162.61691904761923
373.091,274.62670000000026
375.874,371.6108666666669
378.656,434.953523809524
381.435,395.32582857142864
384.212,305.6392523809525
386.988,164.28293809523814
389.761,52.1246142857143
392.532,-17.299576190476184
395.301,-31.07012380952381
398.068,-33.50405238095238
400.833,6.2267571428571316
403.596,-25.285642857142875
406.358,-15.828009523809524
409.117,-16.423238095238112
411.874,-15.66352857142856
414.629,2.146604761904788
417.382,27.51402380952382
420.133,32.709676190476245
422.882,76.72030476190484
425.629,133.72494761904775
428.374,208.761342857143
431.117,298.4882190476192
433.858,332.42276190476207
436.597,324.79814285714303
439.334,272.3248095238097
442.069,216.19076190476204
444.802,212.72819047619063
447.533,219.65176190476205
450.262,254.2962857142859
452.989,270.5690952380954
455.714,275.5688095238097
458.438,270.39500000000015
461.159,271.0054761904763
463.878,219.6922857142858
466.595,180.84342857142863
469.31,120.7052857142858
472.024,121.00057142857153
474.735,132.45295238095247
477.444,144.69161904761916
480.152,160.63190476190488
482.857,173.23733333333345
485.561,179.4719047619049
488.262,214.63338095238112
490.962,238.35347619047633
493.659,229.64500000000012
496.355,193.8545238095239
499.048,159.4718095238096
501.74,127.27238095238104
504.43,138.88933333333347
507.118,173.57480952380965
509.804,220.20019047619064
512.488,258.49400000000014
515.17,306.04204761904776
517.85,312.04966666666684
520.528,292.816761904762
523.204,268.69076190476204
525.878,234.06719047619058
528.551,211.05528571428584
531.221,186.8598095238096
533.89,164.16157142857153
536.556,142.59289523809534
539.221,128.97680000000008
541.883,109.70750476190484
544.544,106.32200952380958
547.203,107.30945714285726
549.86,152.9205142857144
552.515,198.21461904761915
555.168,177.2514142857144
557.819,173.23273333333344
560.469,183.07434761904776
563.116,187.4537809523811
565.761,210.3336047619049
568.405,223.62834285714297
571.047,181.68080952380964
573.687,180.16661904761915
576.324,174.57033333333342
578.96,162.04314285714298
581.594,150.44971428571438
584.227,164.368161904762
586.857,144.23363809523818
589.485,147.19503809523817
592.112,158.06712380952393
594.737,185.28346666666675
597.359,176.32478095238105
599.98,185.57535238095247
602.599,198.61004761904775
605.216,210.05109523809537
607.831,236.8050000000001
610.445,241.6829047619049
613.056,197.20942857142867
615.666,157.81376190476203
618.274,157.82876190476202
620.88,176.06385714285727
623.484,212.99342857142875
626.086,261.854142857143
628.686,315.9767142857145
631.284,360.5014285714288
633.881,399.5194285714289
636.476,428.83690476190503
639.068,474.2584761904765
641.659,457.3508571428574
644.249,459.44180952380975
646.836,411.38261904761924
649.421,346.1664571428573
652.005,256.78700095238105
654.587,170.61782476190479
657.166,68.0321495238096
659.745,57.402946666666715
662.321,45.912487619047674
664.895,75.74244761904768
667.468,72.36028333333336
670.038,52.947150476190515
672.607,63.827298571428635
675.174,72.13380761904766
677.739,80.99995857142864
680.303,95.03482761904765
682.864,71.89508571428576
685.424,67.61820000000004
687.982,58.71817380952383
690.538,41.27991904761908
693.092,58.96014904761908
695.645,60.41538000000002
698.195,45.0642004761905
700.744,60.08723904761907
703.291,19.6652361904762
705.836,27.07435619047623
708.38,12.87670857142856
710.921,25.96796190476195
713.461,43.24412380952385
715.999,52.83962380952383
718.535,52.17494285714291
721.069,80.90887142857146
723.602,56.510119047619106
726.133,88.11432285714291
728.662,81.66704190476192
731.189,50.68554095238101
733.714,54.068500952381
736.238,90.9525076190477
738.759,106.95107047619055
741.279,154.63037047619056
743.798,152.27084285714295
746.314,160.05831428571437
748.829,142.2261857142858
751.342,136.81764761904768
753.853,112.35251428571436
756.362,127.16051428571436
758.869,109.80929047619053
761.375,121.91500000000008
763.879,123.90271904761912
766.381,114.67470476190485
768.882,134.6094714285715
771.38,154.9426095238096
773.877,135.43399523809532
776.372,128.08180000000007
778.866,125.36033809523816
781.357,113.50656190476198
783.847,118.13856666666673
786.335,124.11216190476199
788.821,127.28376190476197
791.306,134.6048571428572
793.789,154.31357142857152
796.27,180.88585714285722
798.749,192.17900000000014
801.227,210.33604761904775
803.702,237.92838095238113
806.176,256.52814285714305
808.649,270.8029047619049
811.119,279.6583809523811
813.588,292.42909523809544
816.055,272.5925714285716
818.521,247.62576190476202
820.984,220.29261904761916
823.446,183.49938095238105
825.906,160.7720000000001
828.365,173.63633333333345
830.821,176.47528571428583
833.276,205.10057142857158
835.729,234.0861904761906
838.181,246.1966190476192
840.631,249.0535047619049
843.079,200.5169333333334
845.525,174.82786666666678
847.97,162.89411428571438
850.412,152.71881904761912
852.854,159.35274285714297
855.293,134.2754571428572
857.731,93.10936190476198
860.167,86.715480952381
862.601,85.57333333333341
865.034,91.73453333333339
867.465,121.25021904761911
869.894,116.17214285714292
872.321,108.21822380952386
874.747,95.77382380952386
877.171,104.31902380952388
879.594,104.52474285714293
882.014,113.20446190476198
884.433,145.93387619047627
886.851,163.81276190476203
889.266,194.79804761904776
891.68,219.7989047619049
894.092,221.0100000000001
896.503,181.57866666666675
898.912,171.50919047619058
901.319,162.99695238095248
903.724,193.52285714285728
906.128,230.2818571428573
908.53,264.2785714285716
910.931,235.70809523809532
913.329,204.09871428571438
915.726,170.3599047619049
918.122,157.44885714285724
920.516,164.8938095238096
922.908,169.08057142857152
925.298,158.4895238095239
927.687,161.74457142857153
930.074,173.04061904761915
932.459,172.00162857142865
934.843,150.77489047619054
937.225,120.031580952381
939.605,91.06168095238101
941.984,82.20309809523815
944.361,72.03148571428575
946.736,50.21808142857144
949.11,21.62420095238097
951.482,17.349372857142882
953.853,36.01665428571434
956.222,68.05889380952385
958.589,62.48017666666669
960.954,47.236859047619056
963.318,35.47571095238098
965.68,38.629154285714336
968.041,58.034063333333364
970.4,60.45617857142859
972.757,30.23237333333334
975.113,18.31850619047621
977.467,18.003628571428596
979.819,36.86244523809527
982.17,35.46949428571429
984.519,31.113505714285733
986.866,29.74973809523813
989.212,51.476104761904814
991.556,77.58085238095245
993.899,117.78080000000006
996.24,132.50708095238102
998.579,108.14259523809528
1000.92,94.30832380952386
1003.25,82.95830000000004
1005.59,63.998780952381
1007.92,61.95503809523813
1010.25,57.44748571428572
1012.58,26.286371428571467
1014.91,45.901028571428625
1017.24,89.33948571428579
1019.56,117.69729523809531
1021.88,119.022080952381
1024.2,115.83760000000005
1026.52,110.4290000000001
1028.84,153.89080952380968
1031.16,215.60319047619063
1033.48,245.99376190476204
1035.79,246.10909523809542
1038.1,257.13828571428587
1040.41,290.2223333333336
1042.72,331.4070000000002
1045.03,356.1192380952383
1047.33,320.5470952380954
1049.64,248.9745238095239
1051.94,169.20842857142867
1054.24,149.91280952380964
1056.54,152.75157142857154
1058.84,167.96009523809533
1061.13,163.72557142857153
1063.43,170.52171428571438
1065.72,176.77361904761918
1068.01,188.23985714285723
1070.3,198.01223809523822
1072.59,160.84900000000007
1074.87,156.1753809523811
1077.16,168.13033333333348
1079.44,228.09100000000018
1081.72,298.95833333333354
1084.0,390.2044285714288
1086.28,445.1587619047622
1088.56,551.7695714285718
1090.84,631.1753809523814
1093.11,714.2770476190481
1095.38,743.3083333333337
1097.65,701.1219047619051
1099.92,590.7138571428575
1102.19,488.60304761904786
1104.46,419.21423809523833
1106.72,394.2093809523812
1108.98,407.10800000000023
1111.24,420.5247142857146
1113.5,471.36000000000035
1115.76,521.7520952380955
1118.02,599.2682857142861
1120.28,637.9514285714289
1122.53,639.7022380952384
1124.78,588.8020000000002
1127.03,533.7223809523812
1129.28,435.7927142857145
1131.53,393.5327619047621
1133.77,326.4142857142859
1136.02,293.0049523809526
1138.26,253.49085714285727
1140.5,245.86795238095254
1142.74,245.08480952380972
1144.98,267.18538095238114
1147.22,273.7370476190478
1149.45,309.35552380952396
1151.69,308.2749523809526
1153.92,295.0160952380954
1156.15,267.00385714285727
1158.38,226.71147619047633
1160.61,202.70685714285725
1162.83,184.13033333333343
1165.06,169.93087619047628
1167.28,140.2490571428572
1169.5,103.51062380952388
1171.72,77.6655333333334
1173.94,108.18769047619057
1176.16,127.97995238095248
1178.37,158.75428095238104
1180.58,158.22324761904764
1182.8,131.718480952381
1185.01,106.9526476190477
1187.22,77.25812857142859
1189.42,55.871785714285764
1191.63,61.26899523809527
1193.84,55.258504761904824
1196.04,83.45900000000009
1198.24,122.34627619047625
1200.44,128.0155238095239
1202.64,131.3240047619048
1204.84,129.22433809523815
1207.03,88.76470904761908
1209.23,54.04107571428573
1211.42,11.244641904761918
1213.61,5.471738571428599
1215.8,23.77115619047623
1217.99,52.38230904761909
1220.18,63.306742380952414
1222.36,58.641338095238126
1224.55,48.864057142857185
1226.73,64.59601904761911
1228.91,77.41060952380957
1231.09,96.69111904761911
1233.27,93.48742380952386
1235.44,94.80194285714293
1237.62,101.20876190476197
1239.79,112.47249523809532
1241.96,107.69127619047627
1244.13,145.3443238095239
1246.3,159.72028571428584
1248.47,196.77461904761918
1250.64,234.51071428571444
1252.8,265.6460952380954
1254.96,311.13685714285737
1257.13,374.748285714286
1259.29,419.0553333333336
1261.44,455.63295238095264
1263.6,454.81828571428593
1265.76,441.42480952380976
1267.91,418.0277142857145
1270.06,385.6311904761907
1272.22,350.8104285714287
1274.37,324.9505714285716
1276.51,279.2939047619049
1278.66,272.9396666666668
1280.81,274.511142857143
1282.95,269.4411904761906
1285.09,245.21014285714298
1287.23,227.53652380952394
1289.37,204.23433333333347
1291.51,203.73633333333345
1293.65,225.28500000000014
1295.78,219.55119047619058
1297.92,204.30157142857155
1300.05,174.01633333333342
1302.18,146.70023809523815
1304.31,125.69090476190485
1306.44,146.99238095238104
1308.57,167.22800000000012
1310.69,201.68814285714296
1312.82,196.6148095238096
1314.94,177.86990476190485
1317.06,179.21928571428586
1319.18,194.7625238095239
1321.3,198.97990476190492
1323.41,219.923142857143
1325.53,247.64385714285734
1327.64,314.05114285714313
1329.75,406.67252380952414
1331.87,457.65500000000026
1333.98,450.9069523809526
1336.08,402.33685714285735
1338.19,342.6630000000002
1340.3,325.93671428571446
1342.4,282.11366666666675
1344.5,241.4832380952382
1346.6,206.0962857142858
1348.7,175.33714285714296
1350.8,154.73276190476201
1352.9,150.81028571428578
1354.99,126.66742857142866
1357.09,120.26000000000009
1359.18,128.9240000000001
1361.27,138.37633333333343
1363.36,164.90514285714298
1365.45,176.3225714285715
1367.54,195.10680952380966
1369.62,198.45080952380962
1371.7,205.6421904761906
1373.79,209.53995238095249
1375.87,243.62209523809537
1377.95,254.50928571428585
1380.03,261.67909523809533
1382.1,236.46604761904774
1384.18,190.82376190476202
1386.25,165.08623809523823
1388.33,165.96891714285726
1390.4,129.6627052380953
1392.47,107.78707714285717
1394.54,72.91365666666668
1396.6,36.28065238095241
1398.67,19.26872809523812
1400.74,36.54456285714288
1402.8,25.869305714285733
1404.86,29.575631428571448
1406.92,35.995960952380976
1408.98,38.795851428571446
1411.04,35.87877142857146
1413.09,44.05277619047621
1415.15,46.41137142857147
1417.2,65.38153333333341
1419.25,98.8180333333334
1421.3,111.62358571428578
1423.35,120.55781428571436
1425.4,125.66570476190483
1427.45,116.13526190476196
1429.49,122.44019047619054
1431.54,114.91048571428577
1433.58,101.49570476190482
1435.62,85.9069190476191
1437.66,87.18833809523815
1439.7,82.86054285714292
1441.74,93.49154761904768
1443.77,93.50626666666672
1445.81,89.28202857142863
1447.84,83.1007571428572
1449.87,108.72073809523818
1451.9,122.94738571428579
1453.93,143.53856666666675
1455.96,169.49020952380963
1457.98,184.13176190476202
1460.01,178.69723809523822
1462.03,226.27785714285727
1464.05,249.01214285714303
1466.07,277.8479523809526
1468.09,316.68595238095264
1470.11,357.99790476190503
1472.13,376.01785714285745
1474.14,447.5035714285717
1476.16,470.5457142857145
1478.17,456.80657142857166
1480.18,408.71090476190494
1482.19,334.39671428571444
1484.2,236.6219047619049
1486.21,197.23980952380967
1488.21,158.29339047619055
1490.22,126.06439047619057
1492.22,111.54901904761911
1494.22,109.45710952380958
1496.22,83.02278571428576
1498.22,71.81387142857147
1500.22,77.73118571428576
1502.22,59.48527142857146
1504.21,53.21540952380956
1506.21,51.63222380952383
1508.2,53.922757142857165
1510.19,32.27411904761907
1512.18,38.73071904761907
1514.17,41.28936190476193
1516.16,45.137542857142876
1518.14,34.843776190476206
1520.13,31.024380952380945
1522.11,4.010057142857145
1524.09,1.5125904761904962
1526.07,18.86292857142859
1528.05,25.77313333333335
1530.03,42.526833333333364
1532.01,32.312538095238104
1533.98,21.79515714285717
1535.96,31.54442380952384
1537.93,42.60645714285718
1539.9,50.88467142857148
1541.87,77.75881904761908
1543.84,66.6564285714286
1545.81,61.05283809523814
1547.78,80.28042857142863
1549.74,78.67211428571434
1551.7,93.60852380952389
1553.67,122.80335238095246
1555.63,149.35189523809535
1557.59,157.20620476190487
1559.55,171.41380000000007
1561.5,166.97514285714294
1563.46,173.79533333333345
1565.41,190.96976190476204
1567.37,217.73742857142867
1569.32,209.19380952380965
1571.27,203.81600000000012
1573.22,201.0334761904763
1575.17,194.7991904761906
1577.11,199.49538095238105
1579.06,194.31366666666673
1581.0,174.016761904762
1582.95,158.84452380952388
1584.89,137.75047619047626
1586.83,119.40238095238104
1588.77,128.230761904762
1590.7,141.76090476190484
1592.64,150.3277142857144
1594.58,167.4331666666668
1596.51,190.15002380952407
1598.44,219.31311904761935
