Raman Shift,Processed Intensity
331.095,71.3576714285712
333.909,19.69071428571432
336.721,-4.3582499999999555
339.531,-9.515371428571427
342.339,-23.007399999999976
345.145,9.463597619047619
347.949,24.12618095238095
350.751,-7.2653690476190675
353.55,-13.526457142857138
356.348,-22.184945238095267
359.144,-36.67154285714285
361.937,-26.653361904761873
364.729,44.39505714285721
367.518,94.23928095238107
370.306,179.40850476190488
373.091,261.67208571428586
375.874,347.5628095238098
378.656,386.18671428571446
381.435,360.366021904762
384.212,248.54387190476194
386.988,107.40320571428573
389.761,17.05745190476193
392.532,-8.426089523809495
395.301,4.878952857142889
398.068,41.80530285714289
400.833,52.520780952380974
403.596,48.671095238095255
406.358,7.855976190476163
409.117,-24.94218571428572
411.874,-27.26321142857142
414.629,-7.835730476190459
417.382,17.708486666666694
420.133,41.882001904761914
422.882,26.722739047619086
425.629,57.2223838095239
428.374,135.4215647619049
431.117,204.41009047619062
433.858,253.4217380952382
436.597,244.26255238095249
439.334,208.264142857143
442.069,183.7587142857144
444.802,174.79428571428582
447.533,163.80061904761914
450.262,160.01776190476198
452.989,178.49623809523825
455.714,220.76371428571446
458.438,255.0153523809525
461.159,206.82811428571435
463.878,157.1602857142858
466.595,106.399580952381
469.31,88.26782380952389
472.024,89.72512857142864
474.735,114.4471571428572
477.444,102.91868095238104
480.152,150.00635714285727
482.857,157.95824285714295
485.561,178.83229523809536
488.262,177.35352380952392
490.962,167.91390476190486
493.659,174.66709523809533
496.355,183.05309523809532
499.048,178.94071428571442
501.74,196.5800000000001
504.43,175.79266666666678
507.118,182.73323809523822
509.804,201.27104761904772
512.488,223.0369047619049
515.17,264.7096666666668
517.85,277.1110476190478
520.528,252.72952380952395
523.204,239.95757142857155
525.878,181.85504761904772
528.551,172.90947619047628
531.221,163.84682857142863
533.89,120.91663809523816
536.556,105.7968476190477
539.221,105.73621904761912
541.883,105.4125142857144
544.544,147.26482857142867
547.203,165.73173333333338
549.86,145.91852380952392
552.515,173.8824285714287
555.168,186.82328571428584
557.819,217.17852380952397
560.469,238.1950952380954
563.116,231.50009523809535
565.761,182.00609523809533
568.405,187.19685714285725
571.047,175.12757142857157
573.687,182.89960952380963
576.324,149.13856190476196
578.96,125.70740952380956
581.594,84.80196190476197
584.227,102.33202857142865
586.857,126.73094285714294
589.485,162.5260761904763
592.112,140.76901428571438
594.737,144.46298095238106
597.359,139.5631761904763
599.98,167.7862666666668
602.599,195.03863333333345
605.216,232.3693809523811
607.831,197.77946190476197
610.445,175.03130476190486
613.056,151.0771095238096
615.666,139.86868571428582
618.274,183.69065238095254
620.88,197.9232000000001
623.484,193.04061904761915
626.086,211.8979047619049
628.686,215.92066666666682
631.284,229.15338095238113
633.881,288.4974761904764
636.476,311.52080952380976
639.068,312.69523809523827
641.659,310.49204761904775
644.249,263.2871142857144
646.836,211.26592380952394
649.421,144.5182047619048
652.005,106.5618285714286
654.587,70.19997619047626
657.166,78.28312857142865
659.745,93.23318761904767
662.321,86.47192333333334
664.895,44.3731180952381
667.468,13.453286190476206
670.038,10.562127619047653
672.607,33.83488047619052
675.174,57.74007809523814
677.739,90.46046666666672
680.303,101.32143333333339
682.864,113.26746190476197
685.424,112.52892380952385
687.982,103.76454761904766
690.538,78.06166190476195
693.092,81.88861238095242
695.645,63.761226666666694
698.195,59.338405714285734
700.744,53.945987619047635
703.291,26.004967619047623
705.836,9.269860000000016
708.38,12.73346476190476
710.921,-7.849352380952371
713.461,7.895523809523846
715.999,40.15195714285717
718.535,61.43750000000006
721.069,87.3648428571429
723.602,106.40440476190481
726.133,118.26477619047625
728.662,90.8927047619048
731.189,66.18768571428575
733.714,60.002304761904796
736.238,63.4743333333334
738.759,87.0282095238096
741.279,118.46935238095243
743.798,110.36529523809531
746.314,105.85514285714292
748.829,104.74521904761912
751.342,103.60357142857151
753.853,127.76059047619056
756.362,130.83300476190485
758.869,136.3897714285715
761.375,109.28591428571434
763.879,108.75749523809532
766.381,94.04090476190483
768.882,121.94387619047629
771.38,140.0846238095239
773.877,135.9854571428572
776.372,97.69323333333338
778.866,98.11202857142862
781.357,88.86028095238102
783.847,106.08039047619056
786.335,122.6771571428572
788.821,129.1267333333334
791.306,136.09619047619057
793.789,157.30014285714296
796.27,168.0248095238096
798.749,153.27080952380962
801.227,166.75285714285727
803.702,176.7579523809525
806.176,206.4303333333335
808.649,243.48523809523826
811.119,257.5909523809525
813.588,231.272761904762
816.055,230.4367142857144
818.521,228.60895238095253
820.984,214.93409523809538
823.446,222.9853809523811
825.906,249.47945714285726
828.365,215.2278380952382
830.821,174.18491428571437
833.276,152.82982857142866
835.729,117.64100952380961
838.181,123.7161238095239
840.631,154.2009333333334
843.079,153.33607619047626
845.525,141.6957333333334
847.97,119.18778571428578
850.412,111.57695238095246
852.854,110.43742380952388
855.293,112.62943809523819
857.731,123.58451904761911
860.167,120.68676761904766
862.601,82.46309380952384
865.034,63.72618285714289
867.465,37.3364347619048
869.894,51.058859047619116
872.321,91.61112238095247
874.747,127.04401047619055
877.171,132.83694285714293
879.594,138.2312190476191
882.014,113.84885714285721
884.433,116.50285714285724
886.851,148.62523809523822
889.266,183.79047619047628
891.68,212.0495238095239
894.092,211.21533333333343
896.503,187.52880952380966
898.912,190.6127142857144
901.319,192.08914285714297
903.724,195.9137142857144
906.128,204.99433333333343
908.53,186.47714285714295
910.931,164.79361904761916
913.329,166.7089523809525
915.726,167.0357142857144
918.122,165.68180952380962
920.516,173.1742952380953
922.908,153.75410952380957
925.298,117.23380952380957
927.687,98.04475714285721
930.074,87.95192857142861
932.459,84.43429047619054
934.843,79.82829047619052
937.225,84.66044761904769
939.605,84.02861904761912
941.984,105.98300000000006
944.361,103.71685238095242
946.736,93.80415333333337
949.11,56.81888190476193
951.482,48.62078285714288
953.853,23.259746666666683
956.222,21.881035238095254
958.589,12.01068190476192
960.954,30.41303428571432
963.318,41.280500000000046
965.68,88.71053809523816
968.041,113.9430571428572
970.4,127.98009619047625
972.757,96.20452000000002
975.113,61.713540000000016
977.467,37.36581333333337
979.819,38.68692095238099
982.17,41.0591628571429
984.519,68.57911047619052
986.866,79.01011904761911
989.212,91.63915238095247
991.556,105.08636666666673
993.899,134.92418095238105
996.24,150.91561904761915
998.579,175.0610000000001
1000.92,174.12300000000008
1003.25,167.4831714285715
1005.59,108.570480952381
1007.92,83.90886666666673
1010.25,81.40375714285722
1012.58,99.8164857142858
1014.91,130.52790952380963
1017.24,172.58569523809533
1019.56,176.2749523809525
1021.88,175.21433333333343
1024.2,177.54604761904773
1026.52,168.6974761904763
1028.84,184.4776666666668
1031.16,213.93333333333348
1033.48,237.82514285714302
1035.79,249.96166666666684
1038.1,271.43619047619063
1040.41,309.05695238095257
1042.72,342.77504761904777
1045.03,345.9697619047621
1047.33,315.59200000000016
1049.64,249.11628571428585
1051.94,206.0644761904763
1054.24,182.24409523809533
1056.54,152.22433333333342
1058.84,138.00323809523817
1061.13,159.24538095238108
1063.43,164.42480952380964
1065.72,182.96809523809534
1068.01,185.49185714285727
1070.3,190.7077142857144
1072.59,206.80385714285728
1074.87,222.82552380952396
1077.16,239.67504761904777
1079.44,256.4450476190478
1081.72,285.65709523809545
1084.0,352.3080000000003
1086.28,406.0144285714289
1088.56,491.7264761904766
1090.84,625.8697142857146
1093.11,715.489047619048
1095.38,756.3441904761909
1097.65,710.3364761904764
1099.92,576.2732380952383
1102.19,461.15176190476217
1104.46,400.0167619047622
1106.72,393.341904761905
1108.98,408.0293333333336
1111.24,438.8381428571431
1113.5,476.90876190476223
1115.76,491.52395238095266
1118.02,520.3480000000003
1120.28,547.568666666667
1122.53,533.2787142857146
1124.78,534.5234761904765
1127.03,498.3957142857145
1129.28,418.1308095238097
1131.53,357.1550952380954
1133.77,297.65671428571443
1136.02,254.20504761904778
1138.26,240.36900000000014
1140.5,243.718142857143
1142.74,240.01190476190493
1144.98,279.24866666666685
1147.22,278.7120000000001
1149.45,284.4000952380954
1151.69,250.3584761904763
1153.92,230.82404761904778
1156.15,213.84247619047636
1158.38,217.69828571428582
1160.61,187.29438095238106
1162.83,177.86771428571436
1165.06,129.13126190476194
1167.28,104.94104761904768
1169.5,104.2961190476191
1171.72,91.43366666666672
1173.94,102.54311904761911
1176.16,107.81442857142862
1178.37,128.2470952380953
1180.58,111.65007619047623
1182.8,84.40428571428573
1185.01,59.699942857142894
1187.22,54.5844666666667
1189.42,32.486483333333375
1191.63,52.215866666666685
1193.84,23.96344047619049
1196.04,22.39648571428576
1198.24,54.03927857142862
1200.44,76.51154761904766
1202.64,80.38552857142862
1204.84,85.56685238095241
1207.03,68.86607142857147
1209.23,57.09389523809526
1211.42,36.25132380952382
1213.61,18.672967619047633
1215.8,2.2648795238095314
1217.99,17.647500000000033
1220.18,32.29849809523811
1222.36,33.552738095238105
1224.55,13.17373904761905
1226.73,10.972712380952393
1228.91,13.66572047619051
1231.09,29.44499619047622
1233.27,56.979325714285764
1235.44,73.22287714285719
1237.62,79.36807619047624
1239.79,96.94105238095244
1241.96,106.46764761904767
1244.13,102.94993809523817
1246.3,107.77135238095244
1248.47,117.3152476190477
1250.64,117.10779047619056
1252.8,154.48474285714298
1254.96,185.25823809523823
1257.13,234.5256190476192
1259.29,262.8609047619049
1261.44,278.4099523809525
1263.6,275.6990000000001
1265.76,266.9211904761906
1267.91,244.27019047619063
1270.06,224.93866666666682
1272.22,229.83423809523825
1274.37,217.05480952380964
1276.51,208.22219047619058
1278.66,197.9584761904763
1280.81,194.8381904761906
1282.95,175.81613333333345
1285.09,160.70480000000006
1287.23,128.03088571428577
1289.37,103.79720000000009
1291.51,117.38769523809535
1293.65,132.900561904762
1295.78,166.62407619047627
1297.92,146.94220476190483
1300.05,128.57226666666674
1302.18,94.46934285714289
1304.31,76.0647428571429
1306.44,71.21875238095245
1308.57,108.31499047619056
1310.69,125.35630952380961
1312.82,143.39300000000006
1314.94,142.665761904762
1317.06,157.31990476190487
1319.18,171.50157142857154
1321.3,205.92742857142872
1323.41,239.5526190476192
1325.53,275.37971428571444
1327.64,329.6967619047621
1329.75,378.36328571428595
1331.87,413.2870476190478
1333.98,417.0889523809526
1336.08,389.67642857142874
1338.19,348.9088571428573
1340.3,318.64542857142874
1342.4,286.26919047619066
1344.5,256.4491904761906
1346.6,227.94907619047635
1348.7,181.7235285714287
1350.8,162.8696761904763
1352.9,161.29393809523816
1354.99,149.37919047619053
1357.09,121.93660476190485
1359.18,143.6343238095239
1361.27,151.6645523809525
1363.36,168.6002761904763
1365.45,183.58537142857153
1367.54,175.52600000000012
1369.62,172.89957142857156
1371.7,201.65928571428586
1373.79,228.42552380952395
1375.87,262.723142857143
1377.95,270.3145714285716
1380.03,270.91471428571447
1382.1,251.66690476190487
1384.18,214.52380000000008
1386.25,164.05749047619054
1388.33,127.50643333333338
1390.4,74.584980952381
1392.47,67.67406761904766
1394.54,43.6305485714286
1396.6,47.45414000000004
1398.67,55.33507523809526
1400.74,48.177549523809546
1402.8,42.83803428571432
1404.86,66.93482000000003
1406.92,46.51457619047622
1408.98,64.81443333333338
1411.04,73.64266666666668
1413.09,70.23606190476195
1415.15,68.16460952380957
1417.2,82.71230000000006
1419.25,87.82982380952389
1421.3,109.18231428571436
1423.35,119.48205714285722
1425.4,117.53642380952387
1427.45,124.10533333333342
1429.49,127.71012857142865
1431.54,127.7294571428572
1433.58,102.58960476190481
1435.62,95.19291428571435
1437.66,102.0127476190477
1439.7,134.71334285714295
1441.74,147.19658095238103
1443.77,134.93590952380958
1445.81,116.78563333333341
1447.84,112.21924285714294
1449.87,118.85277619047628
1451.9,126.6832333333334
1453.93,140.89830476190485
1455.96,159.63776190476202
1457.98,172.70795238095252
1460.01,194.24866666666682
1462.03,225.4949047619049
1464.05,253.34842857142874
1466.07,275.4253809523811
1468.09,317.29404761904783
1470.11,350.47495238095263
1472.13,368.2508095238097
1474.14,387.42800000000017
1476.16,399.3370000000002
1478.17,359.87957142857164
1480.18,299.7673809523811
1482.19,250.2828571428573
1484.2,182.94714285714298
1486.21,140.5189523809525
1488.21,131.757761904762
1490.22,126.13687619047626
1492.22,113.84441904761911
1494.22,104.25853333333339
1496.22,94.90067619047625
1498.22,84.81589523809527
1500.22,67.95454523809525
1502.22,34.93312380952382
1504.21,16.51158333333334
1506.21,5.021206666666682
1508.2,9.88864952380954
1510.19,24.73116761904764
1512.18,31.261328571428574
1514.17,12.001350476190481
1516.16,5.425971428571443
1518.14,25.0576104761905
1520.13,35.51401190476193
1522.11,38.74634761904763
1524.09,31.6582580952381
1526.07,22.34394476190478
1528.05,18.707239047619076
1530.03,37.41392666666669
1532.01,51.082297142857165
1533.98,36.663994285714296
1535.96,30.158440952380978
1537.93,43.041020000000046
1539.9,68.40672190476195
1541.87,88.58835142857149
1543.84,105.44278000000004
1545.81,98.01732380952386
1547.78,113.50201904761913
1549.74,144.32510476190487
1551.7,165.9627714285715
1553.67,162.70071428571435
1555.63,157.34857142857152
1557.59,148.95380952380964
1559.55,160.18285714285724
1561.5,178.3220000000001
1563.46,173.6092380952382
1565.41,163.14023809523817
1567.37,162.3915238095239
1569.32,154.3632380952382
1571.27,167.86490476190488
1573.22,190.61159047619057
1575.17,168.2227333333334
1577.11,162.84151428571437
1579.06,158.08779047619058
1581.0,154.20022857142868
1582.95,165.7506380952382
1584.89,177.5014000000001
1586.83,162.26280952380964
1588.77,158.94004761904773
1590.7,166.29595238095249
1592.64,186.3314285714287
1594.58,202.80916666666678
1596.51,212.7059523809525
1598.44,210.6891190476191
