Raman Shift,Processed Intensity
331.095,130.50386428571395
333.909,-20.01264285714305
336.721,-62.63339285714292
339.531,-37.420785714285685
342.339,15.490685714285732
345.145,24.586547619047646
347.949,34.85467619047618
350.751,16.427680952380943
353.55,-22.655276190476187
356.348,-7.448190476190446
359.144,21.85357142857146
361.937,58.247228571428614
364.729,75.20794285714292
367.518,107.022461904762
370.306,169.31237619047636
373.091,279.9872190476193
375.874,423.7200000000003
378.656,520.3760000000003
381.435,495.10832380952405
384.212,360.8338333333334
386.988,186.89955904761905
389.761,38.74991190476192
392.532,-25.597743333333312
395.301,-19.457534761904732
398.068,3.6680980952381086
400.833,34.18319476190478
403.596,25.065069523809512
406.358,-7.088145714285732
409.117,-16.009776666666646
411.874,0.3305161904762155
414.629,36.91728095238102
417.382,100.78420952380958
420.133,93.77642380952385
422.882,85.02621904761912
425.629,127.33428571428584
428.374,191.93099047619063
431.117,286.4292571428573
433.858,349.44359047619065
436.597,340.8277142857144
439.334,282.6744285714287
442.069,236.31623809523822
444.802,181.94342857142865
447.533,167.74742857142866
450.262,193.73066666666682
452.989,283.6106666666668
455.714,306.34352380952396
458.438,310.2200761904763
461.159,224.72207619047626
463.878,141.5224190476191
466.595,77.81878571428578
469.31,98.1429714285715
472.024,112.74130952380959
474.735,133.4326095238096
477.444,127.46452857142866
480.152,145.3234095238096
482.857,145.35304761904774
485.561,172.5641904761906
488.262,189.4442857142858
490.962,204.43357142857153
493.659,184.1155714285715
496.355,185.26438095238106
499.048,164.60700000000008
501.74,148.53690476190485
504.43,120.9715714285715
507.118,121.16176190476199
509.804,138.78747619047633
512.488,198.71857142857158
515.17,268.77814285714305
517.85,322.2169047619049
520.528,320.6194285714288
523.204,291.76042857142875
525.878,231.31957142857152
528.551,191.97614285714295
531.221,168.4094285714287
533.89,150.4410000000001
536.556,142.17866666666674
539.221,158.77733333333344
541.883,134.15347619047628
544.544,164.89009523809534
547.203,171.66490476190486
549.86,165.3935238095239
552.515,160.42004761904772
555.168,175.51647619047628
557.819,165.93109523809537
560.469,194.00685714285729
563.116,207.13361904761916
565.761,210.27261904761917
568.405,208.2896666666668
571.047,212.28776190476202
573.687,219.70315238095253
576.324,190.59072380952392
578.96,181.52820952380966
581.594,162.33170476190486
584.227,146.38801904761914
586.857,130.8455333333334
589.485,143.56582857142865
592.112,109.6487714285715
594.737,127.05054285714294
597.359,127.91769523809532
599.98,115.15784285714292
602.599,115.63099047619056
605.216,141.19585238095246
607.831,148.37793333333343
610.445,169.8451571428572
613.056,168.5026095238096
615.666,148.6365238095239
618.274,161.62742857142868
620.88,169.23628571428583
623.484,206.22380952380968
626.086,241.5406190476192
628.686,277.4698095238097
631.284,306.8190000000002
633.881,349.5847142857145
636.476,343.9542857142859
639.068,352.2573333333336
641.659,339.3460952380955
644.249,299.45404761904774
646.836,267.52895238095255
649.421,240.0410000000001
652.005,196.17549523809535
654.587,144.83106666666671
657.166,122.71522857142861
659.745,74.05970952380956
662.321,56.619647619047655
664.895,36.625766666666685
667.468,36.59498095238098
670.038,35.56723428571433
672.607,34.53494857142859
675.174,65.1570352380953
677.739,82.8066847619048
680.303,83.9521971428572
682.864,86.01421047619051
685.424,86.4609104761905
687.982,36.18909523809526
690.538,36.47641904761905
693.092,20.4578761904762
695.645,12.316109523809546
698.195,16.56713809523812
700.744,41.155704761904786
703.291,37.21717142857145
705.836,36.8870142857143
708.38,35.11036666666668
710.921,23.023061904761907
713.461,-5.048419047619053
715.999,-4.348838095238083
718.535,8.163190476190518
721.069,65.48121428571436
723.602,109.93274285714291
726.133,133.17875238095243
728.662,108.26143333333337
731.189,94.22317619047624
733.714,69.24958571428576
736.238,59.097547619047646
738.759,50.76264285714289
741.279,70.28815714285719
743.798,70.00320476190481
746.314,86.5229190476191
748.829,84.51023333333337
751.342,82.05685238095245
753.853,88.3499571428572
756.362,108.57692857142862
758.869,100.97282380952385
761.375,85.96349523809528
763.879,60.21307619047624
766.381,71.29056190476196
768.882,87.62235238095245
771.38,88.11114285714292
773.877,100.51713809523815
776.372,109.55270476190483
778.866,95.31172857142866
781.357,117.64980000000008
783.847,131.0419952380953
786.335,105.34456666666675
788.821,109.08072857142864
791.306,122.10638571428578
793.789,123.37370476190486
796.27,146.4533761904763
798.749,161.67854285714296
801.227,167.23961904761916
803.702,188.04180952380966
806.176,198.75133333333343
808.649,203.5591904761906
811.119,201.89433333333346
813.588,197.61428571428584
816.055,203.291142857143
818.521,213.49766666666676
820.984,207.85343809523818
823.446,172.78786666666676
825.906,149.54049523809533
828.365,135.87389523809532
830.821,137.64697142857153
833.276,145.62334285714294
835.729,176.32810476190485
838.181,180.9055238095239
840.631,185.9291904761906
843.079,185.97198095238105
845.525,164.56010000000006
847.97,132.31455238095245
850.412,107.04670476190483
852.854,106.33019047619055
855.293,113.69105714285723
857.731,146.08414285714292
860.167,131.3213666666667
862.601,101.64325238095243
865.034,75.05252571428575
867.465,51.98016857142861
869.894,29.285841904761945
872.321,64.02010761904766
874.747,80.56643238095245
877.171,116.45168761904772
879.594,145.8693876190477
882.014,136.3459714285715
884.433,127.74169047619058
886.851,147.72623809523822
889.266,176.2548333333335
891.68,214.52104761904772
894.092,201.95647619047628
896.503,184.46914285714294
898.912,178.30028571428585
901.319,174.88161904761918
903.724,187.6924285714287
906.128,199.1165238095239
908.53,190.15728571428582
910.931,195.00847619047633
913.329,190.10185714285726
915.726,191.34519047619057
918.122,191.5510476190477
920.516,173.3890952380953
922.908,158.4340476190477
925.298,159.2604761904763
927.687,150.87132380952391
930.074,139.3171333333334
932.459,129.50576190476198
934.843,100.58290952380959
937.225,102.26569523809532
939.605,100.17629047619053
941.984,114.69809523809533
944.361,121.1674190476191
946.736,103.15849047619052
949.11,69.9118666666667
951.482,65.62048095238099
953.853,59.572701904761956
956.222,54.62793285714289
958.589,68.02684190476195
960.954,71.10488619047624
963.318,68.38806095238101
965.68,93.25935666666675
968.041,121.57807809523815
970.4,106.44125238095245
972.757,95.136580952381
975.113,90.95130952380957
977.467,62.22060952380956
979.819,70.80314761904768
982.17,74.367280952381
984.519,85.6764190476191
986.866,94.11256190476199
989.212,119.29619047619056
991.556,127.32390000000008
993.899,154.10130476190483
996.24,151.24852380952393
998.579,168.6240000000001
1000.92,158.4665714285715
1003.25,143.39614285714293
1005.59,124.31857142857149
1007.92,120.71028571428579
1010.25,118.14365714285722
1012.58,115.23834761904767
1014.91,104.75674285714291
1017.24,83.93724761904767
1019.56,91.25679047619056
1021.88,109.0963714285715
1024.2,127.17094285714295
1026.52,149.86164285714298
1028.84,164.6444761904763
1031.16,156.32933333333347
1033.48,206.91642857142872
1035.79,239.83414285714304
1038.1,270.2252857142859
1040.41,339.4709523809526
1042.72,369.57061904761923
1045.03,365.857904761905
1047.33,359.5707142857144
1049.64,298.9944761904763
1051.94,253.1760952380954
1054.24,204.82985714285724
1056.54,188.19304761904775
1058.84,168.83723809523818
1061.13,163.14261904761918
1063.43,173.77552380952392
1065.72,201.54466666666679
1068.01,199.35442857142868
1070.3,213.44204761904774
1072.59,197.99776190476203
1074.87,183.06833333333347
1077.16,194.60533333333345
1079.44,193.84614285714298
1081.72,225.8375714285716
1084.0,276.10276190476213
1086.28,346.1648095238098
1088.56,452.7371428571432
1090.84,602.3900000000004
1093.11,711.456047619048
1095.38,742.505428571429
1097.65,696.4423809523813
1099.92,592.218047619048
1102.19,479.54614285714314
1104.46,421.52061904761933
1106.72,419.6169523809527
1108.98,427.8337142857146
1111.24,467.8367142857146
1113.5,523.7200476190479
1115.76,569.4352857142861
1118.02,604.6951904761909
1120.28,628.5467142857146
1122.53,613.1791428571431
1124.78,543.0199523809526
1127.03,471.40147619047644
1129.28,413.13200000000023
1131.53,372.972142857143
1133.77,316.7304285714287
1136.02,277.2629523809525
1138.26,226.37842857142869
1140.5,223.4563809523811
1142.74,235.40047619047638
1144.98,252.78095238095253
1147.22,265.97766666666683
1149.45,283.56104761904777
1151.69,259.1493333333334
1153.92,236.74114285714296
1156.15,188.811761904762
1158.38,162.88354285714297
1160.61,157.67007619047627
1162.83,136.5035333333334
1165.06,101.00205714285718
1167.28,84.68845714285719
1169.5,76.65711904761912
1171.72,91.09715714285718
1173.94,100.24598095238099
1176.16,83.57877619047622
1178.37,71.71368571428576
1180.58,69.9356047619048
1182.8,70.38647619047623
1185.01,57.87500952380955
1187.22,59.87658571428574
1189.42,57.19995238095242
1191.63,45.606252380952405
1193.84,54.904254285714316
1196.04,41.80757571428573
1198.24,39.791732380952425
1200.44,52.189429047619086
1202.64,56.76199428571432
1204.84,59.60409952380957
1207.03,75.85805904761908
1209.23,73.90432857142864
1211.42,83.83769047619052
1213.61,89.99107714285718
1215.8,60.88790333333334
1217.99,37.86116380952383
1220.18,38.10099095238098
1222.36,36.416631904761935
1224.55,41.42689190476195
1226.73,56.60780904761908
1228.91,69.43520761904767
1231.09,72.09956809523815
1233.27,98.64820857142863
1235.44,117.12891428571434
1237.62,130.8746380952382
1239.79,141.8853000000001
1241.96,150.3038952380953
1244.13,128.51138095238105
1246.3,141.9359523809525
1248.47,160.14938095238108
1250.64,212.7228095238097
1252.8,289.22761904761927
1254.96,346.47385714285736
1257.13,388.6041904761907
1259.29,422.9995238095241
1261.44,415.5174285714288
1263.6,414.5387142857145
1265.76,405.6349523809526
1267.91,370.8540000000002
1270.06,356.4818095238097
1272.22,329.37566666666686
1274.37,300.2976666666669
1276.51,318.2003333333335
1278.66,308.5602857142859
1280.81,312.28219047619075
1282.95,343.12852380952404
1285.09,334.908904761905
1287.23,322.4332380952384
1289.37,345.7018095238097
1291.51,328.0482857142859
1293.65,322.7586666666669
1295.78,303.49990476190493
1297.92,273.03423809523827
1300.05,255.79095238095255
1302.18,265.5793333333335
1304.31,287.2096666666668
1306.44,296.82523809523826
1308.57,293.61685714285727
1310.69,293.5371904761907
1312.82,300.1106666666669
1314.94,326.90895238095266
1317.06,356.8376666666669
1319.18,381.8017142857145
1321.3,411.99200000000025
1323.41,424.31342857142886
1325.53,464.14790476190507
1327.64,510.25766666666703
1329.75,561.4529523809528
1331.87,596.1149047619052
1333.98,615.0536190476193
1336.08,592.6029047619049
1338.19,578.7160000000002
1340.3,552.2499523809528
1342.4,505.2054761904764
1344.5,454.8688095238098
1346.6,415.85990476190506
1348.7,366.2742857142859
1350.8,366.39823809523836
1352.9,357.0415714285716
1354.99,361.490904761905
1357.09,389.7944761904764
1359.18,408.8097142857145
1361.27,411.20361904761927
1363.36,413.167523809524
1365.45,390.8445714285717
1367.54,398.28352380952407
1369.62,424.4845238095241
1371.7,457.590904761905
1373.79,487.9843809523812
1375.87,493.0462857142861
1377.95,492.3486190476193
1380.03,500.03495238095275
1382.1,482.53414285714314
1384.18,495.60885714285746
1386.25,467.30738095238115
1388.33,408.4871428571431
1390.4,344.5773333333335
1392.47,313.05452380952397
1394.54,269.4431428571431
1396.6,274.9820952380954
1398.67,254.81485714285728
1400.74,225.37038095238108
1402.8,216.36304761904776
1404.86,239.79347619047633
1406.92,243.90042857142873
1408.98,243.73238095238108
1411.04,229.86080952380965
1413.09,225.38161904761918
1415.15,250.86661904761925
1417.2,290.9353333333335
1419.25,301.4931428571431
1421.3,295.3499523809526
1423.35,302.2202380952383
1425.4,332.43823809523826
1427.45,330.57566666666685
1429.49,329.0137142857144
1431.54,305.7530476190478
1433.58,266.6510952380954
1435.62,261.66061904761926
1437.66,290.496523809524
1439.7,306.1112380952383
1441.74,301.5528571428573
1443.77,300.01238095238114
1445.81,297.29961904761916
1447.84,294.60533333333353
1449.87,310.6917619047621
1451.9,318.0828095238097
1453.93,297.3028095238097
1455.96,269.0661904761906
1457.98,270.27823809523824
1460.01,284.51047619047637
1462.03,336.00142857142885
1464.05,356.417904761905
1466.07,398.1884761904764
1468.09,430.0275238095241
1470.11,492.50700000000035
1472.13,524.9600476190479
1474.14,561.6731904761907
1476.16,532.6463333333336
1478.17,489.26028571428594
1480.18,436.41976190476214
1482.19,388.5537142857145
1484.2,315.51933333333346
1486.21,265.554761904762
1488.21,228.80271428571442
1490.22,185.45395238095247
1492.22,165.93677142857152
1494.22,149.77518095238105
1496.22,121.49302380952386
1498.22,103.99467619047626
1500.22,105.51816190476195
1502.22,90.01601428571435
1504.21,74.72600952380955
1506.21,63.17188095238098
1508.2,51.73439047619051
1510.19,24.31809523809526
1512.18,41.82766190476195
1514.17,69.92937914285717
1516.16,60.24204319047623
1518.14,65.90831971428575
1520.13,61.97556585714287
1522.11,37.39589114285718
1524.09,40.64535271428574
1526.07,52.961712476190506
1528.05,48.29708571428575
1530.03,54.8893666666667
1532.01,58.166842857142896
1533.98,64.03400952380956
1535.96,68.63348571428575
1537.93,69.48882380952384
1539.9,63.93308571428575
1541.87,69.82315714285718
1543.84,88.15890952380957
1545.81,87.70181428571433
1547.78,102.16591428571434
1549.74,111.97932380952385
1551.7,101.52295238095245
1553.67,119.36793333333341
1555.63,126.75234761904767
1557.59,121.34231428571437
1559.55,133.28056666666674
1561.5,131.09040476190484
1563.46,124.34317619047627
1565.41,130.56236666666672
1567.37,113.55723809523818
1569.32,119.42259523809533
1571.27,136.82509523809534
1573.22,130.90719047619055
1575.17,144.2876000000001
1577.11,140.7280476190477
1579.06,104.27579047619052
1581.0,88.31158095238102
1582.95,111.26388571428579
1584.89,119.17979523809532
1586.83,139.630361904762
1588.77,149.71057619047625
1590.7,120.42012380952389
1592.64,130.5685380952382
1594.58,179.20320476190463
1596.51,221.9904119047615
1598.44,233.7631761904755
