Raman Shift,Processed Intensity
331.095,116.5518342568812
333.909,101.64139657474561
336.721,82.34572113238619
339.531,70.33148624227624
342.339,91.33682207992797
345.145,128.81417947254295
347.949,158.71605583051632
350.751,170.75691155513914
353.55,173.6036578748667
356.348,178.1613827768315
359.144,210.2876483669188
361.937,227.3639310869935
364.729,228.9623000273691
367.518,245.5597142868951
370.306,270.82374890446954
373.091,317.6602255524708
375.874,421.40370037304183
378.656,450.1508089572335
381.435,434.71265894319595
384.212,351.56722261437017
386.988,277.00220568815575
389.761,181.5912494379054
392.532,139.14632329111828
395.301,76.62249838000707
398.068,48.11795918731377
400.833,23.683539001649933
403.596,18.370350610922287
406.358,13.277416995774274
409.117,-30.257840834131002
411.874,-59.040544575241256
414.629,-62.161204127149176
417.382,-68.7576138831505
420.133,-66.2053268659156
422.882,-50.1652785177248
425.629,-37.631418086793474
428.374,-18.502156850912797
431.117,17.848178201612882
433.858,65.37883902394833
436.597,103.2397682568394
439.334,111.10490326477975
442.069,113.1721468388414
444.802,73.11571885189096
447.533,82.70517458046697
450.262,115.13870874094982
452.989,152.23360238286796
455.714,179.52143168697603
458.438,192.15280057285327
461.159,149.42112092555226
463.878,112.04829758415508
466.595,73.04184190175192
469.31,74.88531863875141
472.024,89.9192690466657
474.735,110.48404602387063
477.444,135.25313296971808
480.152,106.89979597198453
482.857,87.57325980384576
485.561,90.08916963511683
488.262,106.97719560064661
490.962,123.33816999971714
493.659,159.79647167350595
496.355,160.16669609685005
499.048,157.120325469999
501.74,144.0428750008482
504.43,170.6529439490714
507.118,193.0022190512168
509.804,237.66595413626692
512.488,308.12392593168215
515.17,378.998532726579
517.85,426.2928930349117
520.528,484.6765633062746
523.204,511.24744611288315
525.878,503.62703166989786
528.551,506.10325840335963
531.221,508.4876592324067
533.89,536.0677459467342
536.556,573.845107869764
539.221,622.1068438551602
541.883,638.4255657119093
544.544,647.421306391313
547.203,613.2377138882662
549.86,605.4944356187298
552.515,588.9061694638626
555.168,611.2826671951025
557.819,665.5763569468659
560.469,678.3585371178192
563.116,695.6765226531033
565.761,686.1012675170418
568.405,616.4416538325172
571.047,548.6492572108223
573.687,518.7231120815172
576.324,464.8525722603781
578.96,456.9887429459159
581.594,456.749246049229
584.227,401.846795047667
586.857,325.8034841242147
589.485,307.71269635449016
592.112,266.14386903660306
594.737,265.6663066400547
597.359,297.7539461355864
599.98,303.4044080393269
602.599,295.329476028362
605.216,347.0503384610656
607.831,386.7071156117195
610.445,451.53505357180256
613.056,502.4359562465188
615.666,528.121045922755
618.274,539.7300143132379
620.88,579.4976926483037
623.484,626.8016741486254
626.086,696.3051745931748
628.686,755.6713214586184
631.284,816.2774430587137
633.881,817.8817386360847
636.476,800.7185198825687
639.068,750.7839286500457
641.659,697.2645118041164
644.249,633.9657960777881
646.836,562.9789581632467
649.421,495.0141614703034
652.005,417.73389288483713
654.587,341.27677571771073
657.166,284.8290017013055
659.745,215.1481439384429
662.321,150.42030318464413
664.895,122.21249222562165
667.468,65.1393059690613
670.038,26.86292486973798
672.607,22.474070735582245
675.174,16.30153396232072
677.739,11.05503685395206
680.303,17.634765915982825
682.864,5.321858208238609
685.424,3.8736507437351975
687.982,11.571312640890028
690.538,30.791287348929473
693.092,12.243401939250816
695.645,1.8756442421731663
698.195,-18.554393349645125
700.744,-29.05092598161218
703.291,-24.23710253176887
705.836,-18.593086120642056
708.38,-23.360804345121323
710.921,-16.353463947858472
713.461,-19.003162649396472
715.999,-27.218027215911206
718.535,11.046361077293568
721.069,14.929824740509957
723.602,38.3342550651837
726.133,52.685515214709085
728.662,48.4096290295106
731.189,32.88516030830988
733.714,36.53844923224369
736.238,22.415039265175892
738.759,16.65586595877585
741.279,20.16392194807213
743.798,27.413779089869877
746.314,16.356348696406258
748.829,9.466498911867347
751.342,8.45733875556607
753.853,-10.24359307297209
756.362,2.4580510872660852
758.869,31.513902378150306
761.375,37.494777484188944
763.879,59.11448545621806
766.381,57.658396439856006
768.882,37.840581832523185
771.38,29.041906821416433
773.877,44.40526577862465
776.372,33.16891289434261
778.866,42.28550709579849
781.357,64.23163315665215
783.847,68.67446566354283
786.335,58.37652822073096
788.821,68.71950027378944
791.306,52.18040488568067
793.789,85.80779651283092
796.27,120.4122344954908
798.749,150.80437559572238
801.227,182.3187808210928
803.702,241.86153177218557
806.176,271.52927556153327
808.649,321.2282697325468
811.119,307.3410462260704
813.588,290.6787896326473
816.055,263.52895354002567
818.521,238.8933530711347
820.984,212.39292408872961
823.446,194.69629192384627
825.906,170.09119724711172
828.365,168.81782670194843
830.821,149.5450006806409
833.276,142.2273134813572
835.729,136.43846394135107
838.181,94.13315749875255
840.631,71.93281777814991
843.079,47.79225055713778
845.525,36.80916487571221
847.97,55.08131319329232
850.412,70.9922029743143
852.854,67.6396654166806
855.293,95.26442418021088
857.731,86.58342601985714
860.167,89.45650475224238
862.601,92.02923569840505
865.034,75.0186472693897
867.465,50.18940874232203
869.894,47.73477994123641
872.321,62.27660853695602
874.747,47.293898775536945
877.171,45.02757068290157
879.594,44.528076412331075
882.014,40.89349278243799
884.433,26.840947148469922
886.851,47.65899565455743
889.266,37.68381100978263
891.68,50.10870359756768
894.092,79.0317378231673
896.503,99.45572941352998
898.912,114.71681414574164
901.319,113.15111181355701
903.724,113.61853305107934
906.128,111.59801472786012
908.53,127.28275534400927
910.931,123.67545042529514
913.329,113.58828982301657
915.726,91.92866929959223
918.122,85.31823544747954
920.516,78.09288298904289
922.908,95.25513302880631
925.298,81.90270178188484
927.687,92.03802168337893
930.074,82.94919106918928
932.459,94.92425719016273
934.843,104.0607373214832
937.225,110.78942558634003
939.605,104.01724739864767
941.984,132.50820914385622
944.361,104.02625262167112
946.736,89.3352523459098
949.11,73.00853665388104
951.482,56.09555167292001
953.853,35.2170967154816
956.222,31.708178721865124
958.589,37.37991432197191
960.954,59.04333665897707
963.318,57.652249832039615
965.68,49.06513095806531
968.041,21.42607985251402
970.4,15.117197281632798
972.757,19.99667750040453
975.113,48.30356960628637
977.467,36.51492137293553
979.819,7.298163189214165
982.17,-17.77460323990681
984.519,-45.03612571624558
986.866,-31.962093054799652
989.212,-9.88541893432398
991.556,16.432326510414214
993.899,57.51519596500748
996.24,79.60142889488225
998.579,104.73868383592844
1000.92,109.40308020894099
1003.25,100.59443061024717
1005.59,60.64575881662404
1007.92,29.12805588545325
1010.25,5.99313149297609
1012.58,27.002179558254966
1014.91,10.201965837133912
1017.24,59.162920895907064
1019.56,46.550569138242054
1021.88,34.8398160232764
1024.2,46.50542575991153
1026.52,52.54583233443668
1028.84,49.62600164658693
1031.16,76.69648412179117
1033.48,77.42199113294214
1035.79,90.60997142217116
1038.1,119.30585418928763
1040.41,142.50733979926144
1042.72,161.21202382304
1045.03,160.60787822121597
1047.33,138.93039919437433
1049.64,121.89118360485645
1051.94,118.58269587471978
1054.24,125.57351107417094
1056.54,154.14641515286257
1058.84,167.5841242188028
1061.13,186.31214667441145
1063.43,190.898788209719
1065.72,196.72182346223394
1068.01,193.15897720061525
1070.3,180.921262651201
1072.59,154.71965315787315
1074.87,181.16984908000813
1077.16,189.4589494523384
1079.44,204.86926650195232
1081.72,237.5878544510142
1084.0,268.039847843291
1086.28,316.5551332040095
1088.56,394.7969254616253
1090.84,454.9522491314924
1093.11,474.35099092811174
1095.38,490.3230476154645
1097.65,461.626902428781
1099.92,436.87820149630807
1102.19,389.59737788012626
1104.46,347.63822799791706
1106.72,305.94982137806664
1108.98,301.48126755761996
1111.24,308.5626734564371
1113.5,331.3813388465783
1115.76,377.07699944074284
1118.02,405.5037366473666
1120.28,439.99188732572725
1122.53,475.3480487791328
1124.78,456.37889327192966
1127.03,415.5578396893616
1129.28,368.64410614981466
1131.53,287.9684292837203
1133.77,240.5283073219905
1136.02,217.13086223206824
1138.26,191.8690351873097
1140.5,200.5501629887533
1142.74,205.0293163916458
1144.98,209.1140670034008
1147.22,248.6121113244128
1149.45,292.75984716981975
1151.69,298.50809294841247
1153.92,302.9506640844006
1156.15,273.22913991536484
1158.38,252.05667820926578
1160.61,235.6704011100196
1162.83,223.5933048925997
1165.06,202.68188400385498
1167.28,173.3166122461812
1169.5,111.59242396119816
1171.72,86.98538568961499
1173.94,60.257463069175856
1176.16,49.50414487545595
1178.37,72.24968611027725
1180.58,64.92330347107418
1182.8,13.335370820254411
1185.01,-15.179718678770996
1187.22,-28.90640471127881
1189.42,-49.84319156518018
1191.63,-28.89311956522897
1193.84,-6.625668144316933
1196.04,1.1041928145325528
1198.24,-0.5582895233565068
1200.44,3.6751987261461636
1202.64,-20.430635859891936
1204.84,-24.82517761849408
1207.03,-21.17190884148431
1209.23,-3.0865142024349552
1211.42,1.767869335035357
1213.61,23.25206704598122
1215.8,25.274661606667223
1217.99,40.60150272437227
1220.18,49.18902862242044
1222.36,53.80330434081452
1224.55,66.3057267035324
1226.73,54.31968166677257
1228.91,38.706725476726206
1231.09,26.518956303536243
1233.27,23.046623970491055
1235.44,32.72288254036221
1237.62,57.88568842322434
1239.79,58.58731985852114
1241.96,63.11818211142349
1244.13,83.34013647870438
1246.3,120.25792453270788
1248.47,193.16202093674883
1250.64,283.05720054622225
1252.8,355.1863436049546
1254.96,399.83995522726605
1257.13,464.8799705943193
1259.29,540.1683220552268
1261.44,617.2812205138787
1263.6,688.937722530062
1265.76,674.761630753902
1267.91,620.3767276936442
1270.06,580.502009483431
1272.22,535.618348222514
1274.37,485.9208686001755
1276.51,446.69989594922663
1278.66,382.15047572807134
1280.81,339.9914168123014
1282.95,295.3224300243885
1285.09,270.05269523479706
1287.23,241.94847608215468
1289.37,229.1093061219833
1291.51,220.82512735638807
1293.65,258.8620001923159
1295.78,277.03352768552213
1297.92,297.86751787978073
1300.05,277.6059794794246
1302.18,271.77654609330784
1304.31,241.09723381210438
1306.44,238.80977021417448
1308.57,250.77482813333881
1310.69,251.61487847427338
1312.82,269.714185885038
1314.94,297.5521377629393
1317.06,311.32228754611174
1319.18,295.0275884812902
1321.3,276.62324643920374
1323.41,269.8738584442542
1325.53,285.305789299425
1327.64,311.492881544531
1329.75,351.389784462081
1331.87,405.61766403552156
1333.98,397.797531955101
1336.08,371.5026222427864
1338.19,317.6393393057506
1340.3,258.9234440850971
1342.4,208.54671639506614
1344.5,179.31980773843156
1346.6,120.05318935999412
1348.7,120.366671728641
1350.8,127.02273354321733
1352.9,115.11699359553927
1354.99,91.6020159667371
1357.09,49.192067604555405
1359.18,12.36311399588294
1361.27,23.68614817262028
1363.36,34.92242940394499
1365.45,55.30919936889427
1367.54,62.75016267169576
1369.62,78.52978042742347
1371.7,86.50375432384112
1373.79,104.33712973086949
1375.87,128.4090654767183
1377.95,168.19379410021224
1380.03,173.87967734121162
1382.1,159.36921401198788
1384.18,137.3266669162142
1386.25,105.4161659584347
1388.33,66.82552553924324
1390.4,58.74244290284355
1392.47,49.06879172270396
1394.54,32.32539187769112
1396.6,21.271064942489147
1398.67,-16.47831032197837
1400.74,-48.44978683901445
1402.8,-30.50381210738078
1404.86,-15.405645227003788
1406.92,-14.39677926818149
1408.98,-5.052081220701439
1411.04,9.19639975598784
1413.09,26.678479700753314
1415.15,57.96202954680007
1417.2,84.56726100289188
1419.25,96.77625322178301
1421.3,106.061527087694
1423.35,103.99080997998612
1425.4,110.17941958444749
1427.45,110.90931437125573
1429.49,90.65290597769604
1431.54,78.88258587659493
1433.58,65.0231091876135
1435.62,42.261121345682795
1437.66,54.25944667420117
1439.7,69.2047102915617
1441.74,69.2835314462593
1443.77,85.2539549472267
1445.81,82.54069211798583
1447.84,78.04464746508347
1449.87,85.809588203673
1451.9,114.11738521166899
1453.93,154.82134922199884
1455.96,169.34623368151733
1457.98,168.25966618135044
1460.01,183.08167512533691
1462.03,220.7608830651343
1464.05,262.6745095591384
1466.07,336.62837403140566
1468.09,396.71404148771876
1470.11,516.2612063268978
1472.13,641.0281713901945
1474.14,781.3447079630762
1476.16,879.5406300627176
1478.17,972.041035392157
1480.18,1008.2710701039798
1482.19,1020.7511697544705
1484.2,942.9065859720597
1486.21,824.5911988400483
1488.21,675.7065673745713
1490.22,553.3924085739845
1492.22,434.50279075397543
1494.22,332.17756497789856
1496.22,266.794748868072
1498.22,207.8752913694525
1500.22,134.46402798949975
1502.22,94.51063603804414
1504.21,53.202970819532766
1506.21,30.633735158612808
1508.2,33.27667273523434
1510.19,11.27228522927635
1512.18,-15.334069582442453
1514.17,-23.40169877677772
1516.16,-9.027903625011959
1518.14,-9.357500998685964
1520.13,-1.630442459643291
1522.11,-14.419910468494663
1524.09,-9.775177459612678
1526.07,-12.269226986926924
1528.05,18.286956974218583
1530.03,7.272956864154821
1532.01,9.687487112857298
1533.98,3.100769237729992
1535.96,8.702145768320406
1537.93,9.490552285444664
1539.9,30.893561202082537
1541.87,35.86261689351841
1543.84,36.96827177843147
1545.81,34.20970811427446
1547.78,77.72902169741201
1549.74,117.57312461088145
1551.7,123.69374321024657
1553.67,121.42360658564144
1555.63,115.4764445476228
1557.59,102.23269989873393
1559.55,139.59666927650483
1561.5,166.52031066311065
1563.46,156.66990803789486
1565.41,158.66416460131381
1567.37,138.40753409412264
1569.32,117.3759330689411
1571.27,134.56911982848897
1573.22,134.70116860191797
1575.17,146.62903895924364
1577.11,159.54304998768202
1579.06,143.53830684893455
1581.0,133.56707971742935
1582.95,123.81975414712588
1584.89,124.20101953356561
1586.83,115.23462900449067
1588.77,90.30149264379702
1590.7,80.02062785834664
1592.64,89.34439545906025
1594.58,89.17754526582166
1596.51,70.28197599810028
1598.44,20.157685641748685
