Raman Shift,Processed Intensity
331.095,65.39603465821347
333.909,95.43164118233472
336.721,85.21965856032239
339.531,61.093426664832805
342.339,64.55296511382494
345.145,108.43164647654476
347.949,130.1581075747381
350.751,157.7800655457786
353.55,165.34527676292782
356.348,155.90154337465674
359.144,164.35386270110075
361.937,203.03586234480827
364.729,224.7574257776796
367.518,277.56660364219624
370.306,347.368667909785
373.091,420.2118327058588
375.874,502.9063084681911
378.656,538.6433561053022
381.435,523.9952935357928
384.212,421.7726450848163
386.988,279.7860527853177
389.761,152.8462829173568
392.532,102.85947064267839
395.301,85.49379321070774
398.068,76.8461431645569
400.833,61.680230118447525
403.596,18.807539678005924
406.358,2.1825780748276884
409.117,9.807640610580165
411.874,-4.505275151652768
414.629,-35.22969882925554
417.382,-68.9818204254434
420.133,-82.94905257309847
422.882,-64.55669180828545
425.629,-6.229825674960011
428.374,50.79713165002249
431.117,81.09946793085646
433.858,112.25262936512081
436.597,143.1655342189597
439.334,122.98531503370259
442.069,127.85920368961388
444.802,97.55355932679049
447.533,51.40622959940265
450.262,74.42176907278781
452.989,138.41427666816435
455.714,169.62642872511697
458.438,191.2056549212257
461.159,171.29936181074027
463.878,134.67396588706288
466.595,102.71487902618765
469.31,121.37887488251499
472.024,105.09883623705991
474.735,83.02183567896964
477.444,83.7710258108682
480.152,82.54086278752902
482.857,101.23994890216454
485.561,108.5386370774786
488.262,100.05950076982526
490.962,88.4249467305035
493.659,109.54292300515408
496.355,161.08310312362482
499.048,212.85784110909026
501.74,254.72693601097535
504.43,291.93096786645856
507.118,321.04368128102124
509.804,354.7338928185177
512.488,393.28930315315347
515.17,423.0450711262165
517.85,466.76476875519893
520.528,512.8308600524401
523.204,589.6732750818669
525.878,639.7694125871562
528.551,657.8346188103692
531.221,657.5364758344103
533.89,651.2567089730892
536.556,649.186427494526
539.221,673.1832701064509
541.883,696.438074251028
544.544,732.570116828259
547.203,725.7223549193841
549.86,696.0376188912264
552.515,689.0871864529245
555.168,687.3945948078913
557.819,695.4832623295902
560.469,708.4479197611149
563.116,714.1927080814439
565.761,696.764514466935
568.405,675.0196415861469
571.047,675.6238102279913
573.687,667.3378762155994
576.324,618.3035473201771
578.96,574.0433858891543
581.594,537.69890671242
584.227,486.88772250760576
586.857,470.6559275006043
589.485,458.0971476727527
592.112,446.9239719604052
594.737,416.6584310735452
597.359,394.7748572667929
599.98,423.3189345865985
602.599,437.71722530891566
605.216,468.3486011387704
607.831,527.4490077431692
610.445,602.0162292840068
613.056,632.8575100938374
615.666,699.3038430183146
618.274,719.8290196633843
620.88,760.3353473091474
623.484,819.2012705856268
626.086,885.757564577109
628.686,904.9063850693424
631.284,947.216509272921
633.881,990.5423860704859
636.476,1008.5955672163027
639.068,1015.3732813929882
641.659,970.0155796968088
644.249,896.5672430277327
646.836,794.2158799556832
649.421,671.0062150629733
652.005,539.6019963343692
654.587,432.0002834995239
657.166,303.34097447065324
659.745,254.00204606592706
662.321,203.1709852090471
664.895,151.41622012883545
667.468,139.92521822548542
670.038,140.64734584157668
672.607,121.15101374736878
675.174,135.43320357847915
677.739,131.01470855926937
680.303,92.84489803576662
682.864,29.96838677047799
685.424,12.810751856267416
687.982,-6.964321798347555
690.538,3.5925833112155487
693.092,-2.3309946802396553
695.645,6.976323612097531
698.195,-15.488329701401653
700.744,5.605555729375737
703.291,-16.078124310285602
705.836,-10.970654488419314
708.38,-22.408017613350694
710.921,7.273871685910308
713.461,19.501074982023056
715.999,42.509249975610146
718.535,15.24841402308084
721.069,7.573423911402642
723.602,-0.04173484331840882
726.133,17.06748569185129
728.662,27.75620174848018
731.189,35.64153230575721
733.714,-3.373585508143151
736.238,-8.338485776598645
738.759,-27.30238696459901
741.279,-6.885814953639965
743.798,-13.042503112975737
746.314,-6.059390434661964
748.829,-9.556620363038292
751.342,-0.8684933274698778
753.853,-7.995848454761472
756.362,17.203458518759362
758.869,24.443124954206723
761.375,24.0560178355463
763.879,16.375123628341044
766.381,13.162117186109754
768.882,19.321644942400326
771.38,42.94894143619831
773.877,74.47268393256809
776.372,92.51213275758118
778.866,74.9247478237221
781.357,58.94904325053085
783.847,77.91887055667894
786.335,74.88246375679591
788.821,103.03100826782929
791.306,137.36530505349856
793.789,141.41005381636842
796.27,118.92813618992295
798.749,147.4444227401582
801.227,151.38862758623418
803.702,209.52387730683722
806.176,273.7562322274912
808.649,328.4203981840592
811.119,355.5178192386229
813.588,357.8595323001282
816.055,313.87568841169013
818.521,263.3298359426617
820.984,234.08082282832493
823.446,206.84469880957658
825.906,207.52804624404143
828.365,193.13273948861706
830.821,143.47022809155487
833.276,115.20915331786864
835.729,112.2562980080861
838.181,101.99467929413595
840.631,104.37878417238062
843.079,91.26790031475093
845.525,40.47373259415235
847.97,49.95087675273862
850.412,67.41586449875513
852.854,63.2043038414713
855.293,63.080400378499235
857.731,23.998859535485735
860.167,10.962026901050194
862.601,17.400838085529358
865.034,36.17481619876412
867.465,29.810164565988316
869.894,34.356907062759774
872.321,13.769837973696212
874.747,48.95613851788153
877.171,42.63251718380138
879.594,34.61092149284468
882.014,15.036630715196907
884.433,15.721586680968358
886.851,26.382486496084994
889.266,57.78363716294143
891.68,87.9274292486748
894.092,108.81623912485429
896.503,101.73814073099697
898.912,94.45737924283344
901.319,71.54770188343764
903.724,66.24949825816498
906.128,76.13646449911766
908.53,103.49655312389291
910.931,109.1891133705285
913.329,100.12107915148886
915.726,93.15172843622372
918.122,117.71172834801291
920.516,115.32694216557479
922.908,140.85652203895802
925.298,130.96909694353053
927.687,122.04753206253486
930.074,143.80797388393762
932.459,161.0141333925037
934.843,138.90585497616667
937.225,148.2943519990588
939.605,116.13363285073501
941.984,96.80621270968254
944.361,130.9326348306413
946.736,125.51432516526347
949.11,85.93358983991266
951.482,93.90599358584677
953.853,76.38511912178296
956.222,92.56256463169461
958.589,123.96317933784462
960.954,98.82601335953404
963.318,71.19955328613855
965.68,65.37029108347724
968.041,69.38653109541883
970.4,95.82029228358306
972.757,94.62444856227808
975.113,57.180345323912206
977.467,9.10732072631231
979.819,-27.689677781861064
982.17,-22.305810269037465
984.519,-10.645869703383369
986.866,-1.9957151139581129
989.212,32.93010235369161
991.556,40.512140813219276
993.899,51.74986880126062
996.24,83.07118408825295
998.579,90.61812707013814
1000.92,61.53259934245739
1003.25,75.00398703634528
1005.59,73.1739270116625
1007.92,77.56488257394358
1010.25,64.0325287151486
1012.58,69.2419468782166
1014.91,81.85810543591356
1017.24,83.92681636014595
1019.56,93.73188236747433
1021.88,118.1284345408069
1024.2,105.54293661776614
1026.52,99.78271308857552
1028.84,126.94071538918683
1031.16,119.06219285631437
1033.48,151.71612558722768
1035.79,185.2333239662105
1038.1,201.51595676244824
1040.41,204.2280316088711
1042.72,215.46206595718672
1045.03,216.35813898529454
1047.33,219.96103874278992
1049.64,197.22026643933282
1051.94,166.2757550187241
1054.24,139.74358773298354
1056.54,139.76362147832947
1058.84,161.09472917877565
1061.13,190.44813740782433
1063.43,218.96362115300963
1065.72,229.06665096140182
1068.01,211.99220675176707
1070.3,199.0228773410256
1072.59,198.96505520879055
1074.87,216.67275030953215
1077.16,229.14283245616707
1079.44,257.94360703698567
1081.72,293.7386288278101
1084.0,308.6200396136801
1086.28,345.2514296200627
1088.56,392.8678418012055
1090.84,440.7995856523012
1093.11,513.9484319740254
1095.38,559.1209504942253
1097.65,544.1713712991291
1099.92,502.19206531217014
1102.19,421.94212001091023
1104.46,338.32353419157675
1106.72,312.0478889240819
1108.98,305.1601613641735
1111.24,333.41968142273913
1113.5,371.1572789112954
1115.76,394.2752878303429
1118.02,417.438026848188
1120.28,474.26227977977237
1122.53,510.5553951131121
1124.78,497.267671250024
1127.03,449.2542655563775
1129.28,391.98948436472756
1131.53,336.5667872626598
1133.77,287.3178390001833
1136.02,251.6696566352191
1138.26,194.28747096480174
1140.5,190.16996890866903
1142.74,225.83977398808065
1144.98,252.1529744236882
1147.22,255.48960361435593
1149.45,279.5155491874066
1151.69,278.8016049060093
1153.92,308.49014162418234
1156.15,316.15225443227746
1158.38,299.4544336119843
1160.61,264.96809273419717
1162.83,271.264811042603
1165.06,227.05919488487757
1167.28,198.68507247722505
1169.5,153.85740295462801
1171.72,134.19609018300798
1173.94,121.0831299047145
1176.16,130.61499497925797
1178.37,98.0312111002304
1180.58,51.42864679794866
1182.8,24.523422489705126
1185.01,-11.872894755689003
1187.22,-39.99614407240938
1189.42,-55.46289739015515
1191.63,-52.079977741304674
1193.84,-41.796839020768175
1196.04,-15.419856591621965
1198.24,-2.469480722734943
1200.44,7.248319748599442
1202.64,8.642040711948994
1204.84,16.906054395936508
1207.03,26.615831242932245
1209.23,39.44221028223046
1211.42,40.96090930270657
1213.61,31.50965407309741
1215.8,16.04530756227382
1217.99,22.334332492852354
1220.18,11.048015799573477
1222.36,34.19102804338695
1224.55,25.244270782834747
1226.73,43.35534411802246
1228.91,28.195680901255173
1231.09,38.865302526966616
1233.27,35.22614615021803
1235.44,42.378251870272834
1237.62,56.89785467607226
1239.79,84.5516668679129
1241.96,77.63020809816908
1244.13,108.56684969772778
1246.3,157.7949542405247
1248.47,212.033586536646
1250.64,288.716081768285
1252.8,321.5614707685618
1254.96,371.43161958605765
1257.13,453.47408333505655
1259.29,567.8840076648457
1261.44,673.9041254671024
1263.6,735.1104678689976
1265.76,751.1742657024936
1267.91,759.9571843069691
1270.06,716.2256059508941
1272.22,668.317293205884
1274.37,600.9509094636153
1276.51,509.2260156432178
1278.66,438.908781184384
1280.81,392.6224569452379
1282.95,324.5616576240052
1285.09,303.9685489425988
1287.23,302.7995110206698
1289.37,306.48703984490317
1291.51,306.8921249287889
1293.65,306.3994841152444
1295.78,283.53660790305435
1297.92,303.830899011396
1300.05,309.2382405158028
1302.18,306.90489731746675
1304.31,318.3103699934802
1306.44,316.7435819804259
1308.57,321.1124000912894
1310.69,349.65791693713663
1312.82,350.62111430116806
1314.94,316.67143127468034
1317.06,307.3829514406432
1319.18,305.6629710096636
1321.3,348.1329479083274
1323.41,368.12849848658516
1325.53,382.6517751775282
1327.64,365.8952727285839
1329.75,370.19420586129013
1331.87,371.9788869310671
1333.98,383.4890083488947
1336.08,357.63078214583516
1338.19,327.3102700137533
1340.3,281.9095704888955
1342.4,248.14395851641166
1344.5,191.2999773958427
1346.6,159.94972120279408
1348.7,125.47464102013168
1350.8,83.54173212156434
1352.9,53.627340202832556
1354.99,21.160015231957004
1357.09,-4.3842537481421004
1359.18,19.279862849647543
1361.27,35.53274832840816
1363.36,57.89745717609162
1365.45,96.94447737828636
1367.54,90.62506774958774
1369.62,75.50935716973254
1371.7,67.88158667687594
1373.79,78.54963727514792
1375.87,118.8450339326962
1377.95,146.95628291304956
1380.03,143.9288757731572
1382.1,126.99862669475465
1384.18,111.63929553002095
1386.25,104.22925846627777
1388.33,99.81341678592935
1390.4,65.81748657877733
1392.47,26.000383692439527
1394.54,0.5970848732349623
1396.6,-9.967082521493694
1398.67,1.9235660998740514
1400.74,11.360793534263621
1402.8,3.531494040255666
1404.86,2.1938896509022925
1406.92,-10.08436758805692
1408.98,-29.259521586659275
1411.04,3.2835334761916783
1413.09,50.58840254465031
1415.15,61.936716896102325
1417.2,95.03861407068257
1419.25,98.08036065792999
1421.3,100.10530841678224
1423.35,117.68056468128293
1425.4,140.8493770520049
1427.45,151.89304189698873
1429.49,151.47376523363823
1431.54,132.58704742013242
1433.58,133.70454403731765
1435.62,134.86930772298115
1437.66,141.02912524421504
1439.7,131.2746164745472
1441.74,92.45828575202268
1443.77,83.71833514204445
1445.81,92.90723960497894
1447.84,101.63936978280913
1449.87,116.19575764292927
1451.9,102.1431478362208
1453.93,112.47685857893703
1455.96,140.66840443935303
1457.98,179.9512143625043
1460.01,214.79682588540754
1462.03,261.86726982846994
1464.05,329.2531692726045
1466.07,427.71183853635216
1468.09,509.33395358156895
1470.11,624.734031942922
1472.13,747.0504364669084
1474.14,888.469188574684
1476.16,1020.7954005725178
1478.17,1136.2628032003304
1480.18,1215.1527969897625
1482.19,1228.8896940984366
1484.2,1151.707388715632
1486.21,1000.9826941346414
1488.21,837.7115369679846
1490.22,681.223246600709
1492.22,580.942463691317
1494.22,470.0558105774494
1496.22,368.03570453871225
1498.22,247.2117901071167
1500.22,181.24713328228358
1502.22,119.7572728895052
1504.21,96.45308146161574
1506.21,72.09314993038652
1508.2,57.531410413155754
1510.19,39.717139951843365
1512.18,38.50448806148165
1514.17,-1.4903766736290436
1516.16,-27.41307238472109
1518.14,-24.980523989068843
1520.13,-21.76667388907572
1522.11,-6.059624131155033
1524.09,1.947885478250555
1526.07,-0.5081934965435266
1528.05,0.0939199119704881
1530.03,11.08564097166277
1532.01,21.608014572319917
1533.98,26.37361531866918
1535.96,7.76178207090129
1537.93,17.961471532815267
1539.9,21.06649279233966
1541.87,29.837409311021474
1543.84,42.89201234208326
1545.81,68.46722291991159
1547.78,62.990517659070065
1549.74,76.88944979140501
1551.7,93.4011702031512
1553.67,93.42956751966153
1555.63,104.02145580918568
1557.59,136.74752419140873
1559.55,159.2261435888538
1561.5,172.98050681160908
1563.46,165.72434007063066
1565.41,158.26666211008933
1567.37,147.749876673048
1569.32,150.03072211000313
1571.27,156.8707447969466
1573.22,108.93629636295373
1575.17,80.60805472729339
1577.11,90.7905451365416
1579.06,72.10261358264506
1581.0,69.35361450669961
1582.95,58.6386461217744
1584.89,49.29092859288107
1586.83,56.16751555027122
1588.77,58.220719888453004
1590.7,36.16477766044295
1592.64,11.190131019637192
1594.58,-7.274669790703911
1596.51,-2.8963025432078666
1598.44,37.99189562975448
