Raman Shift,Processed Intensity
331.095,89.08364999999985
333.909,-0.4187023809524959
336.721,-47.0763380952382
339.531,-54.606623809523796
342.339,-9.465404761904715
345.145,42.84432857142858
347.949,58.130695238095264
350.751,37.44111428571426
353.55,4.4908523809523775
356.348,-22.43207619047618
359.144,-10.276504761904746
361.937,5.15284761904766
364.729,46.19549047619053
367.518,82.23979523809535
370.306,182.1996619047621
373.091,297.1802142857145
375.874,412.66913333333355
378.656,467.6320952380954
381.435,435.0353809523811
384.212,342.37108952380964
386.988,210.0372990476191
389.761,104.71879809523816
392.532,71.43556761904766
395.301,31.209307619047635
398.068,22.538689523809552
400.833,35.25799904761905
403.596,5.6309619047619135
406.358,4.923128571428571
409.117,-17.646042857142895
411.874,-31.760373333333323
414.629,-17.625954285714275
417.382,-2.7806323809523685
420.133,26.57243047619051
422.882,61.469720000000045
425.629,85.33020285714298
428.374,166.66903619047633
431.117,244.4312000000002
433.858,311.2299047619049
436.597,350.5840000000002
439.334,315.3946190476192
442.069,251.61152380952393
444.802,194.75695238095253
447.533,180.78223809523826
450.262,197.8303809523811
452.989,236.18800000000013
455.714,246.1426666666668
458.438,250.9827809523811
461.159,211.71178095238105
463.878,188.0479238095239
466.595,140.09070000000008
469.31,119.89314285714295
472.024,108.27034761904771
474.735,135.08612380952388
477.444,145.49005238095248
480.152,170.77507619047628
482.857,165.32980952380964
485.561,156.82895238095247
488.262,156.94766666666678
490.962,161.3139523809525
493.659,162.31747619047627
496.355,153.72923809523817
499.048,130.03514285714294
501.74,128.4828095238096
504.43,132.27295238095246
507.118,144.2249523809525
509.804,148.58657142857152
512.488,180.08233333333348
515.17,227.24642857142874
517.85,256.1364761904763
520.528,244.66765714285722
523.204,196.9928952380953
525.878,130.2176952380953
528.551,92.01848571428577
531.221,111.78652380952391
533.89,117.38858095238102
536.556,132.8344095238096
539.221,126.3242190476191
541.883,122.43896190476197
544.544,86.71122857142862
547.203,108.24548571428579
549.86,117.05060000000009
552.515,143.6110380952382
555.168,147.07830476190486
557.819,182.4604000000001
560.469,170.24138095238106
563.116,176.19038095238105
565.761,174.98128571428583
568.405,171.19233333333347
571.047,152.63961904761916
573.687,193.4721904761906
576.324,209.5534285714287
578.96,226.31709523809536
581.594,234.33966666666674
584.227,209.76861904761915
586.857,177.9894761904763
589.485,183.19642857142867
592.112,181.53647619047632
594.737,186.72714285714295
597.359,186.24719047619055
599.98,169.1466190476191
602.599,128.99921428571434
605.216,127.94947619047626
607.831,121.18940476190483
610.445,117.29112380952388
613.056,119.92182380952387
615.666,98.51037619047622
618.274,86.43779047619054
620.88,89.13218095238102
623.484,100.259361904762
626.086,151.29409523809537
628.686,201.7109904761906
631.284,241.69896666666688
633.881,290.06546666666685
636.476,293.8553809523811
639.068,286.9232380952383
641.659,281.7898000000001
644.249,222.49901904761913
646.836,154.14284285714294
649.421,101.57460000000005
652.005,64.74240000000005
654.587,56.45159523809529
657.166,61.078733333333346
659.745,35.14286095238095
662.321,2.305886190476194
664.895,-11.53218619047619
667.468,0.33775571428573237
670.038,10.767750000000008
672.607,18.60970952380953
675.174,22.906015714285722
677.739,18.88935857142858
680.303,20.60197142857146
682.864,41.08604523809526
685.424,34.66938142857145
687.982,38.536945714285736
690.538,33.11176285714287
693.092,29.86440285714289
695.645,40.408401904761924
698.195,33.59534238095239
700.744,25.038746190476214
703.291,31.971190000000014
705.836,26.434843809523834
708.38,37.471895714285736
710.921,31.791326666666667
713.461,13.864071428571442
715.999,17.30403333333335
718.535,12.201361904761923
721.069,24.313019047619083
723.602,55.25319523809527
726.133,71.63620476190479
728.662,65.64792380952383
731.189,53.66479523809525
733.714,34.777723809523835
736.238,22.934819047619076
738.759,25.655714285714318
741.279,47.69851904761909
743.798,74.9638714285715
746.314,96.01950952380959
748.829,115.43327619047624
751.342,115.91590000000004
753.853,89.74970476190481
756.362,96.88406190476199
758.869,111.2202857142858
761.375,116.66022857142865
763.879,105.43910952380956
766.381,113.12553809523817
768.882,91.09783809523816
771.38,94.82970476190482
773.877,89.46155238095243
776.372,83.13395238095242
778.866,67.51141428571434
781.357,80.40137142857148
783.847,55.944795238095274
786.335,56.61590000000007
788.821,96.07983333333343
791.306,133.47770476190487
793.789,140.66544285714292
796.27,145.54626666666672
798.749,118.9764333333334
801.227,131.6209904761906
803.702,161.95551904761913
806.176,175.02640000000008
808.649,168.92838095238105
811.119,177.32738095238105
813.588,164.08008571428581
816.055,157.18576666666675
818.521,117.54925714285719
820.984,99.31282380952389
823.446,101.09580000000008
825.906,128.80290000000008
828.365,144.14855238095245
830.821,154.32341904761913
833.276,156.51855238095249
835.729,158.3530761904763
838.181,136.30415238095244
840.631,138.56274285714292
843.079,122.84397142857149
845.525,115.95811428571436
847.97,118.7159428571429
850.412,89.54699047619049
852.854,57.07178095238098
855.293,40.053590476190486
857.731,33.9699485714286
860.167,35.20338904761906
862.601,24.755620952380955
865.034,18.580758571428586
867.465,24.82357809523811
869.894,15.4860985714286
872.321,43.237062857142895
874.747,54.07869523809526
877.171,46.822823809523854
879.594,77.75768571428577
882.014,92.26659047619052
884.433,99.73313809523817
886.851,131.8266380952382
889.266,169.21638095238106
891.68,173.23880952380964
894.092,168.23004761904767
896.503,164.47861904761916
898.912,143.60695238095246
901.319,152.33233333333345
903.724,190.1815238095239
906.128,200.53914285714296
908.53,176.83657142857152
910.931,184.7440476190477
913.329,142.979380952381
915.726,139.30766666666676
918.122,131.97042857142867
920.516,146.7808476190477
922.908,129.55170476190483
925.298,145.71550190476196
927.687,105.27556142857146
930.074,88.47350380952385
932.459,51.59871952380955
934.843,51.70248000000004
937.225,37.40738523809529
939.605,73.47923047619052
941.984,83.58806380952385
944.361,73.49946380952385
946.736,61.26466571428575
949.11,57.696788571428606
951.482,65.1327371428572
953.853,65.38564952380956
956.222,100.17311619047626
958.589,85.498780952381
960.954,84.79466666666673
963.318,92.11176190476198
965.68,92.54866666666669
968.041,68.20384761904766
970.4,54.270923809523815
972.757,30.03888571428574
975.113,29.844171428571457
977.467,38.927885714285736
979.819,31.435804761904787
982.17,49.98983809523812
984.519,41.68799047619051
986.866,42.15196190476193
989.212,52.384304761904794
991.556,53.911233333333364
993.899,66.44942380952386
996.24,79.95334761904766
998.579,76.61551428571431
1000.92,52.62835714285716
1003.25,43.04123809523813
1005.59,35.85581904761908
1007.92,47.74031904761907
1010.25,44.695971428571454
1012.58,39.67631904761906
1014.91,25.872885714285733
1017.24,28.905552380952408
1019.56,40.01309047619051
1021.88,52.862680952381
1024.2,77.93080476190482
1026.52,82.02720000000005
1028.84,88.77070952380959
1031.16,110.2567380952382
1033.48,142.81809523809534
1035.79,167.54963333333347
1038.1,224.35527619047633
1040.41,247.52000000000015
1042.72,257.3763333333335
1045.03,263.0662857142858
1047.33,243.54085714285725
1049.64,206.27495238095253
1051.94,199.9814285714287
1054.24,201.4681904761906
1056.54,181.92428571428582
1058.84,200.53823809523823
1061.13,186.78452380952388
1063.43,151.18476190476198
1065.72,142.92761904761912
1068.01,155.8680476190477
1070.3,150.67033333333345
1072.59,189.42723809523824
1074.87,200.6126666666668
1077.16,185.79547619047634
1079.44,184.68757142857157
1081.72,221.90533333333352
1084.0,269.1126190476193
1086.28,342.0685238095241
1088.56,455.72285714285744
1090.84,577.5964761904766
1093.11,653.6387619047623
1095.38,686.5132380952384
1097.65,636.9789523809527
1099.92,548.4614761904766
1102.19,470.14814285714317
1104.46,412.32138095238116
1106.72,376.83552380952403
1108.98,382.0683333333336
1111.24,416.58828571428603
1113.5,466.8680952380956
1115.76,523.666285714286
1118.02,547.3605238095241
1120.28,560.9482380952385
1122.53,558.8546190476193
1124.78,544.7908095238098
1127.03,477.27738095238124
1129.28,408.4063333333335
1131.53,332.50785714285735
1133.77,257.00757142857157
1136.02,194.0452380952382
1138.26,180.95104761904773
1140.5,168.2459523809525
1142.74,197.11742857142872
1144.98,243.75323809523826
1147.22,273.7693809523811
1149.45,262.40133333333347
1151.69,248.6939047619049
1153.92,225.40623809523822
1156.15,211.67851428571439
1158.38,181.03215714285724
1160.61,168.03588571428583
1162.83,146.35436666666675
1165.06,120.98522857142865
1167.28,108.4023571428572
1169.5,104.07986666666672
1171.72,90.20602857142863
1173.94,93.58846666666673
1176.16,101.08278571428573
1178.37,91.8775428571429
1180.58,77.68550285714291
1182.8,57.3147944761905
1185.01,31.09712304761906
1187.22,16.22192038095239
1189.42,1.545199809523821
1191.63,20.970700380952408
1193.84,17.25955066666667
1196.04,39.458635428571476
1198.24,58.85311714285719
1200.44,74.53781714285718
1202.64,70.6553428571429
1204.84,72.49126190476193
1207.03,42.37898952380955
1209.23,31.41392285714287
1211.42,28.8345123809524
1213.61,29.06981523809526
1215.8,43.54905523809527
1217.99,38.93968000000002
1220.18,25.242689523809528
1222.36,23.649466666666697
1224.55,33.01858095238099
1226.73,49.97049047619052
1228.91,64.17336666666668
1231.09,66.05745238095241
1233.27,48.05313809523813
1235.44,66.4477952380953
1237.62,76.672280952381
1239.79,96.5382095238096
1241.96,99.47645714285719
1244.13,100.58462380952386
1246.3,93.77011428571434
1248.47,104.74950000000007
1250.64,114.71608095238105
1252.8,130.52974761904773
1254.96,162.5743809523811
1257.13,203.61476190476205
1259.29,231.4632857142859
1261.44,227.59933333333348
1263.6,226.3119047619049
1265.76,207.98509523809534
1267.91,186.76509523809534
1270.06,171.8932380952382
1272.22,158.27757142857152
1274.37,144.5409523809525
1276.51,154.87738095238103
1278.66,180.71878095238102
1280.81,164.40213809523817
1282.95,142.88332380952392
1285.09,138.30886190476198
1287.23,137.44422857142865
1289.37,137.95988095238104
1291.51,140.62147142857148
1293.65,108.9089571428572
1295.78,95.25466190476196
1297.92,81.4240952380953
1300.05,89.65882380952388
1302.18,106.86754285714292
1304.31,106.38735238095245
1306.44,106.55537619047627
1308.57,120.56555238095245
1310.69,141.2789142857144
1312.82,162.3178380952382
1314.94,172.6384095238096
1317.06,161.62542857142867
1319.18,159.09166666666678
1321.3,171.94509523809535
1323.41,196.28500000000014
1325.53,214.5431904761906
1327.64,241.5798095238097
1329.75,269.9223333333335
1331.87,296.1927619047621
1333.98,315.8701904761906
1336.08,309.1009047619049
1338.19,295.12619047619063
1340.3,290.7106095238097
1342.4,257.38075238095246
1344.5,199.23476666666673
1346.6,140.94143809523817
1348.7,97.26560476190484
1350.8,77.40040000000008
1352.9,106.96709047619053
1354.99,109.87263333333338
1357.09,100.1668571428572
1359.18,107.23246190476198
1361.27,124.97617142857152
1363.36,111.6856238095239
1365.45,148.6003238095239
1367.54,160.19803809523816
1369.62,171.90897142857156
1371.7,206.97220000000016
1373.79,229.10281904761916
1375.87,225.8259047619049
1377.95,264.61800000000017
1380.03,271.4321904761906
1382.1,241.07876190476202
1384.18,236.9863142857144
1386.25,180.34540952380956
1388.33,134.91815238095248
1390.4,133.32298095238102
1392.47,115.55948095238101
1394.54,77.43650952380959
1396.6,80.81028476190478
1398.67,39.965577619047636
1400.74,23.425112380952417
1402.8,36.37786523809526
1404.86,38.29835047619051
1406.92,39.89908238095241
1408.98,47.70184666666668
1411.04,49.56166666666671
1413.09,56.61909523809528
1415.15,68.58597619047623
1417.2,63.26921428571432
1419.25,72.57089523809529
1421.3,79.34522857142862
1423.35,106.5417476190477
1425.4,104.39532380952384
1427.45,92.3313285714286
1429.49,58.870271428571456
1431.54,63.10410000000005
1433.58,75.60075238095244
1435.62,98.07106666666671
1437.66,91.70181428571432
1439.7,80.20361904761909
1441.74,63.57279047619053
1443.77,61.3294190476191
1445.81,74.18402857142863
1447.84,82.94230952380957
1449.87,95.50523809523816
1451.9,104.44036190476197
1453.93,106.3150190476191
1455.96,106.88771428571435
1457.98,122.39242857142865
1460.01,126.87309523809532
1462.03,148.18304761904773
1464.05,161.50904761904772
1466.07,193.08528571428585
1468.09,221.00400000000013
1470.11,261.11804761904784
1472.13,279.5670952380954
1474.14,314.87142857142874
1476.16,316.5514761904764
1478.17,299.6990000000001
1480.18,270.1206666666668
1482.19,230.47977142857155
1484.2,170.58303809523818
1486.21,124.71333333333337
1488.21,93.67755238095243
1490.22,56.66337619047624
1492.22,82.04956190476197
1494.22,79.1194723809524
1496.22,45.72803190476191
1498.22,24.73043523809526
1500.22,32.31552047619051
1502.22,36.005387619047674
1504.21,69.94152714285717
1506.21,58.97979142857144
1508.2,43.023855238095265
1510.19,27.882310000000015
1512.18,23.93532000000002
1514.17,32.610832857142874
1516.16,31.813100952380967
1518.14,29.68462428571432
1520.13,60.558368571428616
1522.11,57.24380380952384
1524.09,55.78848952380955
1526.07,40.76392809523809
1528.05,24.694075238095255
1530.03,6.388642380952401
1532.01,29.895451428571455
1533.98,35.786366190476215
1535.96,55.633208571428604
1537.93,42.48405380952383
1539.9,55.81560857142861
1541.87,37.67605952380955
1543.84,58.49439047619052
1545.81,69.033330952381
1547.78,66.81734285714289
1549.74,52.03759523809528
1551.7,94.64701904761912
1553.67,111.93234285714296
1555.63,157.6560285714287
1557.59,169.6760333333334
1559.55,137.9931428571429
1561.5,94.7986952380953
1563.46,93.80756190476197
1565.41,94.83078095238102
1567.37,98.34520476190482
1569.32,118.54215714285722
1571.27,133.80362380952388
1573.22,132.13055238095245
1575.17,131.61896666666672
1577.11,136.98433333333338
1579.06,108.98933333333339
1581.0,104.96845238095243
1582.95,87.11331904761909
1584.89,85.32960476190483
1586.83,97.33278571428579
1588.77,126.8856714285715
1590.7,125.7513857142858
1592.64,147.16899047619054
1594.58,146.2824785714286
1596.51,149.3070571428573
1598.44,165.41037619047665
