Raman Shift,Processed Intensity
331.095,75.48197380952362
333.909,7.444085714285507
336.721,-15.771278571428724
339.531,-12.381219047619055
342.339,-17.91279523809523
345.145,3.7980523809523836
347.949,18.98830476190475
350.751,-20.770409523809526
353.55,-10.238552380952392
356.348,-11.699026666666677
359.144,-23.81438857142856
361.937,-0.15048190476187706
364.729,38.10897904761909
367.518,69.82968476190484
370.306,130.97382095238106
373.091,203.21904000000018
375.874,267.91131428571447
378.656,309.96919047619065
381.435,317.02716190476207
384.212,267.9115952380953
386.988,166.25982380952382
389.761,78.47230952380956
392.532,15.3322380952381
395.301,-11.756995238095215
398.068,-3.9139333333333237
400.833,16.077242857142867
403.596,0.9578714285714245
406.358,9.89934761904762
409.117,-1.925442857142865
411.874,-9.008847619047621
414.629,-23.270285714285723
417.382,-22.53252380952381
420.133,5.478438095238143
422.882,48.46640952380959
425.629,105.89876666666677
428.374,166.6246238095239
431.117,204.1139047619049
433.858,240.8373809523811
436.597,259.26709523809535
439.334,226.73333333333343
442.069,186.13885714285726
444.802,170.19680952380963
447.533,193.90700000000018
450.262,236.60380952380967
452.989,260.1933809523812
455.714,261.53528571428586
458.438,236.29957142857157
461.159,200.91867619047628
463.878,149.68258095238102
466.595,95.0730190476191
469.31,69.9526571428572
472.024,86.2324000000001
474.735,136.4434857142858
477.444,174.64029523809532
480.152,186.3546190476191
482.857,176.4991428571429
485.561,145.22566666666677
488.262,128.30466666666675
490.962,149.31676190476202
493.659,182.12853333333345
496.355,184.082961904762
499.048,181.28487619047627
501.74,153.93518095238102
504.43,122.5198761904763
507.118,138.4776761904763
509.804,189.8668190476192
512.488,214.50704761904774
515.17,239.59933333333345
517.85,224.91609523809532
520.528,195.75314285714296
523.204,169.45409523809536
525.878,146.93400000000008
528.551,139.0124761904763
531.221,129.55690476190483
533.89,111.62504761904769
536.556,113.46428571428577
539.221,117.13172380952388
541.883,107.49414761904768
544.544,104.70339523809528
547.203,93.95900476190482
549.86,101.65064285714294
552.515,127.16745238095248
555.168,131.80348095238102
557.819,171.9474000000001
560.469,179.60685714285722
563.116,178.26514285714296
565.761,186.64328571428584
568.405,203.22438095238107
571.047,189.82404761904775
573.687,211.11466666666678
576.324,202.7684285714287
578.96,205.93304761904773
581.594,202.89895238095252
584.227,201.146761904762
586.857,174.39428571428581
589.485,152.12138095238106
592.112,133.09285714285724
594.737,130.35890476190485
597.359,134.92214285714294
599.98,145.45085714285722
602.599,144.3272380952382
605.216,158.31409523809532
607.831,160.1740000000001
610.445,155.8115714285715
613.056,158.7033238095239
615.666,141.80053809523815
618.274,133.43540952380962
620.88,126.65398571428578
623.484,124.2166000000001
626.086,150.406442857143
628.686,185.69737142857159
631.284,240.3240476190478
633.881,298.99757142857163
636.476,339.2377619047621
639.068,352.2790476190478
641.659,314.4976666666668
644.249,242.79385714285726
646.836,192.9244857142858
649.421,128.69389047619055
652.005,103.14373333333342
654.587,110.50666190476198
657.166,83.82395238095243
659.745,86.4703190476191
662.321,83.4396047619048
664.895,71.82033809523816
667.468,67.6532190476191
670.038,71.12204285714289
672.607,40.45787619047621
675.174,23.843942857142874
677.739,32.035442857142904
680.303,56.97740952380957
682.864,70.42461904761909
685.424,94.41756874285718
687.982,87.13972307619049
690.538,38.58415567619049
693.092,14.220333209523814
695.645,15.2318794857143
698.195,-5.768681685714271
700.744,22.831354457142883
703.291,26.97828095238095
705.836,8.523342857142875
708.38,19.984661904761946
710.921,49.07117142857146
713.461,54.77760952380959
715.999,88.90857142857149
718.535,87.93545238095243
721.069,101.32989047619056
723.602,122.94480000000006
726.133,119.77587619047625
728.662,103.2953047619048
731.189,84.73740000000004
733.714,77.81276666666675
736.238,95.18477142857151
738.759,111.1359095238096
741.279,124.13918095238103
743.798,123.28703809523816
746.314,130.38614285714297
748.829,141.00514285714294
751.342,154.76060952380962
753.853,137.459680952381
756.362,131.52874285714293
758.869,121.96612857142864
761.375,110.62693333333338
763.879,90.46196666666674
766.381,113.46941904761911
768.882,118.1715238095239
771.38,121.85274761904769
773.877,110.13120000000006
776.372,87.48170952380957
778.866,87.9514857142858
781.357,99.11082380952388
783.847,130.67308571428578
786.335,131.73329047619055
788.821,120.52920952380961
791.306,123.25062380952389
793.789,134.46933333333342
796.27,131.42296666666678
798.749,162.82584761904772
801.227,177.39238095238107
803.702,217.50404761904775
806.176,235.20857142857153
808.649,234.55409523809539
811.119,216.1602380952382
813.588,200.0751904761906
816.055,204.9188571428573
818.521,216.73985714285726
820.984,216.06271428571443
823.446,214.74561904761916
825.906,208.3613809523811
828.365,189.2440000000001
830.821,173.96647619047627
833.276,154.10157142857153
835.729,153.26966666666675
838.181,158.18676190476202
840.631,170.56881904761914
843.079,154.46487619047628
845.525,117.16233809523814
847.97,114.90129523809532
850.412,106.15952380952386
852.854,103.12935238095245
855.293,109.146180952381
857.731,90.68820000000005
860.167,82.28133809523816
862.601,92.83254285714291
865.034,96.53438095238101
867.465,93.3890333333334
869.894,98.20829523809529
872.321,92.4706714285715
874.747,115.17838095238103
877.171,131.4769000000001
879.594,135.98759047619055
882.014,129.71291428571436
884.433,114.03640000000007
886.851,122.24591428571439
889.266,150.01079047619058
891.68,175.61945714285724
894.092,199.5504380952382
896.503,188.56839047619056
898.912,143.39035238095246
901.319,145.82818095238105
903.724,154.7419238095239
906.128,163.7531047619049
908.53,207.24510476190488
910.931,209.60161904761915
913.329,185.4922380952382
915.726,176.5862857142858
918.122,160.7910476190477
920.516,137.96628571428582
922.908,133.1145714285715
925.298,146.00071428571437
927.687,148.15120000000007
930.074,135.94931904761913
932.459,124.73092380952386
934.843,107.64130000000006
937.225,108.06412000000007
939.605,105.14501333333337
941.984,73.98167380952384
944.361,46.862176190476205
946.736,45.02713952380956
949.11,42.621720952381
951.482,56.64829190476192
953.853,59.6806885714286
956.222,36.53071904761907
958.589,39.96257142857149
960.954,87.16892380952387
963.318,113.39003809523815
965.68,108.86612380952387
968.041,104.36116190476193
970.4,70.3057904761905
972.757,49.46390000000004
975.113,57.36123333333336
977.467,42.47584285714286
979.819,26.380957142857156
982.17,17.07835714285715
984.519,6.903090476190496
986.866,23.047247619047653
989.212,46.75048571428575
991.556,74.39536190476196
993.899,87.41167142857148
996.24,100.65801904761909
998.579,108.32610952380959
1000.92,120.03605238095244
1003.25,95.59847857142863
1005.59,82.10977142857146
1007.92,51.04689761904765
1010.25,30.07752857142861
1012.58,47.20232619047624
1014.91,67.32672380952386
1017.24,87.45145238095245
1019.56,94.57692380952386
1021.88,101.89408571428577
1024.2,94.92707142857151
1026.52,116.96182857142867
1028.84,133.42737142857152
1031.16,137.84741904761913
1033.48,163.12690476190488
1035.79,169.88480952380962
1038.1,186.07352380952398
1040.41,235.59771428571443
1042.72,273.21914285714297
1045.03,246.36595238095256
1047.33,241.80004761904775
1049.64,204.0921904761906
1051.94,198.19423809523823
1054.24,220.15328571428583
1056.54,226.4450476190477
1058.84,196.06914285714294
1061.13,165.7392857142858
1063.43,147.02585714285723
1065.72,143.83266666666677
1068.01,171.825761904762
1070.3,177.57566666666676
1072.59,166.65304761904773
1074.87,164.00914285714293
1077.16,169.83333333333346
1079.44,175.12457142857158
1081.72,235.07242857142873
1084.0,290.62766666666687
1086.28,348.59904761904784
1088.56,432.0801904761908
1090.84,532.1655238095241
1093.11,598.1391428571432
1095.38,604.809285714286
1097.65,555.4126190476192
1099.92,460.3288095238097
1102.19,380.9847142857145
1104.46,332.6648095238097
1106.72,315.4150476190478
1108.98,324.23390476190497
1111.24,378.78652380952406
1113.5,432.11871428571453
1115.76,466.3241904761908
1118.02,479.11552380952406
1120.28,466.06290476190503
1122.53,466.40242857142886
1124.78,444.98966666666695
1127.03,410.0607619047621
1129.28,369.37585714285734
1131.53,315.7904285714287
1133.77,250.15976190476204
1136.02,201.24395238095246
1138.26,158.1844285714287
1140.5,160.598142857143
1142.74,194.3402380952382
1144.98,207.2660000000001
1147.22,229.94514285714303
1149.45,232.61409523809536
1151.69,223.9377142857144
1153.92,205.3425238095239
1156.15,177.49323809523818
1158.38,143.0544476190477
1160.61,127.3105095238096
1162.83,115.30710952380959
1165.06,89.61379047619052
1167.28,73.27620000000005
1169.5,70.24499047619052
1171.72,70.18483809523815
1173.94,72.14166666666671
1176.16,75.97076190476193
1178.37,47.003633333333354
1180.58,48.95280000000004
1182.8,41.38787619047621
1185.01,53.78330952380957
1187.22,60.518300000000025
1189.42,56.495885714285734
1191.63,33.71433809523812
1193.84,34.41009523809525
1196.04,29.962432380952414
1198.24,32.036472857142876
1200.44,39.72591714285717
1202.64,45.45785571428575
1204.84,51.65939333333338
1207.03,57.662515714285746
1209.23,54.037322857142875
1211.42,50.06832190476193
1213.61,43.42108380952383
1215.8,36.80885333333336
1217.99,54.37356380952384
1220.18,39.495386666666676
1222.36,25.17363142857146
1224.55,58.026740952381
1226.73,55.48292380952385
1228.91,62.8276190476191
1231.09,82.91786666666668
1233.27,68.70607142857148
1235.44,70.7162190476191
1237.62,67.23429523809526
1239.79,53.213176190476226
1241.96,48.46300952380956
1244.13,77.65100476190486
1246.3,123.34959523809533
1248.47,162.2741000000001
1250.64,166.18726666666677
1252.8,166.94761904761916
1254.96,166.93728571428585
1257.13,207.68147619047636
1259.29,265.801142857143
1261.44,285.0596666666668
1263.6,295.88704761904773
1265.76,281.85671428571436
1267.91,248.30380952380966
1270.06,211.70676190476203
1272.22,199.87733333333347
1274.37,170.00780952380964
1276.51,181.71928571428586
1278.66,200.4903809523811
1280.81,206.895142857143
1282.95,191.74561904761916
1285.09,198.80628571428582
1287.23,178.60309523809534
1289.37,163.5195238095239
1291.51,145.32023809523818
1293.65,144.674761904762
1295.78,129.77647619047627
1297.92,149.91380952380962
1300.05,146.51814285714295
1302.18,141.59195238095248
1304.31,156.61461904761916
1306.44,168.68419047619057
1308.57,171.9464761904763
1310.69,175.54700000000008
1312.82,188.29871428571442
1314.94,195.48980952380967
1317.06,218.83800000000014
1319.18,221.67909523809539
1321.3,247.63523809523826
1323.41,264.5664285714288
1325.53,320.1423809523812
1327.64,349.74695238095256
1329.75,391.81166666666695
1331.87,394.14861904761926
1333.98,390.0943809523812
1336.08,390.5087142857145
1338.19,376.1087142857144
1340.3,338.23038095238115
1342.4,295.3050000000001
1344.5,234.9067142857144
1346.6,189.9428571428573
1348.7,183.9872380952382
1350.8,165.4710000000001
1352.9,156.77738095238104
1354.99,139.0042857142858
1357.09,167.63004761904773
1359.18,173.89514285714296
1361.27,200.80157142857155
1363.36,211.92261904761915
1365.45,218.21280952380965
1367.54,209.15033333333346
1369.62,223.78433333333345
1371.7,208.64071428571444
1373.79,241.05447619047635
1375.87,267.8363333333335
1377.95,305.74971428571445
1380.03,305.7004285714287
1382.1,266.97542857142867
1384.18,235.71890476190487
1386.25,219.0270000000001
1388.33,194.75742857142868
1390.4,197.57771428571436
1392.47,179.05976190476198
1394.54,145.20414285714295
1396.6,150.0587333333334
1398.67,122.194880952381
1400.74,93.80311428571433
1402.8,79.26415714285719
1404.86,86.95884761904769
1406.92,96.41046190476196
1408.98,129.71334285714292
1411.04,122.05745238095243
1413.09,116.34658095238102
1415.15,120.67481428571438
1417.2,134.46979047619055
1419.25,149.68250000000012
1421.3,186.83495238095247
1423.35,189.83038095238106
1425.4,181.09590476190488
1427.45,186.77260000000007
1429.49,158.57287142857152
1431.54,127.68520952380962
1433.58,118.96468095238103
1435.62,94.26604761904768
1437.66,106.25401428571439
1439.7,132.16431428571434
1441.74,128.99449523809528
1443.77,109.93262380952386
1445.81,93.54776666666672
1447.84,77.21839523809531
1449.87,95.7510333333334
1451.9,118.14326190476197
1453.93,118.2019857142858
1455.96,117.06716190476197
1457.98,111.49834285714294
1460.01,128.44498095238106
1462.03,159.04689523809535
1464.05,208.30160952380967
1466.07,244.39671428571444
1468.09,277.1865714285716
1470.11,307.7162380952383
1472.13,343.2204761904764
1474.14,364.74447619047635
1476.16,341.7615714285716
1478.17,311.65019047619063
1480.18,269.21747619047636
1482.19,235.12704761904777
1484.2,201.66186666666675
1486.21,161.8672952380953
1488.21,120.0739714285715
1490.22,110.70835238095245
1492.22,106.91088095238102
1494.22,104.48851904761909
1496.22,83.62948095238097
1498.22,52.37940000000003
1500.22,41.8314285714286
1502.22,47.602676190476224
1504.21,32.16738095238097
1506.21,31.09524285714288
1508.2,21.28933333333335
1510.19,38.79571904761909
1512.18,45.85110476190479
1514.17,78.59687171428575
1516.16,67.22237004761907
1518.14,44.964583904761916
1520.13,25.727278047619073
1522.11,35.17612866666669
1524.09,49.357964333333385
1526.07,64.74804219047623
1528.05,83.0602466666667
1530.03,65.62711428571431
1532.01,57.06712857142861
1533.98,54.570266666666704
1535.96,59.517019047619065
1537.93,34.52610000000004
1539.9,62.406657142857185
1541.87,56.25369047619051
1543.84,62.638342857142916
1545.81,91.17946666666671
1547.78,94.54364285714291
1549.74,86.58810952380959
1551.7,107.69342380952388
1553.67,133.0026000000001
1555.63,148.84896666666674
1557.59,183.75594285714297
1559.55,184.8669714285715
1561.5,150.42028095238103
1563.46,136.65422857142866
1565.41,137.14033809523815
1567.37,131.640961904762
1569.32,127.77499047619055
1571.27,132.82891428571435
1573.22,125.46952857142864
1575.17,128.6020857142858
1577.11,127.94132857142866
1579.06,137.58287619047624
1581.0,136.4795238095239
1582.95,138.20323809523816
1584.89,162.5165238095239
1586.83,165.324761904762
1588.77,169.00933333333342
1590.7,167.57095238095246
1592.64,166.29585714285724
1594.58,156.70845238095242
1596.51,154.66659523809543
1598.44,168.8376190476196
