Raman Shift,Processed Intensity
331.095,6.91970476190482
333.909,-8.250278571428598
336.721,-26.43920000000004
339.531,-42.86290952380955
342.339,-57.90439523809526
345.145,-29.017428571428557
347.949,-11.582595238095248
350.751,-6.07426666666667
353.55,-3.6320909523809695
356.348,-17.679886190476203
359.144,-22.06858428571426
361.937,7.542829047619061
364.729,35.735153809523865
367.518,69.42386619047628
370.306,129.76392571428585
373.091,234.2450142857145
375.874,330.5964761904764
378.656,367.7398571428573
381.435,356.50284761904777
384.212,264.71420000000006
386.988,144.6803714285715
389.761,56.28057238095239
392.532,-5.128215714285704
395.301,-16.377802857142843
398.068,-9.108355714285707
400.833,8.993582857142867
403.596,1.7192557142857083
406.358,18.38503904761907
409.117,12.356252380952387
411.874,16.999628571428584
414.629,19.825980952380974
417.382,48.918886666666694
420.133,43.69646761904765
422.882,54.4352304761905
425.629,47.936560952381
428.374,77.05058285714296
431.117,142.91426761904773
433.858,217.0943961904763
436.597,241.0632476190477
439.334,231.10348571428582
442.069,178.02241428571435
444.802,147.9614476190477
447.533,158.87282380952394
450.262,165.61401904761917
452.989,184.32893809523824
455.714,226.73381904761916
458.438,211.49747619047628
461.159,196.43255238095244
463.878,160.54271428571434
466.595,105.59379047619053
469.31,76.44762857142865
472.024,87.77632380952387
474.735,120.53765714285724
477.444,138.59495238095246
480.152,104.19258571428576
482.857,106.9088476190477
485.561,112.60779523809533
488.262,125.01145714285727
490.962,167.98448095238103
493.659,167.0585190476191
496.355,118.95600000000006
499.048,99.82816190476196
501.74,89.63562857142864
504.43,98.10173333333343
507.118,124.90185714285725
509.804,169.6159666666668
512.488,190.87221904761918
515.17,206.86990476190488
517.85,220.76065714285724
520.528,203.55372857142865
523.204,161.11510476190486
525.878,135.3584047619048
528.551,95.7689190476191
531.221,72.78380000000004
533.89,74.93548571428576
536.556,55.75645238095241
539.221,59.77870000000004
541.883,57.725019047619085
544.544,72.55604761904767
547.203,75.47003333333339
549.86,109.28448095238102
552.515,97.29249523809528
555.168,93.50156190476196
557.819,92.63302380952389
560.469,113.0750476190477
563.116,131.26269047619058
565.761,171.5832857142858
568.405,158.4240000000001
571.047,146.69533333333342
573.687,173.40280952380965
576.324,187.50438095238104
578.96,199.81461904761917
581.594,200.81380952380957
584.227,185.74479047619056
586.857,146.80176666666677
589.485,153.55972380952392
592.112,162.26045238095247
594.737,149.47841904761913
597.359,136.35856666666675
599.98,130.76072380952388
602.599,84.73440476190481
605.216,90.90015238095245
607.831,99.6402714285715
610.445,127.66987619047629
613.056,118.65618095238098
615.666,108.12340952380956
618.274,70.78574761904767
620.88,74.1188476190477
623.484,96.1220142857144
626.086,172.9368190476192
628.686,196.8955142857144
631.284,236.47237142857156
633.881,246.42747619047634
636.476,253.13947619047633
639.068,224.3676190476192
641.659,233.91819047619063
644.249,219.31203809523822
646.836,187.78356190476202
649.421,159.94839047619055
652.005,123.70736190476194
654.587,73.15128095238103
657.166,64.89475238095241
659.745,49.314180952380966
662.321,23.357066666666686
664.895,17.542304761904777
667.468,15.293239047619062
670.038,18.03317952380953
672.607,11.851911428571437
675.174,20.553472857142886
677.739,32.8464685714286
680.303,46.58237000000004
682.864,58.70779619047623
685.424,76.88360666666671
687.982,69.81826142857145
690.538,55.315441904761904
693.092,19.083609999999986
695.645,-8.406848571428572
698.195,-4.780729047619017
700.744,17.71815904761907
703.291,39.60799523809527
705.836,49.12134761904763
708.38,38.87180238095239
710.921,11.901561904761913
713.461,25.06244904761907
715.999,9.34922761904763
718.535,32.04251952380957
721.069,50.518191428571456
723.602,67.39033142857146
726.133,69.13029428571433
728.662,66.9713680952381
731.189,35.05171428571432
733.714,58.84319285714291
736.238,67.81726190476195
738.759,72.16003095238099
741.279,95.81961428571432
743.798,85.88705238095243
746.314,71.64401904761911
748.829,84.22959523809529
751.342,91.78257619047623
753.853,76.63264761904767
756.362,95.8237476190477
758.869,112.16196190476197
761.375,89.12023333333336
763.879,62.83815714285719
766.381,73.21749047619053
768.882,68.01712857142864
771.38,102.5197857142858
773.877,113.62773333333337
776.372,95.00519523809528
778.866,67.840280952381
781.357,63.6547047619048
783.847,58.77957142857148
786.335,79.35575238095244
788.821,83.2864333333334
791.306,119.95069047619056
793.789,119.77570476190482
796.27,123.61711428571436
798.749,124.09289047619056
801.227,128.29717142857154
803.702,149.84815714285725
806.176,186.88751428571442
808.649,200.2244761904763
811.119,205.14409523809536
813.588,219.40785714285727
816.055,229.30119047619064
818.521,223.77609523809537
820.984,220.11842857142872
823.446,212.3284285714287
825.906,200.4538571428573
828.365,187.7808095238096
830.821,170.2148095238096
833.276,141.3750476190477
835.729,127.50080952380961
838.181,129.92604761904772
840.631,153.36620000000008
843.079,148.2035047619048
845.525,117.24887142857148
847.97,103.9794571428572
850.412,92.87311904761913
852.854,109.7411238095239
855.293,130.49007142857147
857.731,101.7408761904762
860.167,71.73359047619051
862.601,47.565490476190504
865.034,55.381933333333414
867.465,86.23292380952387
869.894,105.0731952380953
872.321,90.57211428571435
874.747,104.2561571428572
877.171,93.79484285714291
879.594,123.61965238095247
882.014,121.44781428571434
884.433,138.99688571428584
886.851,161.8889380952382
889.266,179.27021904761915
891.68,196.810442857143
894.092,215.79860952380963
896.503,185.19080952380963
898.912,177.89542857142868
901.319,178.43957142857153
903.724,170.3984761904763
906.128,179.2040476190477
908.53,211.43147619047633
910.931,240.56047619047632
913.329,224.64233333333345
915.726,224.49023809523823
918.122,198.25100000000012
920.516,158.73772380952389
922.908,134.24008095238102
925.298,126.2852571428572
927.687,101.59125238095247
930.074,131.63820952380962
932.459,144.57270000000005
934.843,146.15991428571436
937.225,131.16557619047623
939.605,104.59305714285719
941.984,83.82680952380957
944.361,82.53722857142863
946.736,91.01358095238102
949.11,104.40173333333338
951.482,97.56224285714289
953.853,93.68884761904768
956.222,90.07035714285719
958.589,85.09080952380958
960.954,82.22959523809527
963.318,73.63226190476195
965.68,60.11119523809529
968.041,69.09775238095244
970.4,90.73734380952385
972.757,85.88960809523813
975.113,72.41409523809527
977.467,45.551128095238106
979.819,23.39806952380954
982.17,13.004559523809538
984.519,6.5153276190476195
986.866,5.455882857142879
989.212,21.01832476190478
991.556,26.537446666666703
993.899,69.25246857142864
996.24,118.02205428571436
998.579,112.466080952381
1000.92,116.29977619047622
1003.25,97.90487619047622
1005.59,71.18682380952387
1007.92,70.05077142857147
1010.25,64.06888095238098
1012.58,51.24138095238099
1014.91,71.23506190476198
1017.24,87.90714285714293
1019.56,106.59082857142863
1021.88,114.95292380952387
1024.2,100.65969047619053
1026.52,102.4254095238096
1028.84,116.20166190476199
1031.16,138.79746666666676
1033.48,186.8313285714287
1035.79,232.01687619047632
1038.1,253.0200952380954
1040.41,255.98304761904777
1042.72,260.80938095238116
1045.03,246.11704761904775
1047.33,234.85719047619062
1049.64,230.12385714285728
1051.94,202.72561904761915
1054.24,186.28014285714298
1056.54,203.16685714285725
1058.84,189.67019047619058
1061.13,174.35961904761916
1063.43,190.4242380952382
1065.72,170.2910000000001
1068.01,169.62485714285728
1070.3,173.99566666666678
1072.59,162.73504761904775
1074.87,162.46000000000015
1077.16,184.31133333333344
1079.44,198.85876190476205
1081.72,233.00471428571444
1084.0,272.89028571428594
1086.28,325.3230476190479
1088.56,414.5867619047622
1090.84,537.2979047619051
1093.11,632.5500000000003
1095.38,660.4358095238099
1097.65,614.4769523809526
1099.92,523.8620952380954
1102.19,440.77919047619076
1104.46,400.93990476190504
1106.72,376.2473333333336
1108.98,377.8420952380955
1111.24,408.19776190476216
1113.5,458.3124761904765
1115.76,496.7075238095241
1118.02,538.5707142857146
1120.28,547.4240952380956
1122.53,531.8369047619051
1124.78,502.7586666666669
1127.03,443.5210952380954
1129.28,371.07414285714304
1131.53,339.60585714285736
1133.77,306.20957142857156
1136.02,270.1688571428573
1138.26,249.33833333333345
1140.5,220.3350952380954
1142.74,218.8710952380954
1144.98,239.65904761904778
1147.22,254.07780952380966
1149.45,273.0776666666668
1151.69,257.5612857142859
1153.92,229.76457142857154
1156.15,193.35223809523822
1158.38,164.1800476190477
1160.61,128.198580952381
1162.83,108.6918190476191
1165.06,82.89627619047624
1167.28,83.19094761904768
1169.5,76.05047142857147
1171.72,84.56865238095241
1173.94,93.22008095238101
1176.16,87.95593809523815
1178.37,84.67980476190482
1180.58,93.00936190476195
1182.8,82.94345714285718
1185.01,74.95715238095242
1187.22,54.85880952380954
1189.42,45.933376190476224
1191.63,38.03710000000003
1193.84,42.216871428571466
1196.04,62.138614285714326
1198.24,64.37324285714288
1200.44,73.11059523809531
1202.64,86.35037142857149
1204.84,104.85434857142863
1207.03,89.81260057142859
1209.23,71.74876200000001
1211.42,22.377133523809533
1213.61,12.221405619047635
1215.8,7.80572590476195
1217.99,60.17811342857149
1220.18,91.43395200000006
1222.36,102.8594666666667
1224.55,70.02663333333334
1226.73,39.41230952380954
1228.91,18.064900000000033
1231.09,42.032900000000055
1233.27,54.74585714285718
1235.44,84.34780952380957
1237.62,79.1732047619048
1239.79,85.79500000000006
1241.96,91.92866190476198
1244.13,110.09947619047625
1246.3,117.49986190476199
1248.47,146.79802857142866
1250.64,140.80538095238106
1252.8,175.47633333333346
1254.96,194.0509047619049
1257.13,218.24538095238108
1259.29,244.58595238095253
1261.44,244.9791904761906
1263.6,227.2846666666668
1265.76,238.98080952380965
1267.91,233.21319047619062
1270.06,220.50800000000012
1272.22,205.58204761904773
1274.37,183.91404761904772
1276.51,185.60223809523822
1278.66,192.88709523809536
1280.81,214.9620000000001
1282.95,208.87733333333344
1285.09,182.540761904762
1287.23,148.33595238095245
1289.37,120.36119047619054
1291.51,105.61909523809534
1293.65,117.96995238095248
1295.78,145.75033333333343
1297.92,163.2489714285715
1300.05,140.32568571428578
1302.18,130.17399047619057
1304.31,125.51131428571436
1306.44,133.8642761904763
1308.57,164.23620952380963
1310.69,197.77297142857154
1312.82,187.66804761904774
1314.94,183.68652380952392
1317.06,172.1648095238096
1319.18,187.81985714285727
1321.3,216.65476190476207
1323.41,237.05347619047632
1325.53,257.68576190476205
1327.64,288.98295238095255
1329.75,308.8527619047621
1331.87,337.05980952380975
1333.98,363.6071904761906
1336.08,359.8785714285716
1338.19,342.3530952380954
1340.3,308.6524285714287
1342.4,270.1124761904763
1344.5,221.54504761904778
1346.6,207.38152380952394
1348.7,192.43385714285725
1350.8,162.75228571428582
1352.9,135.2915238095239
1354.99,145.14909523809536
1357.09,158.46980952380966
1359.18,202.1130000000001
1361.27,198.65242857142866
1363.36,178.7091904761906
1365.45,186.38038095238107
1367.54,204.95338095238108
1369.62,216.95357142857156
1371.7,239.95423809523822
1373.79,233.1474285714287
1375.87,240.77247619047637
1377.95,276.9260952380954
1380.03,293.2282380952383
1382.1,284.9185238095239
1384.18,236.47423809523818
1386.25,184.94376190476197
1388.33,152.37531428571438
1390.4,123.00764761904769
1392.47,117.0791333333334
1394.54,99.16197142857145
1396.6,72.78002857142863
1398.67,56.552557142857175
1400.74,54.5748047619048
1402.8,51.465580952381
1404.86,59.55777142857146
1406.92,76.89870476190484
1408.98,103.05921904761911
1411.04,114.89566190476198
1413.09,107.216780952381
1415.15,90.87860000000005
1417.2,85.54672857142866
1419.25,124.02968571428582
1421.3,156.04058571428578
1423.35,176.00636190476195
1425.4,165.59216190476198
1427.45,125.08180952380957
1429.49,83.33070952380957
1431.54,63.90880000000005
1433.58,64.38531904761912
1435.62,99.18693333333344
1437.66,136.78782380952387
1439.7,139.70944761904767
1441.74,117.52088571428577
1443.77,111.22015238095246
1445.81,101.70901428571435
1447.84,107.03286666666673
1449.87,103.57009047619052
1451.9,104.31804761904768
1453.93,86.89297619047626
1455.96,119.33981904761913
1457.98,145.46531428571438
1460.01,169.93322857142869
1462.03,197.26451428571443
1464.05,241.88465714285732
1466.07,245.07614285714303
1468.09,280.12171428571446
1470.11,305.3519047619049
1472.13,322.1920476190478
1474.14,339.4485714285716
1476.16,339.6896190476192
1478.17,335.95952380952406
1480.18,290.3502380952382
1482.19,247.23971428571443
1484.2,200.1484761904763
1486.21,132.83504761904769
1488.21,104.20086666666677
1490.22,123.05220000000006
1492.22,89.62370476190483
1494.22,90.05523809523814
1496.22,82.24828571428573
1498.22,43.008980952380995
1500.22,46.000604761904796
1502.22,54.220033333333355
1504.21,51.28307619047624
1506.21,52.94851904761907
1508.2,68.30827619047624
1510.19,67.88324285714289
1512.18,74.7656190476191
1514.17,82.85717523809527
1516.16,69.10739190476193
1518.14,48.41823142857146
1520.13,49.02484619047622
1522.11,51.54384571428576
1524.09,71.87742047619051
1526.07,62.0231323809524
1528.05,46.788209523809556
1530.03,35.36091428571431
1532.01,41.59645238095244
1533.98,81.63574761904769
1535.96,102.66731904761909
1537.93,91.40377619047624
1539.9,96.46280952380957
1541.87,87.12858095238101
1543.84,86.11412380952389
1545.81,110.08531428571436
1547.78,122.4694952380953
1549.74,111.2180428571429
1551.7,119.13999047619055
1553.67,138.94843333333344
1555.63,159.07137142857152
1557.59,188.84223333333347
1559.55,200.4509238095239
1561.5,185.04010476190484
1563.46,154.99055714285723
1565.41,144.73049523809536
1567.37,132.59334761904768
1569.32,142.4844000000001
1571.27,160.68946190476203
1573.22,188.73258095238106
1575.17,181.4714761904763
1577.11,197.95400000000012
1579.06,188.60928571428582
1581.0,189.9144285714287
1582.95,182.2034285714287
1584.89,182.00090476190485
1586.83,167.49828571428583
1588.77,174.41061904761915
1590.7,192.02490476190488
1592.64,191.81800000000013
1594.58,181.5294523809526
1596.51,176.9460952380956
1598.44,188.73576190476246
