Raman Shift,Processed Intensity
331.095,113.81587009523767
333.909,-20.56591135714322
336.721,-65.90825342857164
339.531,-54.09887461904761
342.339,-13.16883971428572
345.145,-8.719972523809538
347.949,-12.32846161904763
350.751,-11.330896523809539
353.55,-12.871902000000006
356.348,-28.475497142857158
359.144,-32.664067619047636
361.937,-3.0537933333332994
364.729,18.693330476190518
367.518,61.01226190476199
370.306,131.29159047619058
373.091,218.5886476190478
375.874,287.4858857142859
378.656,353.757742857143
381.435,317.7995714285716
384.212,230.81777142857152
386.988,125.40110476190482
389.761,88.28294095238101
392.532,52.91254095238099
395.301,44.78822000000003
398.068,35.45757333333334
400.833,30.04108428571429
403.596,-6.0533971428571425
406.358,-2.7024090476190525
409.117,0.17182380952381004
411.874,-10.256326190476194
414.629,-18.287109523809534
417.382,-11.838295238095245
420.133,-7.349942857142828
422.882,10.215476190476245
425.629,97.2780000000001
428.374,162.40169523809536
431.117,205.81910000000016
433.858,264.62049523809543
436.597,269.32623809523824
439.334,250.8862857142859
442.069,256.39466666666675
444.802,225.1370000000001
447.533,208.2094285714287
450.262,220.85138095238105
452.989,220.68466666666683
455.714,248.23628571428583
458.438,243.84404761904773
461.159,211.84609523809533
463.878,187.62871428571438
466.595,150.00785714285726
469.31,153.08566666666678
472.024,169.15519047619057
474.735,173.31957142857152
477.444,164.15847619047628
480.152,142.7283333333334
482.857,127.80061904761916
485.561,142.6704285714287
488.262,170.4431904761906
490.962,181.60490476190486
493.659,200.73761904761918
496.355,192.89957142857153
499.048,177.3400476190477
501.74,147.78390476190486
504.43,149.00438095238104
507.118,184.48890476190493
509.804,231.2010000000002
512.488,278.2470952380954
515.17,298.6387619047621
517.85,242.48223809523822
520.528,208.93147619047633
523.204,181.09323809523818
525.878,163.74000000000015
528.551,193.26384761904774
531.221,201.5326095238096
533.89,165.69981904761914
536.556,137.2993952380953
539.221,97.34151428571437
541.883,99.26452857142866
544.544,90.45940000000004
547.203,87.55451904761912
549.86,127.94000952380962
552.515,135.0530857142858
555.168,156.94997142857153
557.819,158.68635238095243
560.469,119.22247619047626
563.116,107.3280000000001
565.761,157.15276190476203
568.405,186.22723809523822
571.047,218.3674761904763
573.687,238.0553333333335
576.324,231.63000000000014
578.96,210.57261904761918
581.594,216.7453333333335
584.227,198.9140000000001
586.857,199.22547619047631
589.485,213.921142857143
592.112,227.76614285714297
594.737,230.57180952380966
597.359,213.19795238095247
599.98,198.4076666666668
602.599,211.44052380952394
605.216,195.15438095238108
607.831,194.31138095238106
610.445,177.57766666666677
613.056,138.09595238095247
615.666,122.86461904761912
618.274,115.59676190476198
620.88,121.48109523809535
623.484,157.4199523809525
626.086,222.4108571428573
628.686,299.3557619047621
631.284,321.34600000000023
633.881,343.4253333333336
636.476,353.11338095238114
639.068,331.9297142857145
641.659,312.15528571428587
644.249,298.92780952380963
646.836,228.1942380952382
649.421,168.90110476190483
652.005,113.85204666666672
654.587,59.27933714285717
657.166,21.652788571428612
659.745,50.77524666666672
662.321,56.64028809523813
664.895,42.95545857142859
667.468,37.33299666666667
670.038,22.24220904761907
672.607,37.152584285714354
675.174,69.86655666666671
677.739,93.09147047619052
680.303,104.43969523809528
682.864,78.09499523809527
685.424,54.00310000000003
687.982,63.01481428571431
690.538,26.59981904761907
693.092,27.847033333333364
695.645,37.655385714285714
698.195,20.7333304761905
700.744,19.646740000000012
703.291,20.62837047619047
705.836,-5.136397142857139
708.38,-6.366724761904756
710.921,6.361335238095265
713.461,21.948111428571462
715.999,59.96070952380957
718.535,75.87150000000005
721.069,91.72420476190482
723.602,96.13444285714291
726.133,98.76547142857147
728.662,92.09039047619055
731.189,97.4391571428572
733.714,99.14253333333339
736.238,89.48323333333337
738.759,100.74458476190483
741.279,91.40033714285718
743.798,66.97218380952383
746.314,40.17212476190478
748.829,33.14122666666669
751.342,23.44894666666672
753.853,73.42696476190481
756.362,75.54984428571431
758.869,81.48289333333338
761.375,61.31993190476193
763.879,67.86911714285719
766.381,74.32001571428577
768.882,91.24304666666671
771.38,72.73259047619051
773.877,69.31179523809526
776.372,49.551371428571485
778.866,69.87913809523815
781.357,86.58062380952386
783.847,81.3697428571429
786.335,98.53202380952388
788.821,84.40061428571433
791.306,80.83276190476197
793.789,96.06652857142865
796.27,93.95900000000006
798.749,111.93906666666678
801.227,169.48359047619059
803.702,210.926142857143
806.176,235.410142857143
808.649,250.12661904761916
811.119,228.74295238095252
813.588,211.06928571428583
816.055,203.39238095238107
818.521,216.66561904761917
820.984,205.50857142857154
823.446,194.49400000000009
825.906,185.62309523809535
828.365,163.70633333333342
830.821,164.65004761904774
833.276,173.55085714285727
835.729,171.0764380952382
838.181,149.27598571428578
840.631,131.10325714285722
843.079,117.65510952380961
845.525,126.50482857142865
847.97,140.79639523809533
850.412,122.7698428571429
852.854,88.56970952380958
855.293,68.86461904761909
857.731,45.513528571428616
860.167,47.661176190476226
862.601,50.21392857142859
865.034,38.79299523809527
867.465,49.40027142857147
869.894,74.75202857142861
872.321,63.27889523809527
874.747,66.98290476190479
877.171,34.008990476190505
879.594,58.835347619047695
882.014,92.6071095238096
884.433,136.0405857142858
886.851,157.37591428571437
889.266,163.37745714285722
891.68,131.99942857142867
894.092,142.7205238095239
896.503,155.8284761904763
898.912,192.6111523809525
901.319,183.3087952380953
903.724,157.4952571428572
906.128,145.12496666666675
908.53,143.72420952380963
910.931,158.24712857142868
913.329,194.83891428571437
915.726,189.5492380952382
918.122,175.33283809523817
920.516,144.43005238095245
922.908,129.55715238095246
925.298,111.95432857142866
927.687,135.81429523809535
930.074,168.47229047619055
932.459,157.16852857142862
934.843,139.9525914285715
937.225,109.63593666666671
939.605,71.60150666666671
941.984,44.89903476190479
944.361,42.72085428571432
946.736,37.02112238095243
949.11,44.56361523809526
951.482,57.01679047619052
953.853,57.23952380952384
956.222,61.185680952381006
958.589,70.5714047619048
960.954,79.58879047619052
963.318,76.14408571428578
965.68,108.52447619047625
968.041,99.68390000000007
970.4,108.81400476190481
972.757,76.3448523809524
975.113,54.658566666666715
977.467,58.70860952380957
979.819,90.30554761904767
982.17,72.40291904761908
984.519,73.33496666666669
986.866,31.95968095238097
989.212,29.75418571428577
991.556,57.57637142857149
993.899,105.18860476190483
996.24,109.25828095238101
998.579,124.92883809523815
1000.92,107.48653809523817
1003.25,126.50335238095246
1005.59,141.40836666666672
1007.92,147.1063714285715
1010.25,118.0261952380953
1012.58,126.21586666666676
1014.91,123.246661904762
1017.24,129.5950095238096
1019.56,134.1656714285715
1021.88,138.2446476190477
1024.2,137.87914285714297
1026.52,180.73595238095248
1028.84,202.38600000000014
1031.16,212.0198571428573
1033.48,211.82747619047632
1035.79,229.23742857142872
1038.1,243.34447619047634
1040.41,272.14804761904776
1042.72,293.0763333333335
1045.03,294.0810476190478
1047.33,266.54266666666683
1049.64,252.65109523809537
1051.94,225.40561904761915
1054.24,208.9960952380954
1056.54,223.13600000000014
1058.84,204.6340000000001
1061.13,204.77523809523822
1063.43,203.74919047619056
1065.72,194.50714285714298
1068.01,175.33447619047632
1070.3,179.22971428571438
1072.59,167.47766666666678
1074.87,193.83947619047632
1077.16,200.4090000000001
1079.44,224.66128571428587
1081.72,247.92876190476204
1084.0,282.73400000000026
1086.28,339.3612380952384
1088.56,441.85733333333366
1090.84,557.6969047619051
1093.11,656.4977619047622
1095.38,666.2111428571432
1097.65,611.3120476190479
1099.92,495.3224761904765
1102.19,394.1935238095241
1104.46,363.0667142857145
1106.72,365.98833333333357
1108.98,379.7188095238098
1111.24,418.73266666666694
1113.5,459.36185714285745
1115.76,504.27138095238126
1118.02,569.8411428571432
1120.28,574.6885238095241
1122.53,554.2402857142861
1124.78,493.25685714285737
1127.03,426.498523809524
1129.28,392.1542380952383
1131.53,354.50790476190497
1133.77,301.7007619047621
1136.02,268.49300000000017
1138.26,243.93100000000015
1140.5,220.7746666666668
1142.74,241.30847619047637
1144.98,223.24457142857156
1147.22,257.6290476190478
1149.45,265.2696190476192
1151.69,277.641142857143
1153.92,257.7892380952382
1156.15,235.80747619047628
1158.38,177.12280952380962
1160.61,169.59066666666675
1162.83,138.0186333333334
1165.06,109.2623714285715
1167.28,104.12951904761911
1169.5,106.76126666666673
1171.72,93.53714761904769
1173.94,89.21731904761909
1176.16,82.99046190476194
1178.37,63.37873333333338
1180.58,72.28511428571433
1182.8,68.8984904761905
1185.01,47.360047619047634
1187.22,32.7633666666667
1189.42,44.0592047619048
1191.63,47.150700000000036
1193.84,67.22673047619051
1196.04,53.47617095238097
1198.24,46.80226095238098
1200.44,42.96541952380955
1202.64,37.059518095238104
1204.84,17.511866190476194
1207.03,5.74988476190475
1209.23,-19.22747666666666
1211.42,-11.325815238095227
1213.61,18.073171904761928
1215.8,25.016622857142867
1217.99,26.12323285714287
1220.18,23.773768571428583
1222.36,20.873023809523836
1224.55,31.564071428571467
1226.73,61.37116190476195
1228.91,68.3901047619048
1231.09,54.240714285714304
1233.27,47.495342857142894
1235.44,60.297933333333376
1237.62,66.98313809523815
1239.79,76.12376666666671
1241.96,89.91202857142862
1244.13,96.68272857142864
1246.3,111.05703333333344
1248.47,153.79859523809534
1250.64,191.4809142857144
1252.8,216.29695238095252
1254.96,243.2969047619049
1257.13,260.6257142857144
1259.29,268.09590476190493
1261.44,280.5194761904764
1263.6,288.8038571428573
1265.76,258.38100000000014
1267.91,262.2539047619049
1270.06,231.2823333333334
1272.22,209.70771428571442
1274.37,173.48595238095248
1276.51,159.28681904761913
1278.66,111.1139380952382
1280.81,126.16125714285724
1282.95,119.57496666666677
1285.09,157.50154285714297
1287.23,179.89709047619058
1289.37,189.33660952380956
1291.51,144.1571571428572
1293.65,122.8388571428572
1295.78,92.81401904761913
1297.92,101.61013333333341
1300.05,122.32629523809531
1302.18,121.25196190476197
1304.31,118.39090000000009
1306.44,130.93773333333343
1308.57,145.89619047619058
1310.69,158.3177142857144
1312.82,189.3014761904763
1314.94,206.42261904761918
1317.06,214.35152380952394
1319.18,222.1396190476192
1321.3,239.1716190476192
1323.41,251.68919047619067
1325.53,292.7911428571431
1327.64,324.52895238095255
1329.75,357.38247619047644
1331.87,380.83142857142883
1333.98,407.5458095238098
1336.08,421.29061904761926
1338.19,384.926523809524
1340.3,299.02819047619056
1342.4,235.45585714285724
1344.5,171.07014285714294
1346.6,161.0639047619049
1348.7,172.91642857142864
1350.8,156.7735238095239
1352.9,137.30452380952391
1354.99,141.51176190476198
1357.09,135.96938095238104
1359.18,152.58390476190488
1361.27,165.78676190476202
1363.36,176.57990476190486
1365.45,165.53676190476202
1367.54,179.4683809523811
1369.62,187.0908095238096
1371.7,215.16728571428584
1373.79,237.4139047619049
1375.87,254.97466666666682
1377.95,237.3266666666668
1380.03,245.66088571428585
1382.1,204.12114761904775
1384.18,193.8030380952382
1386.25,150.3738095238096
1388.33,137.21460000000008
1390.4,102.420580952381
1392.47,96.13414761904765
1394.54,55.49783809523812
1396.6,54.36797619047621
1398.67,36.93425714285717
1400.74,48.338428571428594
1402.8,34.76966190476193
1404.86,42.988339047619064
1406.92,26.135615238095255
1408.98,20.590525714285736
1411.04,24.636675238095265
1413.09,41.12897333333338
1415.15,63.25535809523815
1417.2,93.77520095238101
1419.25,106.6858952380953
1421.3,113.55567142857151
1423.35,133.0484476190477
1425.4,137.30380476190481
1427.45,111.27072380952384
1429.49,93.66004285714291
1431.54,104.84950476190483
1433.58,94.35889523809531
1435.62,103.23248571428577
1437.66,103.60916666666671
1439.7,72.29459523809528
1441.74,71.52292857142864
1443.77,104.48069047619053
1445.81,97.73526666666672
1447.84,110.8538333333334
1449.87,116.02296666666672
1451.9,110.71450476190483
1453.93,119.54380476190482
1455.96,116.83942857142863
1457.98,113.97860476190485
1460.01,141.3376285714287
1462.03,165.38880952380967
1464.05,192.17547619047633
1466.07,234.50338095238112
1468.09,284.606142857143
1470.11,344.67042857142883
1472.13,382.07309523809545
1474.14,396.9532380952383
1476.16,365.1638571428573
1478.17,338.7011904761907
1480.18,312.752142857143
1482.19,277.1225714285716
1484.2,216.33309523809535
1486.21,179.52290476190484
1488.21,134.25988095238102
1490.22,120.25533333333343
1492.22,119.64905238095245
1494.22,120.39067619047624
1496.22,99.09656666666672
1498.22,92.19249523809529
1500.22,76.72373809523813
1502.22,77.64050000000005
1504.21,43.273838095238105
1506.21,43.95540571428574
1508.2,25.540508095238106
1510.19,18.408625714285755
1512.18,39.129910952380996
1514.17,71.4651685714286
1516.16,56.84206523809528
1518.14,81.97422476190481
1520.13,61.051452380952405
1522.11,54.40660000000004
1524.09,61.75361904761908
1526.07,69.04464285714289
1528.05,59.08902380952384
1530.03,57.22004285714288
1532.01,37.247214285714314
1533.98,30.83725238095241
1535.96,44.799657142857185
1537.93,62.56329047619052
1539.9,76.60467619047625
1541.87,90.06677619047625
1543.84,99.66422857142862
1545.81,101.06410000000007
1547.78,117.5997714285715
1549.74,119.70060476190484
1551.7,140.31953333333342
1553.67,153.79014285714294
1555.63,158.92257142857153
1557.59,161.33661904761914
1559.55,164.17561904761916
1561.5,158.29761904761915
1563.46,161.84623809523822
1565.41,151.63147619047626
1567.37,157.13031428571438
1569.32,143.1531714285715
1571.27,140.6057238095239
1573.22,132.7747333333334
1575.17,124.13705714285723
1577.11,108.36007619047629
1579.06,138.58802857142865
1581.0,135.10738095238105
1582.95,148.01461904761914
1584.89,154.5490000000001
1586.83,166.90152380952392
1588.77,154.16852380952392
1590.7,183.06585714285723
1592.64,176.78476190476198
1594.58,178.18369047619055
1596.51,173.97783333333348
1598.44,160.83485714285732
