Raman Shift,Processed Intensity
331.095,88.20810911634635
333.909,33.17071273234251
336.721,42.046731591575735
339.531,84.16950784766777
342.339,107.61049653289683
345.145,135.20308390231003
347.949,131.94735815875265
350.751,138.31964208267982
353.55,158.03440661433797
356.348,173.5204701502471
359.144,174.8257692682473
361.937,170.90308183350226
364.729,169.46717867592906
367.518,175.70911812478062
370.306,218.86768340037452
373.091,275.0865342915322
375.874,325.9856445473124
378.656,330.8041678401769
381.435,293.20997039582744
384.212,229.77583028970275
386.988,167.2175415053789
389.761,113.72725608820019
392.532,58.973492965587866
395.301,48.529718195919486
398.068,29.350544265023473
400.833,53.343167477922634
403.596,37.986424398198324
406.358,21.5688988486977
409.117,-35.0967806115591
411.874,-78.76916701998744
414.629,-68.25417153552962
417.382,-2.452672335029092
420.133,49.591867523221936
422.882,141.55053645540465
425.629,230.42801521336423
428.374,343.41971298390627
431.117,537.4831892023681
433.858,705.0048134614271
436.597,811.0378539913349
439.334,880.8262804258675
442.069,891.2809475206536
444.802,889.265302681039
447.533,900.1191887280288
450.262,892.8969323785295
452.989,876.5101946303425
455.714,926.2993925757319
458.438,903.2241688340355
461.159,858.3871943176091
463.878,819.7960662358832
466.595,786.2680632422589
469.31,734.6682339143522
472.024,747.5760566627978
474.735,732.5235282114918
477.444,726.0903949349604
480.152,746.237479433847
482.857,742.8781023484762
485.561,734.1161708390996
488.262,744.1509337328048
490.962,768.8007842894776
493.659,842.6461105868093
496.355,899.2197649529121
499.048,922.1975333989508
501.74,997.636224099379
504.43,1034.3069939674192
507.118,1112.7905799924492
509.804,1234.6201496250137
512.488,1336.8051035427939
515.17,1463.8310688927609
517.85,1625.2789401523814
520.528,1718.1582057050991
523.204,1829.6212267967712
525.878,1892.6775164921041
528.551,1934.765161488227
531.221,1925.417482023512
533.89,1920.1201679768624
536.556,1904.4541292527156
539.221,1915.1907271184386
541.883,1924.434624589318
544.544,1929.86187490881
547.203,1920.8627719335432
549.86,1925.7323195659383
552.515,1947.241653567789
555.168,1964.4951776595544
557.819,2037.549604381552
560.469,2151.175853098028
563.116,2328.6685670488177
565.761,2518.7508684962754
568.405,2705.621971015041
571.047,2863.052410829432
573.687,3028.5745162460594
576.324,3177.9585913721385
578.96,3273.9271950719112
581.594,3372.7741818278178
584.227,3379.4599330778497
586.857,3310.0399218862476
589.485,3208.9028014237133
592.112,3011.627541066677
594.737,2752.411991067981
597.359,2509.9300186561436
599.98,2264.379120325084
602.599,2061.2423198381416
605.216,1920.4786376606648
607.831,1806.09451277356
610.445,1730.0485578201656
613.056,1740.5372666340809
615.666,1884.709293195554
618.274,2112.855921064068
620.88,2403.792009001384
623.484,2740.57026992793
626.086,3077.671740355373
628.686,3384.481964104921
631.284,3579.4814617398906
633.881,3594.674295236377
636.476,3486.4928231301233
639.068,3215.559598520526
641.659,2876.401648027026
644.249,2479.450465031213
646.836,2051.4705743474997
649.421,1657.1309540366506
652.005,1316.147885790741
654.587,982.76113865145
657.166,722.305390823587
659.745,527.1626038695781
662.321,397.0001111896627
664.895,336.19918269257005
667.468,280.3788275614288
670.038,245.77673987682238
672.607,210.72548233507086
675.174,167.0810509189041
677.739,132.31810623478896
680.303,136.05377627882353
682.864,111.61907825024946
685.424,104.24938798402081
687.982,67.32252843097922
690.538,55.59685813803526
693.092,46.639835918837434
695.645,71.97087802840633
698.195,49.20422103353121
700.744,31.42988475988568
703.291,25.64226156123732
705.836,46.54966308512576
708.38,42.66958466644428
710.921,78.18587723447354
713.461,112.66306696797346
715.999,167.52258422638442
718.535,256.9475718762719
721.069,290.21626504633286
723.602,256.1782280252678
726.133,216.63535306441236
728.662,179.9609544184591
731.189,115.24267190999672
733.714,78.94918401784344
736.238,12.596920965392655
738.759,-27.964174571996864
741.279,-43.883926175832585
743.798,-50.0261533610842
746.314,-62.063856923633466
748.829,-41.4315524099884
751.342,-51.08713344973148
753.853,-30.654695092236125
756.362,-24.710219264695752
758.869,-53.40059977661167
761.375,-66.82457573313195
763.879,-43.842239299618996
766.381,-63.217883328083644
768.882,-67.62000013982652
771.38,-51.76414275865045
773.877,-30.98436539717386
776.372,-15.66181521212502
778.866,12.44190771074227
781.357,18.137100960132102
783.847,27.615451423647755
786.335,64.59286165796311
788.821,128.26180211280735
791.306,207.4341426222827
793.789,356.49351460154867
796.27,528.7762446720826
798.749,704.5237168583685
801.227,858.2156871655325
803.702,954.2845505379378
806.176,1009.8772268654029
808.649,1011.2837136560797
811.119,1008.4608768045714
813.588,959.2705270743377
816.055,873.3365441991432
818.521,756.9496200321355
820.984,637.9720016949113
823.446,498.45652044087274
825.906,409.8846681376358
828.365,317.0713404161015
830.821,257.8314845814393
833.276,231.55150942882847
835.729,220.9987902972921
838.181,197.36926936163718
840.631,157.8112464005785
843.079,107.23488385057863
845.525,94.3598070977855
847.97,86.14365715091753
850.412,85.68683379034019
852.854,77.42295300286469
855.293,46.309304416543
857.731,15.25540397355826
860.167,-4.3055962540261135
862.601,-10.274064978335446
865.034,10.449429178641822
867.465,28.487914290282788
869.894,29.702286820430345
872.321,38.619870122890916
874.747,36.720118701104184
877.171,13.291754052676879
879.594,22.71847580977692
882.014,23.81229560119391
884.433,27.48020560929035
886.851,59.96227799442022
889.266,77.92690957341165
891.68,49.32797125996058
894.092,74.30957655262955
896.503,88.77751668952806
898.912,82.73260056488607
901.319,80.08018512182389
903.724,55.58256288797929
906.128,36.239920939705826
908.53,38.76653796151686
910.931,56.54317178171095
913.329,58.80754214609806
915.726,56.55909920601698
918.122,77.27331581587259
920.516,113.37788459257263
922.908,140.2051054511735
925.298,166.75379695003267
927.687,156.87977906454216
930.074,142.248260722753
932.459,130.85765591243126
934.843,128.32530455001915
937.225,120.3636695400669
939.605,150.49462907275893
941.984,152.14472130240256
944.361,180.64515093066893
946.736,188.32703388507207
949.11,200.52140390220984
951.482,176.5116000633825
953.853,186.77136861592953
956.222,163.9648695564706
958.589,145.13715940462225
960.954,120.57134064337288
963.318,109.5028540166063
965.68,105.64329463614877
968.041,118.08518046978043
970.4,103.44481606733325
972.757,78.29087057250581
975.113,47.33486049657813
977.467,21.097822968320088
979.819,-2.232534825618586
982.17,-1.1827814384191697
984.519,-14.327087913172818
986.866,-25.858649771058936
989.212,-21.780156618569436
991.556,16.81049871723826
993.899,40.958317956931296
996.24,62.994054844209586
998.579,64.72469166903147
1000.92,45.90963007645405
1003.25,27.213072351663868
1005.59,18.632593181199354
1007.92,13.356282842743894
1010.25,4.762747537779433
1012.58,10.563966867088766
1014.91,22.614817972941637
1017.24,21.532123490793765
1019.56,39.55179473908311
1021.88,56.19549871855634
1024.2,59.60399177826184
1026.52,75.25140566249411
1028.84,88.85000974821469
1031.16,94.92163994914245
1033.48,95.17865142936444
1035.79,113.66677607884594
1038.1,123.47940856037394
1040.41,158.70998759459098
1042.72,183.73771057835575
1045.03,168.6084862983471
1047.33,132.08255431133102
1049.64,113.15829480062621
1051.94,125.35794319447632
1054.24,135.0609238320344
1056.54,143.98004077220685
1058.84,135.1138590786868
1061.13,140.7467051526105
1063.43,150.73438135092283
1065.72,199.50416631903454
1068.01,208.2929105615658
1070.3,206.95656058454188
1072.59,196.589206847093
1074.87,173.95165552268327
1077.16,173.75714311748425
1079.44,222.4332415649419
1081.72,279.1218585584488
1084.0,325.91733312210226
1086.28,380.6283407052738
1088.56,419.8731316105118
1090.84,484.3652456119212
1093.11,551.6277980021109
1095.38,566.5172894486736
1097.65,519.6521777554167
1099.92,476.22240200454553
1102.19,408.7512876512319
1104.46,369.7145944753238
1106.72,341.5405169140099
1108.98,334.94301772781546
1111.24,360.44563785707123
1113.5,406.3814967545768
1115.76,482.4171022420669
1118.02,553.8856841762049
1120.28,623.3586233526735
1122.53,687.4073566007391
1124.78,730.3176628301972
1127.03,691.7087109830759
1129.28,625.8663936996304
1131.53,538.2671371748179
1133.77,456.958853871909
1136.02,456.13237142658
1138.26,508.4547663129051
1140.5,576.497935604591
1142.74,658.5005020695403
1144.98,750.9392430739367
1147.22,797.4338528196677
1149.45,815.0326569626923
1151.69,745.5935653266515
1153.92,624.5935960450533
1156.15,474.0812568463057
1158.38,376.81940252923414
1160.61,293.8090448195421
1162.83,248.76554317865111
1165.06,229.16622418398129
1167.28,174.39323900446516
1169.5,112.73356373320576
1171.72,92.8551901963283
1173.94,75.56903104754565
1176.16,95.20987248176516
1178.37,105.87446980584355
1180.58,68.04059539029413
1182.8,18.70989614480277
1185.01,-22.449249006263017
1187.22,-25.81601450548851
1189.42,-6.1504592876262905
1191.63,14.83504449868633
1193.84,44.47580861687311
1196.04,64.15482523335459
1198.24,69.4932410955339
1200.44,80.01702218596847
1202.64,85.91885647178196
1204.84,89.5343423683571
1207.03,116.19912958398163
1209.23,141.43939329783188
1211.42,169.7337369093957
1213.61,233.08461859741556
1215.8,288.2088254978826
1217.99,335.0612812153722
1220.18,361.07313904864986
1222.36,354.1993990258152
1224.55,338.2046201775379
1226.73,305.56768042934027
1228.91,267.86272697008235
1231.09,245.28298376329303
1233.27,220.21217810612643
1235.44,249.89120528355534
1237.62,318.7514598892335
1239.79,392.46245286064413
1241.96,507.6460951809063
1244.13,642.8766958663014
1246.3,784.2047694776056
1248.47,963.2046531552278
1250.64,1206.498314130548
1252.8,1476.898204856292
1254.96,1806.5501181369127
1257.13,2180.742708925625
1259.29,2519.383682788107
1261.44,2804.1902700804976
1263.6,2969.4035096511866
1265.76,2919.9787230188094
1267.91,2726.1093218835713
1270.06,2452.7029965909574
1272.22,2117.334095071635
1274.37,1863.3388589242068
1276.51,1634.4344690217754
1278.66,1435.290472070893
1280.81,1230.9573500276401
1282.95,1052.3427085613384
1285.09,881.1636559944432
1287.23,786.2801346233928
1289.37,722.7901568013572
1291.51,734.9821838781327
1293.65,754.2398860924109
1295.78,806.2802357973892
1297.92,896.5820768768513
1300.05,1008.1480274945834
1302.18,1135.8854304628394
1304.31,1297.987303610796
1306.44,1473.741861581584
1308.57,1673.0087042959813
1310.69,1866.2188149399199
1312.82,2036.1840817615116
1314.94,2168.5258674871197
1317.06,2265.4369120707674
1319.18,2333.3479973482968
1321.3,2364.5946116915466
1323.41,2264.8455194244284
1325.53,2107.0075207151845
1327.64,1854.7968781353152
1329.75,1597.0250289327992
1331.87,1369.5985830195941
1333.98,1165.9478923877055
1336.08,997.836572906223
1338.19,827.9805499278582
1340.3,678.4290086574129
1342.4,564.9929635678423
1344.5,465.8166849591912
1346.6,357.8538874222936
1348.7,330.05820401675237
1350.8,305.8593747346363
1352.9,295.92514924989473
1354.99,265.73271347729315
1357.09,223.4258304170612
1359.18,186.43388576145935
1361.27,168.70998112037614
1363.36,184.92140819930864
1365.45,159.40202773924693
1367.54,143.67607702798068
1369.62,138.22007264950207
1371.7,153.17709418578852
1373.79,163.45202029954226
1375.87,182.99724100740468
1377.95,166.52694138174274
1380.03,178.1837662048233
1382.1,197.5388179563156
1384.18,149.25832146746416
1386.25,133.00838381335734
1388.33,104.21689706233246
1390.4,57.21639340634056
1392.47,39.434519338920836
1394.54,33.72736697603386
1396.6,12.474710138798855
1398.67,25.151430912430897
1400.74,46.99418430040896
1402.8,45.334730816387946
1404.86,40.12374779163338
1406.92,7.549878777698268
1408.98,16.08735437766245
1411.04,49.49599402976628
1413.09,137.7259704673288
1415.15,273.2511472345718
1417.2,396.116701916731
1419.25,560.8915112749355
1421.3,692.7633935239423
1423.35,765.9676839432104
1425.4,755.1205723927264
1427.45,682.3143455907452
1429.49,520.7364389153313
1431.54,425.6218215392287
1433.58,349.06252442188134
1435.62,302.15050163477144
1437.66,269.8823964486769
1439.7,247.68335503996514
1441.74,217.9308401968924
1443.77,209.6213021687513
1445.81,204.0368495150292
1447.84,211.07858662122135
1449.87,235.69518930989443
1451.9,246.64481378508208
1453.93,292.01891033858465
1455.96,375.95651324674236
1457.98,472.35853066721575
1460.01,590.6972726310005
1462.03,748.3497885582551
1464.05,954.2169190598447
1466.07,1237.8185382150737
1468.09,1636.579272039895
1470.11,2134.161836002743
1472.13,2634.943229683219
1474.14,3134.77664571649
1476.16,3554.2771882614993
1478.17,3768.0123533739347
1480.18,3776.4067950934877
1482.19,3587.5994724834836
1484.2,3173.586510956241
1486.21,2668.2212064555642
1488.21,2108.023553448763
1490.22,1579.8469157758104
1492.22,1164.7827927366075
1494.22,819.7322518448959
1496.22,573.0725996774343
1498.22,431.2764336755454
1500.22,305.72117013714774
1502.22,238.9271436373474
1504.21,216.93856359190045
1506.21,159.13304224923672
1508.2,123.84064649201923
1510.19,91.5819972577408
1512.18,49.449226102189186
1514.17,14.915503191476091
1516.16,13.88266053216148
1518.14,12.300243772811655
1520.13,1.4988497198328332
1522.11,-16.428917099061437
1524.09,-15.104630728529855
1526.07,-16.673563412610065
1528.05,-3.6142068973288133
1530.03,-4.881128604385822
1532.01,-10.857353314353759
1533.98,-6.068649974780328
1535.96,9.530752429472159
1537.93,21.129590764201794
1539.9,17.25004064216364
1541.87,39.74771312889288
1543.84,45.52593716280853
1545.81,63.869089594372326
1547.78,109.01402046333692
1549.74,155.91195446647725
1551.7,201.7046781396043
1553.67,259.9150127538653
1555.63,306.2087157834776
1557.59,354.77542999249954
1559.55,411.32868014065275
1561.5,459.8201554034322
1563.46,483.39208703030636
1565.41,467.09153076483176
1567.37,441.6322683123833
1569.32,391.15670880788366
1571.27,317.7120759978259
1573.22,266.9646906603848
1575.17,236.86663397791358
1577.11,219.17955376658028
1579.06,204.33180403933648
1581.0,207.56129885459904
1582.95,208.15360426016582
1584.89,226.8705064276112
1586.83,225.95000835810606
1588.77,230.24918373109767
1590.7,207.3394117053715
1592.64,210.50637362487691
1594.58,200.22624020074454
1596.51,149.0942396456835
1598.44,32.943701998849065
