Raman Shift,Processed Intensity
331.095,129.7056472517197
333.909,10.890555861677967
336.721,-22.522441936113864
339.531,-2.1999999061636117
342.339,27.73887303894753
345.145,59.38949014009813
347.949,75.8472117121737
350.751,89.25507482653484
353.55,106.0895182315744
356.348,148.11277393996352
359.144,166.13478262539866
361.937,159.2036804479285
364.729,150.1772382602494
367.518,144.05620557590373
370.306,176.41289263270755
373.091,247.29594293239188
375.874,309.6589153040359
378.656,337.5507707294237
381.435,307.8777877398097
384.212,237.40357305080488
386.988,140.51097695914177
389.761,39.58305635850229
392.532,-14.187390816076004
395.301,-27.512100667619052
398.068,-27.57876127376585
400.833,-25.812908307863836
403.596,-14.830299808289965
406.358,-36.00834153924825
409.117,-24.247991324157738
411.874,-15.259474481199959
414.629,-7.848003212606727
417.382,10.371929951446418
420.133,36.643209453807685
422.882,77.06608650985254
425.629,165.93150331881634
428.374,273.2925161969529
431.117,464.7261949011863
433.858,681.8574267146473
436.597,872.6446252941332
439.334,992.7606776127859
442.069,1020.2119861408814
444.802,988.7670348361285
447.533,954.2420979911217
450.262,926.1679014617362
452.989,957.884855324096
455.714,971.2097151029698
458.438,990.0546239525665
461.159,955.7128215039875
463.878,902.2872098555372
466.595,847.8332052773212
469.31,792.2634946777512
472.024,738.8718396890949
474.735,738.6187855149287
477.444,742.4173697775846
480.152,784.4664504132184
482.857,835.5364145192516
485.561,826.9215538684953
488.262,823.7733928042135
490.962,841.1006828018685
493.659,905.6741589356075
496.355,964.4551058685747
499.048,1038.5001143194054
501.74,1100.3896470525415
504.43,1186.5137477256853
507.118,1298.5958449753416
509.804,1397.4546517404497
512.488,1516.4327312526989
515.17,1628.5393487411066
517.85,1767.8314183747193
520.528,1884.365878776714
523.204,1995.9139733004213
525.878,2023.6755303053387
528.551,2040.4218148617165
531.221,2056.40028521704
533.89,2118.4774445006115
536.556,2159.7102638567067
539.221,2183.869986530112
541.883,2120.584979570711
544.544,2076.0550141095046
547.203,2072.194117063183
549.86,2101.0115180768225
552.515,2167.0878345617884
555.168,2226.8131614955605
557.819,2289.7680183644015
560.469,2425.866200867937
563.116,2579.783346909453
565.761,2755.433121633806
568.405,2965.443402465334
571.047,3196.8705593838627
573.687,3404.294687581665
576.324,3570.7243639299554
578.96,3693.5966415406156
581.594,3773.0151395660278
584.227,3758.6547996655513
586.857,3713.0952139005926
589.485,3572.487285962988
592.112,3367.3151304986322
594.737,3154.7294010025325
597.359,2903.8329986662297
599.98,2632.538209796669
602.599,2391.9952718064837
605.216,2193.49712968047
607.831,2038.3841924420694
610.445,1970.710994381749
613.056,2008.8652372377574
615.666,2155.091594281636
618.274,2413.396466784687
620.88,2790.9765500082403
623.484,3224.2664468129883
626.086,3600.271995554022
628.686,3908.427407499697
631.284,4071.7857375838116
633.881,4090.4950694435347
636.476,3981.9889861715847
639.068,3694.6532315446134
641.659,3282.0637998230095
644.249,2834.7012160268982
646.836,2365.045768593085
649.421,1926.006075365353
652.005,1547.2524114895105
654.587,1167.2643230227218
657.166,867.425859590463
659.745,658.1208070434827
662.321,517.8755391623672
664.895,423.3113931716498
667.468,391.95418811104264
670.038,372.56755273048793
672.607,307.1053010042506
675.174,225.75904574024116
677.739,167.5772407607751
680.303,113.36993736903378
682.864,83.99449319649239
685.424,112.26032866938658
687.982,81.26225490375737
690.538,56.76142064810574
693.092,42.804354464147764
695.645,46.199149764712274
698.195,34.27736995399118
700.744,56.41786280900942
703.291,61.95153206386249
705.836,86.06611263750528
708.38,102.13952312082529
710.921,137.8827484411254
713.461,173.95891300279982
715.999,242.6975919232359
718.535,287.4281698877762
721.069,312.86081905228775
723.602,269.5150959933785
726.133,212.8628243728781
728.662,126.94716807852092
731.189,79.00170436462486
733.714,32.87902080228832
736.238,20.14597889625702
738.759,13.655176305290752
741.279,5.878317434071505
743.798,-18.188985148298343
746.314,-42.83669345875251
748.829,-61.87839760561519
751.342,-59.889371452201885
753.853,-80.1113002135503
756.362,-80.64273016071229
758.869,-57.72476398340632
761.375,-58.83629037931314
763.879,-71.45589082064907
766.381,-28.20470600492399
768.882,-17.608357390582114
771.38,-9.954116064846403
773.877,19.56621066119851
776.372,13.427676251581943
778.866,9.534066947491283
781.357,49.55120458489546
783.847,94.9069176332664
786.335,116.26720382093708
788.821,194.5362077530226
791.306,286.0466845722458
793.789,418.655237254055
796.27,592.4566015207979
798.749,788.5455498035158
801.227,967.6359380608801
803.702,1138.965466883842
806.176,1239.867109266946
808.649,1240.1976812367884
811.119,1175.5283172423833
813.588,1076.5730407836218
816.055,951.2840017064036
818.521,848.6133801644314
820.984,727.2276715333892
823.446,621.2695903727431
825.906,541.8818791494446
828.365,482.5406407711462
830.821,423.81724254800247
833.276,388.47355348778774
835.729,335.17622921006705
838.181,283.8776635270383
840.631,252.149320976735
843.079,200.9436407848234
845.525,180.26070273114374
847.97,172.81489301625743
850.412,187.41585584227914
852.854,194.68277832704553
855.293,189.94915160875462
857.731,149.97705576013732
860.167,162.90953994071197
862.601,174.65157397761232
865.034,191.012904708326
867.465,190.42234089485692
869.894,155.8325143283655
872.321,126.7198790290422
874.747,136.37042473169322
877.171,158.59396179991018
879.594,145.9622156640371
882.014,132.6183498305636
884.433,136.84839365341986
886.851,155.5098129624248
889.266,176.8410330726747
891.68,182.69953322250694
894.092,164.60946482098734
896.503,168.23784112397516
898.912,186.91834595779937
901.319,198.17514244293716
903.724,237.00858647959194
906.128,247.70474975708748
908.53,264.0258951442106
910.931,234.40095207955437
913.329,217.544563390436
915.726,207.88565592133455
918.122,230.66267782900013
920.516,249.54264540136
922.908,251.33542797167183
925.298,211.51755664219354
927.687,211.27984253166233
930.074,219.95594740373144
932.459,247.40333524778634
934.843,287.8127952883315
937.225,314.75606023247246
939.605,350.56675785072866
941.984,357.1023149387952
944.361,354.3153850888334
946.736,337.49194312742156
949.11,310.0131890773255
951.482,291.5936425954583
953.853,306.1382850298796
956.222,311.83779671490356
958.589,309.5018895042922
960.954,295.1307345425448
963.318,253.1530567028458
965.68,206.37851473930414
968.041,181.0929385820432
970.4,168.15356663228658
972.757,130.5604735336342
975.113,71.07561699095868
977.467,32.7942655416814
979.819,6.240235850848876
982.17,10.080177625268789
984.519,33.59976328954326
986.866,51.084640209431655
989.212,27.820431565097806
991.556,42.61654674815691
993.899,61.47284890158562
996.24,69.34156055486983
998.579,89.07964544963079
1000.92,94.87738084144166
1003.25,74.92502503973901
1005.59,74.88900875726995
1007.92,51.76907884049206
1010.25,46.75544199996875
1012.58,44.08590854076556
1014.91,67.04589323570553
1017.24,88.30174953196047
1019.56,96.56743709097736
1021.88,79.41404647125773
1024.2,83.65075238256759
1026.52,101.51529074967038
1028.84,139.91205482367877
1031.16,156.69781034102562
1033.48,167.6340773491056
1035.79,199.19665488905594
1038.1,192.28990758330156
1040.41,206.86581412785517
1042.72,178.495396737007
1045.03,164.32110296895598
1047.33,165.81871136096697
1049.64,181.79733230262173
1051.94,167.92321843287937
1054.24,140.19595598951673
1056.54,111.04370377762143
1058.84,138.75176547140836
1061.13,155.3673523922348
1063.43,162.31863200089856
1065.72,178.70044305660076
1068.01,155.22667744258342
1070.3,176.61123342032715
1072.59,180.282302217096
1074.87,186.19189270871402
1077.16,193.53011800710192
1079.44,206.2490058573394
1081.72,229.1101185585353
1084.0,284.6845538370794
1086.28,346.9243742913195
1088.56,429.7340368362434
1090.84,522.9227745291128
1093.11,568.68078791891
1095.38,608.7697221100752
1097.65,567.0940962071918
1099.92,507.7965422834791
1102.19,413.4959014921392
1104.46,357.85865351104394
1106.72,330.12272693979503
1108.98,362.3832144586968
1111.24,415.9257070353433
1113.5,472.0834376550215
1115.76,521.5706155273024
1118.02,597.7681412450161
1120.28,651.1521790860807
1122.53,689.5798721724827
1124.78,697.4798195340122
1127.03,653.2330293624723
1129.28,594.0300627420825
1131.53,544.6329392846455
1133.77,497.6608522885299
1136.02,495.01874104050466
1138.26,520.1830059747153
1140.5,595.8681762126171
1142.74,707.9316723409947
1144.98,799.4214263328436
1147.22,868.6235014682416
1149.45,877.9668551123686
1151.69,808.6900062554314
1153.92,681.6981792430638
1156.15,522.5633046495805
1158.38,360.4287820559957
1160.61,265.67614758994387
1162.83,205.1155509894138
1165.06,176.60480409504908
1167.28,149.38271505674447
1169.5,101.68813682594555
1171.72,48.47425374318709
1173.94,47.551439554203625
1176.16,52.30154399747016
1178.37,41.43979843935631
1180.58,34.53862627119315
1182.8,20.503834258715415
1185.01,-6.139672298967525
1187.22,-14.7716982199222
1189.42,0.6565757672055952
1191.63,-13.186930545024552
1193.84,10.889563763834303
1196.04,52.50646141584093
1198.24,89.95087956874295
1200.44,92.9385530717168
1202.64,92.13764248301322
1204.84,95.0258754209276
1207.03,101.60483077191748
1209.23,106.92374670824165
1211.42,164.88904299130718
1213.61,236.6928908940631
1215.8,286.38464026626343
1217.99,361.1089132663833
1220.18,390.9151266649724
1222.36,397.75749033847023
1224.55,400.9711962392248
1226.73,392.1771787940761
1228.91,340.85354196962135
1231.09,318.24031967080373
1233.27,310.67280756808213
1235.44,331.9148949245873
1237.62,374.06382499471056
1239.79,458.2644792322112
1241.96,565.5188995935637
1244.13,735.8291441746383
1246.3,933.863952371199
1248.47,1156.6730290870155
1250.64,1374.2584717991272
1252.8,1654.5747690516687
1254.96,1977.2907037116088
1257.13,2421.8369705101954
1259.29,2845.2156983463155
1261.44,3199.286163066044
1263.6,3345.6695478612496
1265.76,3316.510846525331
1267.91,3108.5741000423022
1270.06,2847.6233474615715
1272.22,2491.470243439397
1274.37,2163.021675780338
1276.51,1885.4702401215536
1278.66,1640.2466193790183
1280.81,1411.162439384213
1282.95,1204.553124520809
1285.09,1019.8969438375543
1287.23,904.1483428754382
1289.37,860.9284183520076
1291.51,865.7153928456837
1293.65,893.7017561467369
1295.78,953.1752161320765
1297.92,1067.4710782114666
1300.05,1221.5912914404157
1302.18,1368.4425422521026
1304.31,1552.8362529512192
1306.44,1707.393342112574
1308.57,1855.8299373606465
1310.69,2037.0526119586798
1312.82,2252.015526159657
1314.94,2454.863282843007
1317.06,2648.597592675107
1319.18,2717.648701174562
1321.3,2724.11348244413
1323.41,2556.04115195029
1325.53,2346.052312636141
1327.64,2066.672286748566
1329.75,1768.664447665427
1331.87,1499.5064088655895
1333.98,1307.0566890894415
1336.08,1076.3166155946492
1338.19,924.0493702690546
1340.3,759.39903574358
1342.4,608.223927219416
1344.5,512.4775433428204
1346.6,429.63713612754054
1348.7,407.65609040104573
1350.8,378.3924937269571
1352.9,346.7519920417594
1354.99,277.3068357677007
1357.09,217.7244497352126
1359.18,166.91028881962393
1361.27,141.72212214929095
1363.36,142.25574588517247
1365.45,153.89260076229812
1367.54,154.15691344076777
1369.62,164.28712357103586
1371.7,165.1882632401539
1373.79,145.33671737038958
1375.87,179.06593649879233
1377.95,198.23310193772113
1380.03,220.6000766496445
1382.1,198.16673707433665
1384.18,182.40906686083054
1386.25,148.89820298031782
1388.33,138.5385294580974
1390.4,123.71053301028587
1392.47,114.03270629957933
1394.54,63.26630833387162
1396.6,47.79155343629691
1398.67,24.655228786701173
1400.74,8.570692915493964
1402.8,9.632159911785948
1404.86,29.69565278225764
1406.92,42.47424340653288
1408.98,60.39519824400077
1411.04,90.55236213587295
1413.09,171.75378020247945
1415.15,339.6645578357957
1417.2,548.7116254538673
1419.25,731.7027889695296
1421.3,852.9695897829324
1423.35,884.3196885835964
1425.4,870.1797253429427
1427.45,786.5477031163409
1429.49,685.0406099404031
1431.54,528.7991835874091
1433.58,392.67839060544793
1435.62,302.1045720252232
1437.66,282.5040176382845
1439.7,251.35058789431605
1441.74,236.40381198888736
1443.77,219.89936690360082
1445.81,195.40622311288917
1447.84,198.4933141003571
1449.87,239.87239635129708
1451.9,286.96948077378556
1453.93,342.97245459596616
1455.96,412.3548937395162
1457.98,503.44749424074416
1460.01,649.8666465288065
1462.03,838.3239620848967
1464.05,1089.6738953395138
1466.07,1446.199460807832
1468.09,1905.0408073679278
1470.11,2469.385697300906
1472.13,3074.8504615215115
1474.14,3611.241907189688
1476.16,4024.509701512619
1478.17,4272.317803165797
1480.18,4325.425417523651
1482.19,4143.686999509189
1484.2,3717.0046373960413
1486.21,3092.6137699438336
1488.21,2425.273665438325
1490.22,1792.2198054934456
1492.22,1310.7829355200051
1494.22,972.1985913848707
1496.22,701.3213879749119
1498.22,485.62502204666
1500.22,370.39275126645
1502.22,283.0983494410357
1504.21,228.02515698631078
1506.21,185.2184647293534
1508.2,121.8188500914282
1510.19,80.82408469954999
1512.18,62.94628009328926
1514.17,56.70712866967551
1516.16,17.342668437624752
1518.14,-4.530047465725829
1520.13,-8.293900306303613
1522.11,-5.665036236764763
1524.09,-2.5976258089408475
1526.07,13.57328043436678
1528.05,9.51270531914065
1530.03,4.171460043474781
1532.01,7.024240133285048
1533.98,-9.21608812579143
1535.96,-21.21753458983153
1537.93,13.351967841938631
1539.9,57.872182059313445
1541.87,81.96104053340287
1543.84,110.80797625179207
1545.81,129.17392032036128
1547.78,102.86749004130297
1549.74,141.26879603874954
1551.7,187.6151541463173
1553.67,240.85822586607787
1555.63,333.14020644657353
1557.59,419.6985843894124
1559.55,483.67566286061947
1561.5,533.832843006755
1563.46,532.7887167948447
1565.41,493.87620747135543
1567.37,464.3330433545152
1569.32,415.49223162662383
1571.27,383.4011035549415
1573.22,338.7736930459075
1575.17,294.9907342469726
1577.11,245.05204010081752
1579.06,254.43364280433275
1581.0,269.84969617236015
1582.95,296.4429494300025
1584.89,307.78474481446233
1586.83,304.0654913673586
1588.77,266.2851387270366
1590.7,265.7769842542134
1592.64,247.82671825285706
1594.58,231.83908823867955
1596.51,167.76646796953878
1598.44,24.108855047258885
