Raman Shift,Processed Intensity
331.095,29.26811476190487
333.909,-13.891760476190505
336.721,-57.83604904761913
339.531,-86.96079428571431
342.339,-64.13909904761904
345.145,-12.171404761904752
347.949,9.835538095238084
350.751,-6.174947619047645
353.55,-9.733185714285725
356.348,-37.46220952380952
359.144,-21.79202857142854
361.937,18.040266666666696
364.729,53.84790952380959
367.518,82.68423333333345
370.306,186.60538095238113
373.091,300.71731428571456
375.874,410.0801428571431
378.656,432.51866666666683
381.435,414.7643809523811
384.212,318.35985714285727
386.988,229.9931904761906
389.761,177.06814285714293
392.532,147.085680952381
395.301,101.88243809523817
398.068,88.53440476190481
400.833,108.83352380952388
403.596,86.90691428571432
406.358,98.1686571428572
409.117,95.08247619047623
411.874,85.87523333333338
414.629,73.72765238095243
417.382,73.82183333333336
420.133,36.81751428571434
422.882,62.13719523809531
425.629,102.49083333333346
428.374,180.92262857142873
431.117,295.85877142857163
433.858,344.29790476190493
436.597,349.1923809523811
439.334,318.8759047619049
442.069,259.3974761904763
444.802,237.71204761904778
447.533,248.58433333333352
450.262,265.73252380952397
452.989,282.3995714285716
455.714,311.1143809523811
458.438,329.5966666666668
461.159,325.61480952380964
463.878,250.46100000000007
466.595,184.1425238095239
469.31,115.95300000000009
472.024,105.13866666666678
474.735,149.0889523809525
477.444,198.43133333333344
480.152,209.41300000000012
482.857,220.13861904761916
485.561,206.1891904761906
488.262,206.0983809523811
490.962,204.59004761904774
493.659,203.34076190476202
496.355,191.36085714285724
499.048,173.8035238095239
501.74,183.15476190476204
504.43,199.47276190476202
507.118,186.957761904762
509.804,202.47757142857157
512.488,224.56600000000014
515.17,244.99523809523825
517.85,285.44166666666683
520.528,290.6770952380953
523.204,239.616142857143
525.878,194.50666666666675
528.551,159.4530000000001
531.221,135.1313238095239
533.89,120.55049047619056
536.556,122.0046952380953
539.221,119.3127476190477
541.883,108.38760000000008
544.544,135.7135952380953
547.203,135.2512285714286
549.86,109.8175333333334
552.515,88.3245428571429
555.168,95.87498095238104
557.819,99.80860952380962
560.469,151.0842380952382
563.116,170.2798476190477
565.761,156.59171428571435
568.405,129.64466666666675
571.047,123.06309523809531
573.687,119.85187619047628
576.324,110.72985238095245
578.96,120.08251428571435
581.594,140.5801952380953
584.227,154.560361904762
586.857,146.31182857142863
589.485,132.83772380952385
592.112,84.33117142857148
594.737,82.69922857142865
597.359,95.08670476190481
599.98,80.30519047619053
602.599,93.21310000000008
605.216,90.24002380952388
607.831,100.81521904761914
610.445,138.08185238095245
613.056,142.23083809523817
615.666,94.83343809523815
618.274,83.27014285714291
620.88,89.54021428571438
623.484,126.11880952380963
626.086,182.09976666666677
628.686,224.43387619047633
631.284,259.4051904761906
633.881,257.1544761904764
636.476,241.3459523809525
639.068,244.92976190476205
641.659,223.37929523809532
644.249,189.50078571428583
646.836,170.3865571428572
649.421,138.41444666666672
652.005,62.53297047619053
654.587,67.3103933333334
657.166,79.64768666666671
659.745,56.68380285714289
662.321,63.843441904761946
664.895,63.02766095238096
667.468,40.470442857142906
670.038,50.64414761904766
672.607,80.44947619047623
675.174,68.3586571428572
677.739,88.8436666666667
680.303,102.2817095238096
682.864,105.95440000000005
685.424,98.47679523809528
687.982,89.27353809523814
690.538,67.72164761904764
693.092,32.817142857142876
695.645,25.27069523809525
698.195,9.12602857142858
700.744,13.61760476190479
703.291,35.027533333333366
705.836,44.780823809523824
708.38,60.6837571428572
710.921,78.63753609523815
713.461,55.16267442857146
715.999,63.112991714285776
718.535,89.91398319047624
721.069,100.4196821904763
723.602,132.5794982380953
726.133,128.77119800000006
728.662,96.08707142857149
731.189,92.23847619047626
733.714,89.6510571428572
736.238,90.5124190476191
738.759,87.34347142857148
741.279,93.6653714285715
743.798,104.33249047619054
746.314,129.48515238095246
748.829,106.97770952380957
751.342,89.42649523809528
753.853,83.40050000000006
756.362,92.70688095238103
758.869,82.200180952381
761.375,105.64012761904766
763.879,77.35750142857145
766.381,44.15941714285717
768.882,54.90072238095242
771.38,64.67463619047624
773.877,59.098030000000065
776.372,91.74051809523814
778.866,95.79030000000003
781.357,78.0549952380953
783.847,89.86582380952386
786.335,86.17347619047624
788.821,69.69045714285718
791.306,69.89133333333338
793.789,81.8218714285715
796.27,101.29029523809533
798.749,149.43758571428583
801.227,175.26237142857153
803.702,181.71586666666678
806.176,185.13008571428583
808.649,159.45591904761915
811.119,143.59721904761915
813.588,142.02860476190483
816.055,125.41592380952389
818.521,104.66319523809528
820.984,118.19801904761911
823.446,101.97186666666674
825.906,132.12702857142867
828.365,147.94841904761913
830.821,147.24503809523816
833.276,144.39747619047628
835.729,145.02428571428578
838.181,118.02985714285722
840.631,140.31871428571438
843.079,143.98571428571438
845.525,155.88809523809536
847.97,177.74028571428582
850.412,198.0186561904763
852.854,163.29485380952386
855.293,103.75951238095239
857.731,60.555941428571465
860.167,45.11310761904766
862.601,56.57433476190483
865.034,88.60700857142861
867.465,97.92620952380956
869.894,75.62801428571433
872.321,79.76122857142863
874.747,90.04080000000008
877.171,106.94419523809533
879.594,130.23439047619058
882.014,150.91307619047632
884.433,178.02908571428583
886.851,189.01228571428578
889.266,185.4355238095239
891.68,182.4909047619049
894.092,210.60847619047635
896.503,217.9331904761906
898.912,223.8952380952382
901.319,214.06800000000013
903.724,193.64380952380967
906.128,197.38652380952396
908.53,212.96442857142867
910.931,218.76061904761917
913.329,214.15828571428582
915.726,206.0169047619049
918.122,186.29066666666677
920.516,195.02966666666674
922.908,171.47409523809534
925.298,158.24538095238103
927.687,182.67923809523822
930.074,183.44461904761914
932.459,173.82901904761917
934.843,160.93047142857148
937.225,132.7040476190477
939.605,103.77099047619055
941.984,110.70543809523816
944.361,107.17626666666673
946.736,94.99517142857148
949.11,78.64101904761911
951.482,80.49726666666672
953.853,88.75690952380958
956.222,93.0415714285715
958.589,88.30589523809526
960.954,88.12379047619054
963.318,81.40242857142863
965.68,103.71575238095248
968.041,138.06640000000007
970.4,135.26594761904767
972.757,107.74540000000005
975.113,81.69756190476191
977.467,42.22004761904767
979.819,39.982033333333376
982.17,60.41422857142862
984.519,84.09043809523817
986.866,122.965061904762
989.212,143.0878333333334
991.556,136.93727619047627
993.899,127.56314285714294
996.24,145.87195238095248
998.579,172.96133333333347
1000.92,192.356761904762
1003.25,215.58404761904774
1005.59,205.0735904761906
1007.92,171.1129238095239
1010.25,151.56060952380963
1012.58,136.3708571428572
1014.91,98.49767619047627
1017.24,116.18091428571437
1019.56,131.08837428571434
1021.88,90.26914333333337
1024.2,89.96246761904769
1026.52,103.78880428571436
1028.84,113.65387714285724
1031.16,169.32067666666677
1033.48,179.07585047619054
1035.79,180.444142857143
1038.1,210.80742857142872
1040.41,254.11885714285734
1042.72,291.28361904761925
1045.03,306.873523809524
1047.33,264.6034761904763
1049.64,234.85490476190486
1051.94,194.8186666666668
1054.24,208.35233333333346
1056.54,209.6942857142858
1058.84,186.13019047619056
1061.13,169.99323809523818
1063.43,169.18828571428583
1065.72,183.8580952380954
1068.01,217.098142857143
1070.3,223.14623809523817
1072.59,225.7641904761906
1074.87,226.475142857143
1077.16,233.94557142857158
1079.44,238.12757142857157
1081.72,249.44928571428588
1084.0,247.91009523809544
1086.28,305.60480952380976
1088.56,407.4374761904765
1090.84,543.5982380952385
1093.11,650.4195714285719
1095.38,679.4720952380956
1097.65,615.9457619047621
1099.92,509.88723809523833
1102.19,402.58152380952407
1104.46,346.26604761904787
1106.72,334.46357142857164
1108.98,378.7919523809527
1111.24,420.29823809523833
1113.5,454.02880952380985
1115.76,479.36357142857173
1118.02,518.1111904761908
1120.28,559.6515238095242
1122.53,604.9356190476193
1124.78,575.343904761905
1127.03,502.49390476190507
1129.28,435.7656190476192
1131.53,402.4434285714288
1133.77,385.4787142857145
1136.02,354.6319523809526
1138.26,302.1403333333335
1140.5,262.0976190476192
1142.74,243.3124285714287
1144.98,240.21171428571446
1147.22,247.60423809523823
1149.45,246.29800000000012
1151.69,199.815761904762
1153.92,192.2513333333335
1156.15,170.03219047619055
1158.38,150.01401904761914
1160.61,121.33863333333339
1162.83,108.05246190476194
1165.06,68.86870000000003
1167.28,47.309761904761935
1169.5,37.89837619047623
1171.72,54.44277980952384
1173.94,47.608546952380976
1176.16,45.108803428571434
1178.37,29.466225428571434
1180.58,15.251117714285737
1182.8,27.08147552380956
1185.01,41.76569409523812
1187.22,49.49322380952384
1189.42,58.16780952380955
1191.63,51.407438095238135
1193.84,76.11604285714293
1196.04,90.14968571428575
1198.24,98.60286666666674
1200.44,105.71260476190481
1202.64,101.81139047619054
1204.84,88.75553809523817
1207.03,91.35389047619053
1209.23,93.27246666666673
1211.42,79.22486190476192
1213.61,65.59119590476195
1215.8,33.132799000000006
1217.99,32.134827523809555
1220.18,17.168174809523837
1222.36,47.28026180952385
1224.55,57.56558852380957
1226.73,72.78569780952385
1228.91,86.55931047619053
1231.09,119.36217238095243
1233.27,102.71780952380958
1235.44,98.95933809523814
1237.62,77.03875238095243
1239.79,69.5271714285715
1241.96,86.18645714285722
1244.13,106.87336190476195
1246.3,84.87345238095241
1248.47,104.94866666666674
1250.64,111.00331428571438
1252.8,139.65622857142867
1254.96,182.38396190476203
1257.13,206.51945714285725
1259.29,188.68195238095248
1261.44,196.87128571428582
1263.6,208.18242857142872
1265.76,222.85342857142874
1267.91,231.83719047619059
1270.06,216.84790476190486
1272.22,181.9809523809525
1274.37,171.23609523809537
1276.51,222.18500000000017
1278.66,267.16119047619065
1280.81,271.7836666666668
1282.95,279.2434761904764
1285.09,260.9213809523811
1287.23,241.62704761904774
1289.37,264.3606666666668
1291.51,280.9800476190478
1293.65,263.5323809523811
1295.78,251.7805238095239
1297.92,227.2004761904763
1300.05,205.6496666666668
1302.18,225.22380952380968
1304.31,234.73280952380966
1306.44,242.65285714285727
1308.57,230.88952380952395
1310.69,252.87123809523828
1312.82,278.02700000000016
1314.94,320.1192380952383
1317.06,320.8150476190478
1319.18,307.68633333333355
1321.3,290.6860476190478
1323.41,336.67119047619076
1325.53,381.6423333333336
1327.64,445.26652380952413
1329.75,494.78252380952404
1331.87,498.04814285714315
1333.98,523.8255714285717
1336.08,559.9722380952384
1338.19,534.8222380952384
1340.3,503.8520952380955
1342.4,451.63371428571446
1344.5,390.500904761905
1346.6,374.9304761904764
1348.7,368.7322380952383
1350.8,335.43066666666687
1352.9,331.5978571428573
1354.99,330.0916666666669
1357.09,349.10276190476213
1359.18,356.4892857142859
1361.27,365.82261904761924
1363.36,393.72247619047647
1365.45,415.9515714285717
1367.54,431.79609523809546
1369.62,428.7804761904764
1371.7,423.2863809523812
1373.79,418.6950000000003
1375.87,468.81642857142884
1377.95,511.84200000000027
1380.03,519.152904761905
1382.1,479.3214285714288
1384.18,441.0623333333335
1386.25,373.4713333333336
1388.33,363.45404761904786
1390.4,324.8682857142859
1392.47,297.6669523809526
1394.54,280.3740952380954
1396.6,268.99047619047633
1398.67,253.3736190476192
1400.74,276.8099523809525
1402.8,267.1572857142859
1404.86,261.6542857142859
1406.92,259.92033333333353
1408.98,253.43252380952396
1411.04,242.95333333333346
1413.09,245.24495238095255
1415.15,247.0699047619049
1417.2,222.76209523809536
1419.25,212.13161904761918
1421.3,215.65509523809538
1423.35,255.5237619047621
1425.4,287.4520952380954
1427.45,305.1548095238097
1429.49,305.53771428571446
1431.54,296.6012380952383
1433.58,278.53614285714303
1435.62,284.4858095238097
1437.66,277.59347619047634
1439.7,275.81171428571446
1441.74,287.2842857142859
1443.77,285.20204761904773
1445.81,276.0892380952382
1447.84,256.23200000000014
1449.87,259.91652380952394
1451.9,258.28590476190493
1453.93,256.0549047619049
1455.96,248.89052380952398
1457.98,234.17404761904777
1460.01,234.90585714285731
1462.03,279.65795238095257
1464.05,306.9070000000002
1466.07,322.1292857142859
1468.09,339.13461904761925
1470.11,328.44700000000023
1472.13,342.06676190476213
1474.14,339.8988571428573
1476.16,318.99119047619064
1478.17,304.29623809523827
1480.18,266.1956190476192
1482.19,222.1656190476192
1484.2,188.58747619047628
1486.21,149.50866666666676
1488.21,135.11976190476202
1490.22,140.46852380952387
1492.22,128.65074285714294
1494.22,119.1901190476191
1496.22,95.94396666666673
1498.22,83.72168571428577
1500.22,86.18995238095243
1502.22,82.53926190476196
1504.21,95.67460952380958
1506.21,90.26249047619052
1508.2,76.30286952380956
1510.19,44.414736190476205
1512.18,31.407572380952416
1514.17,46.233573333333396
1516.16,64.98809619047624
1518.14,89.57550761904768
1520.13,126.71018380952387
1522.11,122.34418571428579
1524.09,123.52494952380958
1526.07,102.7759661904762
1528.05,50.28756571428574
1530.03,34.20228619047624
1532.01,50.61531333333339
1533.98,67.66906619047624
1535.96,96.69668285714292
1537.93,111.8408190476191
1539.9,105.19624761904768
1541.87,111.85806666666673
1543.84,124.11141428571436
1545.81,118.7655333333334
1547.78,135.10590952380963
1549.74,156.51340952380963
1551.7,155.17814285714297
1553.67,174.19490476190487
1555.63,170.46771428571438
1557.59,153.4727142857144
1559.55,158.92380000000009
1561.5,149.72540476190485
1563.46,115.6391333333334
1565.41,103.09281428571434
1567.37,89.94316190476198
1569.32,101.28541428571437
1571.27,131.30957142857153
1573.22,161.72945714285723
1575.17,140.2113190476191
1577.11,106.087980952381
1579.06,86.7397952380953
1581.0,86.26166666666674
1582.95,93.4627857142858
1584.89,120.39048571428577
1586.83,142.7583714285715
1588.77,162.94700000000012
1590.7,192.05109523809534
1592.64,201.73695238095252
1594.58,186.05171428571458
1596.51,182.94700000000051
1598.44,215.08880952381037
