Raman Shift,Processed Intensity
331.095,56.187373809523756
333.909,33.72669285714284
336.721,12.867409285714267
339.531,-5.944731904761915
342.339,-29.669426190476205
345.145,-20.00354000000001
347.949,-39.99841619047622
350.751,-52.370325238095255
353.55,-48.97629285714287
356.348,-39.9093442857143
359.144,-14.165298571428545
361.937,13.54788857142858
364.729,44.762287142857204
367.518,90.58329428571437
370.306,155.54686666666683
373.091,274.524204761905
375.874,370.4355904761907
378.656,353.82266666666686
381.435,333.9425238095239
384.212,257.86382857142866
386.988,169.46642857142865
389.761,145.86977619047627
392.532,101.2899285714286
395.301,62.65919047619053
398.068,47.95858571428573
400.833,35.74227619047621
403.596,30.661126666666682
406.358,31.36731476190477
409.117,1.9906390476190556
411.874,14.328842380952388
414.629,1.1810342857142953
417.382,1.5856100000000417
420.133,61.677555238095316
422.882,98.30713809523816
425.629,126.2782047619049
428.374,209.5860190476192
431.117,269.8938095238097
433.858,318.1988095238097
436.597,366.8804285714287
439.334,302.6044285714287
442.069,227.94200000000015
444.802,201.65557142857156
447.533,191.31823809523826
450.262,219.5512380952383
452.989,280.45261904761924
455.714,314.93033333333346
458.438,317.6073333333335
461.159,274.86895238095246
463.878,202.00587619047624
466.595,117.78542380952388
469.31,95.11813333333343
472.024,126.29576666666676
474.735,155.84856190476202
477.444,156.25956666666673
480.152,175.25030476190486
482.857,153.06609523809533
485.561,150.00057142857156
488.262,175.6328571428573
490.962,203.92300000000014
493.659,219.7839523809525
496.355,239.60481904761915
499.048,195.91767619047627
501.74,153.06435238095247
504.43,136.95822857142866
507.118,124.41711428571438
509.804,163.7350571428573
512.488,226.53972380952393
515.17,263.7918571428573
517.85,251.88047619047632
520.528,245.52833333333348
523.204,205.4102857142858
525.878,156.72466666666674
528.551,121.14640952380957
531.221,93.82599047619051
533.89,56.53273809523815
536.556,52.27415238095242
539.221,55.105476190476224
541.883,65.60500000000006
544.544,99.97020000000009
547.203,139.35059047619058
549.86,164.75299523809534
552.515,164.27882857142865
555.168,123.41033809523816
557.819,99.96258095238102
560.469,114.75085238095248
563.116,138.20881904761916
565.761,185.72291904761917
568.405,191.10741904761912
571.047,162.1286952380953
573.687,115.98135714285718
576.324,104.66936190476198
578.96,97.81541428571437
581.594,110.51829047619051
584.227,100.49536666666673
586.857,82.70192380952385
589.485,78.33094285714292
592.112,69.62270952380956
594.737,76.43643809523815
597.359,75.96436666666672
599.98,102.44597523809529
602.599,90.64442000000005
605.216,79.3700161904762
607.831,23.242456666666683
610.445,21.40490000000003
613.056,31.286009047619082
615.666,38.790396190476216
618.274,56.44128428571432
620.88,60.95239142857147
623.484,65.79904476190485
626.086,117.69427238095248
628.686,157.11299619047628
631.284,166.33900476190487
633.881,203.7515047619049
636.476,204.491142857143
639.068,216.74604761904774
641.659,230.18038095238103
644.249,202.26780952380963
646.836,171.29079047619055
649.421,132.53221714285718
652.005,62.08372428571432
654.587,43.179884761904795
657.166,28.245769047619067
659.745,20.03945904761909
662.321,54.842711904761956
664.895,79.03248476190481
667.468,82.50946952380959
670.038,111.26926952380958
672.607,117.06978095238102
675.174,119.0492476190477
677.739,120.34606666666674
680.303,105.289080952381
682.864,85.96904761904767
685.424,81.42892904761909
687.982,56.66449690476194
690.538,65.33754619047623
693.092,58.39609119047622
695.645,44.4546747619048
698.195,55.985092142857184
700.744,90.12583380952384
703.291,63.253612380952404
705.836,55.74515
708.38,20.78699809523809
710.921,2.7085795238095542
713.461,14.50620380952385
715.999,48.842918571428605
718.535,62.09629047619051
721.069,62.64403523809527
723.602,88.91142857142864
726.133,122.99084285714292
728.662,115.78417619047624
731.189,98.19342380952385
733.714,87.50168571428574
736.238,57.03976666666673
738.759,63.51942857142861
741.279,76.03367619047623
743.798,83.62818571428579
746.314,104.15770476190482
748.829,123.09658571428577
751.342,94.8715047619048
753.853,77.05232857142863
756.362,89.77995238095244
758.869,98.7198714285715
761.375,107.1560428571429
763.879,88.56349047619051
766.381,65.65518571428578
768.882,77.66821428571436
771.38,83.12504761904766
773.877,86.50110952380957
776.372,61.31932380952382
778.866,56.19799047619054
781.357,77.56493809523815
783.847,96.80053333333338
786.335,79.76139523809528
788.821,83.25665714285718
791.306,58.3812190476191
793.789,79.51569523809529
796.27,77.61235714285718
798.749,87.14732380952387
801.227,95.93023809523818
803.702,129.056161904762
806.176,142.62059047619059
808.649,176.52829523809532
811.119,170.0653761904763
813.588,142.70844285714293
816.055,99.17232857142861
818.521,62.50488571428574
820.984,43.89746190476198
823.446,78.68367619047628
825.906,120.19780952380962
828.365,157.4881857142858
830.821,150.936561904762
833.276,125.30551428571435
835.729,106.8344571428572
838.181,108.57168571428578
840.631,111.04230476190483
843.079,115.10449523809528
845.525,101.18796190476195
847.97,77.86519523809528
850.412,65.61393333333339
852.854,64.67345714285719
855.293,70.61652380952387
857.731,69.96840952380957
860.167,76.11151904761908
862.601,58.856852380952404
865.034,52.49171085714288
867.465,26.63671704761906
869.894,16.150624571428597
872.321,33.082666761904804
874.747,48.38702457142861
877.171,68.92251704761911
879.594,105.5482013333334
882.014,102.88481904761909
884.433,107.12454761904769
886.851,113.41220000000007
889.266,123.2734857142858
891.68,136.90093333333343
894.092,164.15374285714293
896.503,152.79547619047628
898.912,146.2090476190477
901.319,158.53933333333347
903.724,189.3120952380954
906.128,196.2916666666668
908.53,221.9084761904763
910.931,210.16476190476197
913.329,177.53880952380962
915.726,164.5562857142858
918.122,148.93346666666676
920.516,122.8630952380953
922.908,109.9661047619048
925.298,89.72117142857148
927.687,71.74939523809529
930.074,79.57654285714293
932.459,102.63336666666673
934.843,112.49347619047624
937.225,95.39704380952384
939.605,54.82239380952382
941.984,19.39063047619049
944.361,10.008468095238113
946.736,5.963835238095257
949.11,29.25870809523813
951.482,49.609500952380984
953.853,56.58964761904765
956.222,60.77255714285717
958.589,49.68399047619049
960.954,35.373500000000035
963.318,48.55720000000004
965.68,62.76081428571433
968.041,67.7480047619048
970.4,75.28241904761909
972.757,63.46093333333337
975.113,78.33283333333338
977.467,83.7091666666667
979.819,60.73425714285716
982.17,61.5998952380953
984.519,82.59326666666674
986.866,100.66770952380963
989.212,150.2056095238096
991.556,172.30326666666676
993.899,176.96152380952395
996.24,211.5143809523811
998.579,245.15314285714302
1000.92,257.78328571428585
1003.25,249.26285714285726
1005.59,214.25899047619055
1007.92,167.81965714285724
1010.25,136.51662857142864
1012.58,116.3023952380953
1014.91,108.6538476190477
1017.24,127.14217619047629
1019.56,122.7676190476191
1021.88,116.2443857142858
1024.2,128.28679047619056
1026.52,124.60919047619058
1028.84,124.83042857142868
1031.16,168.47409523809534
1033.48,172.73028571428583
1035.79,167.78919047619053
1038.1,183.79290476190488
1040.41,163.83657142857152
1042.72,158.87190476190491
1045.03,205.2794285714287
1047.33,239.96333333333348
1049.64,236.92304761904774
1051.94,217.15761904761914
1054.24,209.80923809523821
1056.54,194.35333333333347
1058.84,200.6461904761906
1061.13,207.44890476190488
1063.43,195.42728571428583
1065.72,170.77090476190492
1068.01,192.33576190476202
1070.3,224.31147619047638
1072.59,258.6017142857145
1074.87,263.0622857142859
1077.16,270.40695238095253
1079.44,260.3484761904764
1081.72,256.123904761905
1084.0,301.4466190476193
1086.28,369.791285714286
1088.56,475.0615714285718
1090.84,623.7802857142862
1093.11,733.9935714285718
1095.38,756.9380952380956
1097.65,701.2797619047622
1099.92,598.7313333333336
1102.19,473.24395238095263
1104.46,394.1973809523812
1106.72,378.2093809523812
1108.98,392.706904761905
1111.24,431.0700000000003
1113.5,520.8212857142861
1115.76,563.1972380952384
1118.02,589.1492380952385
1120.28,615.1043809523813
1122.53,614.9661904761908
1124.78,573.2096190476193
1127.03,520.0240952380955
1129.28,442.7890476190478
1131.53,360.4560000000002
1133.77,303.2139523809526
1136.02,268.9668095238097
1138.26,259.5225714285716
1140.5,249.21342857142875
1142.74,256.7525714285716
1144.98,279.71047619047636
1147.22,288.133523809524
1149.45,275.92600000000016
1151.69,261.8960000000002
1153.92,254.89957142857156
1156.15,234.17385714285726
1158.38,229.24198095238106
1160.61,187.2933095238096
1162.83,134.56543809523814
1165.06,91.15266761904766
1167.28,44.196924761904775
1169.5,36.36419714285719
1171.72,37.93979428571431
1173.94,50.4943733333334
1176.16,86.55132952380958
1178.37,103.1099628571429
1180.58,89.69360000000006
1182.8,89.06369047619052
1185.01,53.74369047619051
1187.22,34.35237142857146
1189.42,48.93710952380957
1191.63,59.40230952380957
1193.84,82.79523809523816
1196.04,95.97300476190482
1198.24,114.22129523809531
1200.44,95.49219523809529
1202.64,82.83321428571432
1204.84,79.625080952381
1207.03,76.20110952380956
1209.23,77.08526666666674
1211.42,96.13483809523812
1213.61,72.7305904761905
1215.8,71.15850476190481
1217.99,64.56113571428574
1220.18,53.65304285714289
1222.36,49.72001857142859
1224.55,29.190761428571438
1226.73,14.113058571428612
1228.91,44.629890952381
1231.09,71.31290380952387
1233.27,90.82895666666673
1235.44,103.03538761904767
1237.62,85.36100476190481
1239.79,82.13940476190483
1241.96,104.32284285714293
1244.13,117.81678571428576
1246.3,119.2404095238096
1248.47,133.11775238095245
1250.64,131.44926666666674
1252.8,118.04485238095245
1254.96,129.14279047619056
1257.13,137.74377619047627
1259.29,143.27622857142867
1261.44,141.07400476190483
1263.6,128.6613333333334
1265.76,120.37217142857152
1267.91,133.20684761904772
1270.06,184.1656380952382
1272.22,209.05849523809533
1274.37,199.9811904761906
1276.51,201.60080952380966
1278.66,191.2512857142858
1280.81,165.74257142857152
1282.95,165.21780952380962
1285.09,159.77319047619056
1287.23,172.2186190476192
1289.37,200.3639047619049
1291.51,214.9714285714287
1293.65,208.8514285714287
1295.78,204.52817142857154
1297.92,173.38331428571436
1300.05,142.46510476190485
1302.18,153.7263523809525
1304.31,169.16748571428582
1306.44,181.2178857142858
1308.57,221.87783809523822
1310.69,221.19552380952393
1312.82,213.5053333333335
1314.94,246.7123333333335
1317.06,229.72204761904777
1319.18,224.297142857143
1321.3,242.5805714285716
1323.41,274.7634761904764
1325.53,323.0850476190478
1327.64,372.7359523809526
1329.75,364.19342857142874
1331.87,363.69585714285745
1333.98,367.81509523809547
1336.08,390.40914285714314
1338.19,429.57385714285743
1340.3,428.54819047619065
1342.4,379.7136190476193
1344.5,332.11823809523827
1346.6,310.0009523809526
1348.7,283.74319047619065
1350.8,288.6311904761906
1352.9,259.38009523809535
1354.99,252.89538095238112
1357.09,267.7012857142859
1359.18,298.75114285714307
1361.27,325.0926190476192
1363.36,341.05976190476207
1365.45,353.7962380952383
1367.54,381.1601428571431
1369.62,428.6753809523812
1371.7,439.00952380952407
1373.79,473.972285714286
1375.87,477.70733333333357
1377.95,478.3107619047622
1380.03,453.68776190476217
1382.1,437.362523809524
1384.18,385.5738571428573
1386.25,374.6555714285716
1388.33,333.8940952380954
1390.4,307.81361904761917
1392.47,251.89085714285721
1394.54,222.93595238095253
1396.6,193.09233333333344
1398.67,205.6939047619049
1400.74,205.45557142857157
1402.8,221.2346666666668
1404.86,210.93652380952395
1406.92,215.5617142857144
1408.98,192.25328571428585
1411.04,190.488142857143
1413.09,196.3142380952382
1415.15,200.4463809523811
1417.2,204.59909523809534
1419.25,224.72571428571445
1421.3,231.3024285714287
1423.35,238.3773333333335
1425.4,254.9504761904763
1427.45,224.4035238095239
1429.49,189.45080952380965
1431.54,167.8552380952382
1433.58,160.85476190476203
1435.62,173.35438095238106
1437.66,193.40195238095248
1439.7,182.4264285714287
1441.74,194.66633333333345
1443.77,203.50280952380965
1445.81,207.17414285714298
1447.84,195.5374761904763
1449.87,195.0694761904763
1451.9,183.05576190476202
1453.93,183.83009523809534
1455.96,185.48780952380963
1457.98,193.40985714285725
1460.01,184.45352380952394
1462.03,223.47623809523824
1464.05,246.573142857143
1466.07,257.9346666666668
1468.09,247.3230476190477
1470.11,220.45190476190484
1472.13,205.2266666666668
1474.14,192.88509523809537
1476.16,195.99876190476206
1478.17,207.18638095238106
1480.18,197.78152380952395
1482.19,180.49797142857153
1484.2,160.00270952380956
1486.21,117.057180952381
1488.21,85.99457619047624
1490.22,78.71928571428577
1492.22,72.75517142857149
1494.22,100.67311428571435
1496.22,96.56826666666672
1498.22,98.67839523809528
1500.22,79.66982380952385
1502.22,67.6850285714286
1504.21,49.58077809523812
1506.21,36.45181380952382
1508.2,21.72636571428574
1510.19,30.64205285714288
1512.18,29.388844285714306
1514.17,22.10909952380954
1516.16,32.37366142857145
1518.14,40.6105428571429
1520.13,66.5334211428572
1522.11,71.99885757142859
1524.09,68.43479133333335
1526.07,43.88821528571432
1528.05,52.310796095238146
1530.03,63.46378328571433
1532.01,56.63221114285715
1533.98,50.95839904761909
1535.96,45.251112380952414
1537.93,44.36687523809529
1539.9,67.44788761904766
1541.87,82.16017333333338
1543.84,79.312680952381
1545.81,83.85726666666669
1547.78,59.03139047619051
1549.74,54.596285714285756
1551.7,70.78966190476196
1553.67,81.37279047619053
1555.63,93.15470476190481
1557.59,102.94432380952385
1559.55,85.07456666666671
1561.5,86.21144761904769
1563.46,84.54512857142862
1565.41,96.2654857142858
1567.37,106.27690000000007
1569.32,113.95977619047625
1571.27,107.31376190476198
1573.22,114.90965238095244
1575.17,88.65193809523817
1577.11,102.06402380952389
1579.06,106.0027047619048
1581.0,88.37227142857147
1582.95,73.64856190476195
1584.89,82.4500428571429
1586.83,79.4908333333334
1588.77,89.15150952380958
1590.7,102.43166666666671
1592.64,106.71201904761911
1594.58,105.0397904761905
1596.51,102.033661904762
1598.44,100.02660000000026
