Raman Shift,Processed Intensity
331.095,59.98014095238038
333.909,-20.949246428571797
336.721,-20.76766428571453
339.531,15.6370423809524
342.339,6.7571933333333245
345.145,-3.461275714285767
347.949,-52.92696000000005
350.751,-70.49880904761905
353.55,-37.74783047619047
356.348,-10.433404761904768
359.144,12.35383809523811
361.937,20.477985714285737
364.729,39.471809523809604
367.518,85.20318095238108
370.306,190.6849380952383
373.091,319.3606619047622
375.874,465.62784761904794
378.656,547.647666666667
381.435,498.44019047619065
384.212,365.836761904762
386.988,246.90847619047628
389.761,155.0616095238096
392.532,111.60843333333342
395.301,108.38655238095244
398.068,71.90170952380956
400.833,48.47085714285716
403.596,37.555009523809545
406.358,34.47368571428572
409.117,7.452533333333336
411.874,12.766100000000025
414.629,24.261585714285747
417.382,55.2158714285715
420.133,111.28840000000011
422.882,127.28190000000006
425.629,145.14338571428584
428.374,218.44007619047636
431.117,312.45447619047644
433.858,376.4694285714288
436.597,400.5312380952383
439.334,317.019761904762
442.069,232.50647619047632
444.802,213.13500000000016
447.533,220.04971428571446
450.262,265.2047619047621
452.989,299.65028571428587
455.714,304.00847619047636
458.438,287.8070000000001
461.159,246.28795238095245
463.878,193.36109523809534
466.595,182.5077142857144
469.31,179.9711904761906
472.024,187.56666666666678
474.735,207.728761904762
477.444,174.46404761904773
480.152,182.9698095238096
482.857,170.91952380952392
485.561,188.4159523809525
488.262,185.9901904761906
490.962,224.60180952380966
493.659,229.40157142857154
496.355,246.20673333333346
499.048,204.1202571428572
501.74,159.912561904762
504.43,132.97245714285725
507.118,145.3552761904763
509.804,193.4027809523811
512.488,242.17078095238105
515.17,291.71466666666686
517.85,271.9476666666668
520.528,268.1634285714287
523.204,218.75086666666675
525.878,182.718280952381
528.551,103.83531428571432
531.221,90.91905238095241
533.89,44.35836190476195
536.556,66.20864285714293
539.221,83.81060000000006
541.883,109.40996190476196
544.544,106.29975238095246
547.203,122.43907619047627
549.86,141.07345714285725
552.515,162.35273333333342
555.168,127.7594190476191
557.819,122.3479333333334
560.469,126.31486666666673
563.116,128.85650476190483
565.761,144.78865714285723
568.405,144.7359428571429
571.047,120.22732380952391
573.687,116.64913809523817
576.324,103.6727952380953
578.96,114.20755714285721
581.594,100.40072857142864
584.227,108.82765238095247
586.857,119.492080952381
589.485,124.87403809523815
592.112,100.59551428571433
594.737,100.9450285714286
597.359,65.54434285714291
599.98,73.25279047619054
602.599,66.167780952381
605.216,91.52924761904768
607.831,100.90979047619055
610.445,129.54865714285722
613.056,107.7801428571429
615.666,109.70009523809529
618.274,86.59435238095242
620.88,100.41507619047626
623.484,107.06660476190484
626.086,129.11968571428577
628.686,130.52571904761913
631.284,146.3788761904763
633.881,160.91557619047632
636.476,166.99112380952388
639.068,158.31809523809534
641.659,151.37002857142866
644.249,125.62040000000006
646.836,103.87593809523815
649.421,85.94299047619052
652.005,57.770557142857186
654.587,60.831523809523866
657.166,66.21708571428576
659.745,64.49463809523816
662.321,83.61260476190482
664.895,93.47132857142864
667.468,93.16148095238101
670.038,102.67847142857147
672.607,92.3507285714286
675.174,71.69690000000004
677.739,75.14080476190482
680.303,80.39131904761908
682.864,74.157480952381
685.424,61.38642857142859
687.982,63.40589523809528
690.538,73.40099809523815
693.092,74.74733142857147
695.645,72.82026285714288
698.195,64.04287333333336
700.744,68.74307714285722
703.291,99.53430285714293
705.836,129.8874171428572
708.38,88.32090952380955
710.921,42.59148095238096
713.461,0.3130666666666899
715.999,23.909195238095297
718.535,70.37510000000006
721.069,98.27750952380956
723.602,92.37375238095242
726.133,83.56417142857146
728.662,71.93966666666674
731.189,103.73404761904769
733.714,110.89589047619053
736.238,112.51672857142864
738.759,104.59272857142862
741.279,99.92961904761913
743.798,110.71469047619057
746.314,144.32546666666676
748.829,146.4732095238096
751.342,114.1551285714286
753.853,81.79687619047624
756.362,77.06240476190482
758.869,109.56830476190487
761.375,132.35991904761914
763.879,171.72092380952387
766.381,147.74445714285724
768.882,153.52394285714297
771.38,157.9626857142858
773.877,166.15425714285723
776.372,142.04995238095245
778.866,132.55328571428578
781.357,120.47238095238104
783.847,138.47279047619057
786.335,137.07793333333342
788.821,131.90639047619055
791.306,121.7194952380953
793.789,130.23114285714297
796.27,127.77437619047626
798.749,140.5872476190477
801.227,149.43165238095247
803.702,164.49821904761916
806.176,162.31082380952392
808.649,204.4890476190477
811.119,172.60493809523817
813.588,142.897380952381
816.055,113.0810190476191
818.521,87.20429047619052
820.984,69.45831428571438
823.446,118.74928095238104
825.906,127.93543333333342
828.365,160.44667142857156
830.821,163.71266666666676
833.276,135.82990476190486
835.729,149.32352380952392
838.181,179.9095238095239
840.631,186.20885714285725
843.079,192.6040476190477
845.525,175.52561904761913
847.97,133.784761904762
850.412,127.81195238095245
852.854,123.13271428571434
855.293,113.51142857142864
857.731,117.0452095238096
860.167,120.355580952381
862.601,109.63508571428578
865.034,85.98118571428576
867.465,77.72940000000006
869.894,79.35848571428578
872.321,87.15652380952385
874.747,79.41172857142863
877.171,98.07894285714293
879.594,113.06537142857152
882.014,132.23097142857154
884.433,166.95928095238105
886.851,168.39552380952392
889.266,183.49480952380964
891.68,215.49800000000013
894.092,217.64566666666678
896.503,201.60766666666674
898.912,209.43395238095246
901.319,181.79390476190488
903.724,193.07133333333348
906.128,186.79280952380964
908.53,189.91323809523823
910.931,179.7212380952382
913.329,191.17180952380963
915.726,179.22038095238105
918.122,168.91738095238105
920.516,137.45571428571435
922.908,144.55233333333342
925.298,141.44809523809533
927.687,147.19333333333344
930.074,170.2667276190477
932.459,133.194860952381
934.843,106.50408380952386
937.225,79.05407714285717
939.605,82.89513904761911
941.984,70.74391904761909
944.361,69.12654571428571
946.736,26.902683809523822
949.11,24.93193619047621
951.482,18.406913333333367
953.853,35.28224380952383
956.222,37.702907619047636
958.589,38.09948571428574
960.954,32.52156190476193
963.318,41.923357142857185
965.68,71.59230476190481
968.041,85.29191428571433
970.4,85.78566190476195
972.757,92.83697619047624
975.113,110.97083333333342
977.467,110.04571428571435
979.819,115.30088095238101
982.17,116.97536190476197
984.519,102.8797333333334
986.866,97.53891428571437
989.212,131.90582857142866
991.556,149.9812285714287
993.899,170.95628571428585
996.24,193.97438095238107
998.579,218.41704761904774
1000.92,232.3322380952382
1003.25,235.91061904761915
1005.59,231.67619047619056
1007.92,209.3912857142858
1010.25,175.10353333333342
1012.58,142.24167619047628
1014.91,132.99597142857152
1017.24,125.46165714285723
1019.56,137.78113333333343
1021.88,135.14498095238102
1024.2,126.88585714285722
1026.52,123.0991238095239
1028.84,148.64132380952393
1031.16,172.22625714285724
1033.48,184.80582857142866
1035.79,156.66519047619056
1038.1,146.2796666666668
1040.41,171.79176190476204
1042.72,221.7243333333335
1045.03,245.17171428571442
1047.33,246.56228571428582
1049.64,209.1803809523811
1051.94,204.7393333333335
1054.24,216.71471428571442
1056.54,236.91480952380968
1058.84,240.57671428571444
1061.13,255.65214285714296
1063.43,246.37747619047633
1065.72,227.22804761904774
1068.01,209.5839523809525
1070.3,214.3484285714287
1072.59,228.94890476190494
1074.87,269.81285714285735
1077.16,287.5576190476192
1079.44,281.89671428571444
1081.72,300.06680952380975
1084.0,347.16195238095264
1086.28,417.5613809523813
1088.56,556.0736190476194
1090.84,705.125428571429
1093.11,789.0492857142862
1095.38,802.6528571428576
1097.65,720.5063809523813
1099.92,616.7035714285718
1102.19,516.9577619047622
1104.46,445.8860952380955
1106.72,391.53509523809544
1108.98,386.5220952380955
1111.24,428.08376190476224
1113.5,545.0758571428574
1115.76,613.9255714285717
1118.02,652.6315714285718
1120.28,640.7639523809528
1122.53,604.178285714286
1124.78,541.6826666666669
1127.03,498.65671428571454
1129.28,426.9561904761907
1131.53,382.1513809523811
1133.77,354.6218571428573
1136.02,325.41347619047633
1138.26,303.8584761904764
1140.5,272.7652857142858
1142.74,253.9899047619049
1144.98,236.95947619047632
1147.22,258.1967142857144
1149.45,266.1286666666668
1151.69,280.18300000000016
1153.92,251.97761904761916
1156.15,226.273761904762
1158.38,181.59371428571438
1160.61,148.4128714285715
1162.83,112.63483333333339
1165.06,90.87782380952386
1167.28,72.14087142857146
1169.5,48.4233547619048
1171.72,43.914614285714315
1173.94,50.37596904761908
1176.16,47.99717142857146
1178.37,44.11087380952384
1180.58,48.09745238095241
1182.8,55.52775714285718
1185.01,48.63938571428574
1187.22,46.622395238095265
1189.42,39.14313333333335
1191.63,52.96322380952387
1193.84,65.41587619047625
1196.04,109.07230476190482
1198.24,124.40876380952386
1200.44,98.71107095238098
1202.64,61.97936571428575
1204.84,41.071057619047636
1207.03,35.605289523809574
1209.23,52.29684238095243
1211.42,76.52719714285718
1213.61,71.96355142857145
1215.8,51.225508571428584
1217.99,21.36130904761906
1220.18,2.2286071428571432
1222.36,18.54257000000004
1224.55,40.923054761904794
1226.73,52.22805380952384
1228.91,47.88698428571429
1231.09,21.805493333333335
1233.27,12.2226790476191
1235.44,39.615527619047654
1237.62,64.74696380952386
1239.79,85.90366952380957
1241.96,77.94377714285716
1244.13,35.20164952380954
1246.3,48.01152761904767
1248.47,52.85064952380958
1250.64,77.05352952380959
1252.8,105.43044857142863
1254.96,115.69676190476196
1257.13,96.99617619047626
1259.29,110.94860000000007
1261.44,117.65038095238103
1263.6,114.15016190476197
1265.76,119.9250238095239
1267.91,121.1662476190477
1270.06,134.49381904761916
1272.22,144.43274285714296
1274.37,152.7456476190477
1276.51,134.14761904761912
1278.66,125.59219047619055
1280.81,106.12747619047627
1282.95,116.56419047619056
1285.09,112.0463333333334
1287.23,129.76471428571438
1289.37,133.19642857142867
1291.51,133.3902380952382
1293.65,154.91828571428584
1295.78,161.82900000000006
1297.92,152.40918095238106
1300.05,137.18296666666672
1302.18,109.77021904761912
1304.31,106.36250952380962
1306.44,142.53193333333346
1308.57,165.18420476190488
1310.69,181.17737142857152
1312.82,200.27400000000011
1314.94,208.09371428571444
1317.06,205.446761904762
1319.18,199.47666666666674
1321.3,175.08909523809533
1323.41,164.42728571428586
1325.53,210.968523809524
1327.64,275.4754285714288
1329.75,316.04385714285735
1331.87,349.48414285714307
1333.98,358.98709523809543
1336.08,368.0294761904764
1338.19,373.8505714285716
1340.3,367.3554285714288
1342.4,321.97323809523823
1344.5,292.8001428571431
1346.6,280.0267142857145
1348.7,268.1778095238097
1350.8,260.01580952380965
1352.9,237.5887142857144
1354.99,220.8496666666668
1357.09,223.56095238095253
1359.18,240.2469523809525
1361.27,247.62276190476206
1363.36,279.212142857143
1365.45,301.53985714285733
1367.54,325.9874761904764
1369.62,355.84061904761927
1371.7,375.90966666666685
1373.79,402.0522380952384
1375.87,439.6020000000003
1377.95,447.08333333333354
1380.03,435.0204761904764
1382.1,407.36580952380973
1384.18,358.9769523809526
1386.25,308.4258095238097
1388.33,270.18928571428586
1390.4,226.55333333333348
1392.47,203.1849523809525
1394.54,179.46514285714295
1396.6,174.72757142857154
1398.67,158.06780952380961
1400.74,163.24833333333345
1402.8,163.88838095238106
1404.86,167.6545714285715
1406.92,174.30919047619062
1408.98,178.89995238095247
1411.04,173.09400000000008
1413.09,158.12966666666674
1415.15,145.57871428571437
1417.2,140.53619047619057
1419.25,139.81200000000013
1421.3,151.40604761904774
1423.35,164.79490476190486
1425.4,154.26390476190483
1427.45,136.24228571428577
1429.49,132.58709523809532
1431.54,127.107761904762
1433.58,148.89976190476202
1435.62,159.48695238095246
1437.66,156.2502380952382
1439.7,157.80885714285728
1441.74,169.11509523809534
1443.77,172.0735238095239
1445.81,169.8270476190477
1447.84,140.80409523809533
1449.87,135.52866666666677
1451.9,143.14338095238105
1453.93,145.64809523809532
1455.96,154.18561904761916
1457.98,164.4699523809525
1460.01,164.21547619047632
1462.03,188.51714285714297
1464.05,202.2796666666668
1466.07,196.5501904761906
1468.09,186.0902380952382
1470.11,165.9949523809525
1472.13,178.88342857142868
1474.14,171.85033333333342
1476.16,189.7052380952382
1478.17,192.9715238095239
1480.18,188.55327619047628
1482.19,147.30770476190486
1484.2,144.47227619047626
1486.21,89.18949523809529
1488.21,85.93538095238104
1490.22,89.9476190476191
1492.22,112.70170571428577
1494.22,89.86400095238098
1496.22,78.00524952380954
1498.22,31.315651428571446
1500.22,26.127978095238127
1502.22,34.39415809523813
1504.21,55.73257714285717
1506.21,54.04747809523813
1508.2,47.86204476190478
1510.19,30.461370476190496
1512.18,32.32095904761907
1514.17,24.34490761904764
1516.16,28.38964761904764
1518.14,36.40687904761907
1520.13,43.68155523809527
1522.11,54.7843685714286
1524.09,46.85738285714286
1526.07,36.09031523809526
1528.05,34.339543809523825
1530.03,22.270964285714303
1532.01,22.35999619047621
1533.98,38.27254904761907
1535.96,34.48408857142861
1537.93,46.99384904761908
1539.9,55.610637142857165
1541.87,48.3337285714286
1543.84,38.781495238095275
1545.81,53.95303333333337
1547.78,69.32405238095244
1549.74,70.27474285714291
1551.7,103.61400000000006
1553.67,111.34110952380956
1555.63,96.02686190476196
1557.59,96.00375238095242
1559.55,76.5569904761905
1561.5,60.5431333333334
1563.46,73.29481428571432
1565.41,74.0970428571429
1567.37,60.94923333333337
1569.32,67.04125714285716
1571.27,57.896338095238136
1573.22,69.60922380952385
1575.17,62.84585714285719
1577.11,84.84390952380959
1579.06,91.74540476190482
1581.0,123.74035714285723
1582.95,114.97112857142864
1584.89,118.9609714285715
1586.83,96.18554761904768
1588.77,88.59676190476198
1590.7,105.24164285714295
1592.64,149.45290476190488
1594.58,171.56344047619052
1596.51,180.3583333333334
1598.44,170.8370000000001
