Raman Shift,Processed Intensity
331.095,67.42906190476138
333.909,-63.883430952381175
336.721,-78.1228952380953
339.531,-29.3618476190476
342.339,-7.673690476190469
345.145,19.131304761904772
347.949,22.270019047619023
350.751,-1.3714476190476197
353.55,-18.951971428571444
356.348,-20.48487142857146
359.144,-64.83789047619051
361.937,-57.018899999999974
364.729,-16.55672857142851
367.518,50.45110476190487
370.306,175.48100952380975
373.091,312.1078000000002
375.874,428.90840952380984
378.656,489.60528571428597
381.435,454.06652380952397
384.212,341.3528285714287
386.988,230.66992380952388
389.761,148.36907619047628
392.532,104.9462571428572
395.301,81.75706666666673
398.068,85.96855238095245
400.833,113.4642533333334
403.596,110.70102000000006
406.358,79.47095904761905
409.117,40.04444666666668
411.874,21.83653047619051
414.629,24.216110476190522
417.382,45.07814380952385
420.133,80.12833809523815
422.882,98.35999047619059
425.629,169.95857619047635
428.374,265.25355238095256
431.117,326.0996857142859
433.858,352.3530000000002
436.597,351.39438095238114
439.334,306.4635714285716
442.069,255.70628571428588
444.802,259.9830000000002
447.533,258.6794761904764
450.262,289.03928571428594
452.989,329.30671428571446
455.714,350.1560000000002
458.438,324.69038095238113
461.159,309.29933333333344
463.878,237.7070000000001
466.595,192.0661904761906
469.31,181.10185714285726
472.024,195.06342857142872
474.735,214.62904761904778
477.444,235.3347142857144
480.152,224.33566666666678
482.857,229.5493809523811
485.561,246.7988095238097
488.262,278.0018095238097
490.962,307.98185714285734
493.659,277.80047619047633
496.355,243.8048095238097
499.048,212.34190476190489
501.74,220.0453809523811
504.43,209.97657142857153
507.118,206.67376190476202
509.804,194.15123809523823
512.488,240.04223809523828
515.17,290.7411904761907
517.85,331.26276190476204
520.528,279.9059523809525
523.204,239.68433333333343
525.878,185.65923809523818
528.551,161.27238095238107
531.221,149.7748571428572
533.89,143.46514285714295
536.556,126.83180952380961
539.221,132.55376190476198
541.883,146.16661904761915
544.544,157.2056666666668
547.203,166.34928571428583
549.86,180.9412857142858
552.515,172.32571428571438
555.168,146.7507142857144
557.819,160.1305238095239
560.469,162.95042857142866
563.116,175.1244761904763
565.761,197.946761904762
568.405,187.66352380952392
571.047,183.94880952380964
573.687,185.52391428571434
576.324,139.30017619047626
578.96,136.85525714285725
581.594,150.19472857142864
584.227,162.9430666666668
586.857,198.8664142857144
589.485,217.87381904761915
592.112,165.49276190476198
594.737,147.34528571428578
597.359,97.33897619047623
599.98,89.90461904761914
602.599,114.04392857142868
605.216,156.0440000000001
607.831,159.2385000000001
610.445,166.67514285714293
613.056,156.40142857142865
615.666,159.32090476190487
618.274,148.90890476190486
620.88,172.3540000000001
623.484,180.98738095238107
626.086,208.4253809523811
628.686,239.617142857143
631.284,283.6543333333335
633.881,312.05690476190495
636.476,341.915523809524
639.068,346.84433333333357
641.659,350.8379047619049
644.249,288.3666666666668
646.836,238.66309523809534
649.421,179.05419047619057
652.005,151.15219047619055
654.587,122.61683333333342
657.166,140.10738095238105
659.745,135.09245238095247
662.321,147.85022857142866
664.895,130.80133428571435
667.468,107.88987714285716
670.038,54.39347333333336
672.607,25.208232380952424
675.174,52.992320952381036
677.739,110.68941523809534
680.303,147.05301523809533
682.864,152.78879523809533
685.424,133.41186190476196
687.982,92.19934761904767
690.538,78.28556190476195
693.092,88.37596666666673
695.645,85.0340390476191
698.195,84.10876523809527
700.744,29.687311428571412
703.291,7.714463333333356
705.836,5.94444476190481
708.38,48.08415095238103
710.921,89.07923428571435
713.461,138.44659047619052
715.999,104.7038428571429
718.535,101.65461904761911
721.069,96.81662857142862
723.602,109.51812380952389
726.133,113.42032380952388
728.662,152.279961904762
731.189,121.85420952380957
733.714,100.4241333333334
736.238,106.03307619047628
738.759,135.53437142857152
741.279,176.73330476190492
743.798,206.05516190476197
746.314,186.63909523809534
748.829,148.72002380952387
751.342,123.58057142857149
753.853,102.07540476190485
756.362,147.96325714285723
758.869,151.57554285714295
761.375,167.9098476190477
763.879,150.297480952381
766.381,131.45075238095245
768.882,113.46347142857154
771.38,150.5719238095239
773.877,152.72738095238105
776.372,153.78595238095247
778.866,127.93690476190483
781.357,118.46514285714295
783.847,129.70352380952392
786.335,161.6992380952382
788.821,186.97569523809534
791.306,169.24700476190486
793.789,148.17953333333344
796.27,130.44009047619056
798.749,162.60062857142873
801.227,209.75667142857156
803.702,242.1945523809525
806.176,232.24838095238107
808.649,230.29985714285723
811.119,203.0641904761906
813.588,204.2089047619049
816.055,209.54480952380965
818.521,200.35861904761916
820.984,198.98557142857157
823.446,230.66490476190492
825.906,256.63652380952396
828.365,263.4256190476192
830.821,253.1295238095239
833.276,227.32138095238105
835.729,207.9559523809525
838.181,192.51100000000014
840.631,203.32252380952397
843.079,211.15409523809535
845.525,208.77042857142868
847.97,187.6975238095239
850.412,166.7475714285715
852.854,142.20861247619055
855.293,104.32158128571433
857.731,90.99340066666673
860.167,92.1798801428572
862.601,91.97835304761912
865.034,98.24924795238103
867.465,117.2810410476191
869.894,106.50519047619056
872.321,119.49614285714294
874.747,134.30476190476202
877.171,161.88593333333344
879.594,146.10029047619054
882.014,143.28405714285725
884.433,182.58337619047632
886.851,212.7156285714287
889.266,214.01748095238108
891.68,223.3966476190477
894.092,182.42809523809535
896.503,172.2100952380954
898.912,205.17452380952395
901.319,232.1339523809525
903.724,235.5203809523811
906.128,255.43223809523826
908.53,251.5870000000001
910.931,255.7499047619049
913.329,272.3052857142859
915.726,271.39904761904774
918.122,249.6060952380954
920.516,229.07257142857154
922.908,188.94427619047627
925.298,137.36718095238103
927.687,136.48732380952387
930.074,123.97425714285721
932.459,120.64088571428579
934.843,119.20460000000007
937.225,116.85890952380957
939.605,82.36856190476195
941.984,73.78420000000004
944.361,60.06103333333338
946.736,43.059000000000026
949.11,48.49526190476196
951.482,68.42015714285718
953.853,67.21733809523813
956.222,52.98458095238098
958.589,66.39132380952385
960.954,56.439923809523854
963.318,71.94215238095245
965.68,105.04321904761915
968.041,152.17431428571436
970.4,148.76602857142862
972.757,127.82072380952384
975.113,84.38784761904765
977.467,28.135833333333355
979.819,16.828580952381014
982.17,59.23009047619053
984.519,88.57964761904768
986.866,100.45046190476198
989.212,130.36788571428582
991.556,147.76176190476204
993.899,200.91923809523826
996.24,238.5083333333335
998.579,245.1964761904763
1000.92,231.2231238095239
1003.25,192.58915714285723
1005.59,144.4856857142858
1007.92,129.2945857142858
1010.25,110.87366666666674
1012.58,99.41402380952391
1014.91,130.53513333333342
1017.24,146.28510476190485
1019.56,153.90233333333342
1021.88,151.0540952380953
1024.2,150.31180952380961
1026.52,144.96157142857155
1028.84,147.28876190476203
1031.16,156.96028571428582
1033.48,176.11885714285725
1035.79,190.9549523809525
1038.1,219.51600000000016
1040.41,268.2780000000002
1042.72,304.240523809524
1045.03,322.21271428571447
1047.33,324.3368571428573
1049.64,278.23180952380966
1051.94,218.0872380952382
1054.24,193.47404761904775
1056.54,181.05838095238107
1058.84,173.9346666666668
1061.13,195.1971904761906
1063.43,207.46457142857153
1065.72,230.02114285714302
1068.01,245.58057142857157
1070.3,255.80852380952393
1072.59,253.89461904761922
1074.87,256.55190476190495
1077.16,265.06542857142875
1079.44,288.33857142857164
1081.72,295.65600000000023
1084.0,329.6351904761907
1086.28,359.89414285714304
1088.56,447.5745238095241
1090.84,559.0562380952385
1093.11,689.9091428571433
1095.38,738.9890952380956
1097.65,709.6753809523813
1099.92,587.5380952380956
1102.19,468.81428571428603
1104.46,409.16895238095265
1106.72,375.6958571428574
1108.98,385.06033333333363
1111.24,449.5464285714289
1113.5,509.6288095238099
1115.76,575.1631904761908
1118.02,636.433666666667
1120.28,658.2003809523814
1122.53,648.6046666666671
1124.78,640.7877142857146
1127.03,579.7483809523812
1129.28,536.1990000000003
1131.53,452.42395238095264
1133.77,379.6117619047621
1136.02,319.90371428571444
1138.26,286.4886190476192
1140.5,246.12728571428588
1142.74,253.91276190476205
1144.98,260.3674285714287
1147.22,267.91838095238114
1149.45,282.9923809523811
1151.69,276.87338095238107
1153.92,237.46509523809536
1156.15,206.09876190476203
1158.38,169.9159523809525
1160.61,167.29626666666675
1162.83,148.3806714285715
1165.06,129.73903809523816
1167.28,105.46541047619054
1169.5,72.08179142857145
1171.72,37.15836857142862
1173.94,52.07465619047623
1176.16,51.686311428571464
1178.37,63.89674857142862
1180.58,78.99030571428574
1182.8,52.441814285714315
1185.01,68.44058571428577
1187.22,70.41383333333336
1189.42,41.07464761904765
1191.63,45.27902857142861
1193.84,76.64497142857148
1196.04,77.07620952380958
1198.24,122.04794285714293
1200.44,132.70202857142866
1202.64,138.94252380952392
1204.84,158.0544285714287
1207.03,187.60838095238105
1209.23,179.88934285714296
1211.42,166.08699047619055
1213.61,123.29607142857147
1215.8,108.03978095238102
1217.99,83.50839047619053
1220.18,87.89191428571436
1222.36,114.8566095238096
1224.55,122.3068714285715
1226.73,113.1473190476191
1228.91,115.90121428571433
1231.09,110.13984761904771
1233.27,118.10151904761912
1235.44,139.0718476190477
1237.62,119.81247142857148
1239.79,125.84727619047626
1241.96,124.17619523809532
1244.13,151.1800857142858
1246.3,155.57390000000007
1248.47,149.54816190476194
1250.64,127.0075238095239
1252.8,146.8571904761906
1254.96,177.71638095238112
1257.13,218.3950952380954
1259.29,252.9890952380954
1261.44,260.2605714285716
1263.6,251.82866666666683
1265.76,235.93228571428583
1267.91,230.14314285714298
1270.06,217.41428571428585
1272.22,229.74628571428588
1274.37,229.04433333333347
1276.51,255.3567142857145
1278.66,269.8270476190478
1280.81,294.5035714285716
1282.95,298.6253333333335
1285.09,289.52619047619066
1287.23,255.34980952380965
1289.37,268.19228571428584
1291.51,266.53047619047635
1293.65,266.03171428571443
1295.78,236.79233333333346
1297.92,225.09900000000013
1300.05,203.42880952380966
1302.18,212.592142857143
1304.31,220.1614285714287
1306.44,231.23252380952397
1308.57,235.80671428571443
1310.69,268.78966666666685
1312.82,274.2777619047621
1314.94,263.5576666666668
1317.06,259.91619047619065
1319.18,264.2588095238097
1321.3,299.68247619047645
1323.41,358.42566666666687
1325.53,414.4900000000003
1327.64,476.68595238095264
1329.75,518.3004761904764
1331.87,547.1916190476194
1333.98,561.4083333333335
1336.08,555.1894285714288
1338.19,529.2506666666669
1340.3,499.4978095238098
1342.4,450.2655714285717
1344.5,424.0313809523812
1346.6,398.17719047619073
1348.7,403.84676190476216
1350.8,391.61309523809547
1352.9,359.9532380952383
1354.99,354.7255714285716
1357.09,348.64580952380976
1359.18,367.0008571428574
1361.27,397.2675714285716
1363.36,399.4000952380955
1365.45,383.9231904761907
1367.54,390.5521428571431
1369.62,375.907285714286
1371.7,415.7514761904764
1373.79,434.13338095238123
1375.87,466.4353333333336
1377.95,496.801285714286
1380.03,506.518285714286
1382.1,482.3015714285716
1384.18,463.62823809523826
1386.25,401.26138095238116
1388.33,362.77338095238116
1390.4,329.8797619047621
1392.47,310.34333333333353
1394.54,276.8793809523811
1396.6,241.48909523809536
1398.67,199.93523809523822
1400.74,170.59971428571438
1402.8,175.1978571428573
1404.86,180.34961904761917
1406.92,199.57947619047633
1408.98,212.6030952380954
1411.04,219.23057142857158
1413.09,214.7959523809525
1415.15,223.68104761904777
1417.2,212.9823809523811
1419.25,231.8429047619049
1421.3,237.54966666666678
1423.35,238.43652380952398
1425.4,230.55161904761917
1427.45,234.60995238095256
1429.49,245.13600000000017
1431.54,243.2256666666668
1433.58,226.593761904762
1435.62,202.57428571428582
1437.66,193.40576190476202
1439.7,213.66019047619062
1441.74,224.8617142857144
1443.77,215.82033333333342
1445.81,194.25066666666677
1447.84,181.58161904761917
1449.87,212.90880952380968
1451.9,244.80390476190493
1453.93,249.98152380952394
1455.96,245.2509047619049
1457.98,238.61276190476207
1460.01,238.3526190476192
1462.03,264.0420952380954
1464.05,283.5860000000002
1466.07,296.2223333333335
1468.09,306.42695238095257
1470.11,341.48604761904784
1472.13,367.30395238095264
1474.14,382.1660952380954
1476.16,361.50109523809544
1478.17,310.5939523809525
1480.18,250.63480952380968
1482.19,205.38538095238107
1484.2,181.36900000000009
1486.21,159.72799523809533
1488.21,119.22390000000006
1490.22,102.66553809523816
1492.22,104.14745238095244
1494.22,107.04970952380961
1496.22,99.84785714285718
1498.22,82.77914285714289
1500.22,51.50933333333337
1502.22,49.89477619047623
1504.21,50.64871904761908
1506.21,68.15097142857147
1508.2,56.781442857142885
1510.19,44.25330952380955
1512.18,36.56538095238098
1514.17,37.5259904761905
1516.16,43.37202857142861
1518.14,46.24516123809524
1520.13,20.28706528571429
1522.11,20.734673428571462
1524.09,31.96770947619051
1526.07,59.127878190476245
1528.05,88.02358909523814
1530.03,82.93944695238099
1532.01,58.30295238095242
1533.98,60.97021904761908
1535.96,63.463971428571476
1537.93,57.9737047619048
1539.9,84.68884761904768
1541.87,82.0846666666667
1543.84,73.39836190476196
1545.81,84.77180476190482
1547.78,94.48984285714289
1549.74,77.36108571428578
1551.7,114.43240476190483
1553.67,136.65515238095247
1555.63,141.69526666666675
1557.59,164.74217142857154
1559.55,167.2240476190477
1561.5,162.71152380952395
1563.46,173.87049523809534
1565.41,155.79532857142863
1567.37,142.86618095238103
1569.32,134.84433809523816
1571.27,126.20565714285725
1573.22,141.85404285714296
1575.17,168.0269714285715
1577.11,144.4856190476191
1579.06,155.3245333333334
1581.0,125.54334285714293
1582.95,143.80797142857153
1584.89,162.927561904762
1586.83,164.56832857142865
1588.77,147.44381904761914
1590.7,146.45851904761912
1592.64,100.56420000000008
1594.58,122.06979523809548
1596.51,154.99868095238125
1598.44,184.51704047619057
