Raman Shift,Processed Intensity
331.095,25.01656428571431
333.909,28.54060476190479
336.721,14.701969047619052
339.531,-7.0566095238095405
342.339,-34.53117142857144
345.145,-11.016799999999986
347.949,-20.66333523809529
350.751,-43.57066619047621
353.55,-42.598637142857186
356.348,-52.79536333333336
359.144,-56.01623333333334
361.937,-20.92393952380953
364.729,10.011522857142928
367.518,65.65579333333342
370.306,141.63842285714298
373.091,238.63877047619067
375.874,341.4331428571431
378.656,388.27614285714304
381.435,374.3772380952383
384.212,283.4708380952382
386.988,171.00770000000009
389.761,87.96414285714292
392.532,69.31790476190483
395.301,58.381914285714316
398.068,58.75671428571435
400.833,80.9964571428572
403.596,101.1806047619048
406.358,84.58057523809526
409.117,62.5644942857143
411.874,14.025631428571431
414.629,3.1443200000000306
417.382,15.483155238095295
420.133,78.79635619047627
422.882,126.5538180952382
425.629,170.2263380952382
428.374,196.85712380952396
431.117,257.44280952380973
433.858,305.7906666666669
436.597,352.42314285714303
439.334,326.05423809523825
442.069,277.6363809523811
444.802,210.69461904761917
447.533,197.27814285714302
450.262,257.770523809524
452.989,309.7938571428573
455.714,343.7325714285716
458.438,341.87666666666684
461.159,303.04074285714296
463.878,222.46779047619057
466.595,182.40164761904768
469.31,118.94370476190484
472.024,112.52895238095246
474.735,106.87858095238103
477.444,140.04747619047626
480.152,130.37616666666673
482.857,134.96774285714295
485.561,143.35366190476202
488.262,179.82805714285726
490.962,200.68471904761915
493.659,229.97978095238108
496.355,181.72172857142863
499.048,142.87179047619057
501.74,126.48603333333344
504.43,123.28764761904772
507.118,122.52339523809532
509.804,161.63065714285727
512.488,180.09438095238107
515.17,229.63771428571442
517.85,273.7930000000001
520.528,260.61638095238106
523.204,203.30681904761914
525.878,147.96798571428582
528.551,113.56047619047625
531.221,97.52112857142865
533.89,92.61968571428577
536.556,98.10208095238102
539.221,95.35690952380958
541.883,94.53434285714292
544.544,86.7844666666667
547.203,69.25717619047623
549.86,62.00689523809531
552.515,99.1829095238096
555.168,123.45825238095246
557.819,150.41032857142864
560.469,141.28325714285722
563.116,134.74933333333342
565.761,112.43261904761911
568.405,139.71880952380963
571.047,155.70800000000008
573.687,152.97595238095244
576.324,142.67000000000007
578.96,132.412780952381
581.594,92.82663809523817
584.227,110.4863238095239
586.857,126.48988571428579
589.485,136.3160857142858
592.112,140.4434476190477
594.737,114.49265238095244
597.359,77.75122857142863
599.98,83.60167142857148
602.599,82.7113666666667
605.216,86.08110952380957
607.831,71.56840000000001
610.445,36.41140952380954
613.056,24.848104761904814
615.666,46.92569523809529
618.274,85.0717476190477
620.88,100.85677619047624
623.484,103.80326190476195
626.086,86.38575238095243
628.686,96.98326190476197
631.284,123.07004761904773
633.881,152.54807142857152
636.476,166.27199523809534
639.068,164.95344761904767
641.659,126.82715714285723
644.249,126.3183142857144
646.836,141.80442380952388
649.421,135.2814057142858
652.005,114.88829619047624
654.587,75.2401923809524
657.166,38.28496095238099
659.745,35.06578761904767
662.321,54.911296190476236
664.895,79.7691247619048
667.468,77.9677523809524
670.038,56.83554285714288
672.607,46.510300000000015
675.174,23.748766666666683
677.739,26.783880952380997
680.303,62.18184285714291
682.864,82.36601904761909
685.424,70.85498809523811
687.982,53.02449523809525
690.538,18.39315000000001
693.092,3.2891666666666874
695.645,24.136040476190495
698.195,18.45265238095238
700.744,15.09125714285716
703.291,18.761428571428585
705.836,36.98232285714289
708.38,42.60661333333336
710.921,39.01092666666667
713.461,15.429210476190484
715.999,13.952669523809545
718.535,23.863175238095288
721.069,64.49043238095244
723.602,92.49760476190482
726.133,110.1191952380953
728.662,96.20907142857146
731.189,98.14524761904768
733.714,88.59125238095243
736.238,99.7824857142858
738.759,105.62099047619053
741.279,125.53260952380958
743.798,114.13397619047626
746.314,108.56572857142864
748.829,94.25403809523816
751.342,81.33971904761908
753.853,69.48743809523815
756.362,68.88578571428576
758.869,70.34254761904766
761.375,51.76075238095241
763.879,72.37712857142861
766.381,68.04726190476194
768.882,70.57936190476195
771.38,79.63882857142862
773.877,70.03410476190479
776.372,40.47846190476194
778.866,73.6378190476191
781.357,80.36835714285719
783.847,86.8598952380953
786.335,89.39754285714288
788.821,95.55214857142863
791.306,61.27574380952386
793.789,83.42518285714293
796.27,96.23820380952387
798.749,97.85765904761912
801.227,98.75946285714294
803.702,120.46769142857147
806.176,107.55376190476198
808.649,120.16066666666674
811.119,148.2890000000001
813.588,136.1770476190477
816.055,140.30139047619053
818.521,128.32927142857147
820.984,110.54682857142865
823.446,117.76420476190484
825.906,125.93479047619053
828.365,98.1067571428572
830.821,105.66217142857148
833.276,92.6018952380953
835.729,119.35567619047629
838.181,148.59097619047625
840.631,148.92812380952387
843.079,126.27294285714291
845.525,93.62673809523812
847.97,76.8004476190477
850.412,100.03360476190481
852.854,99.18464761904768
855.293,77.96959047619049
857.731,69.58027142857145
860.167,30.780214285714305
862.601,28.475747619047652
865.034,42.38293809523812
867.465,55.217819047619074
869.894,55.07737619047623
872.321,60.725328571428584
874.747,58.68748095238099
877.171,52.87038095238099
879.594,75.9425571428572
882.014,72.2394428571429
884.433,77.90589523809528
886.851,77.22958095238101
889.266,119.64145714285723
891.68,143.00052857142867
894.092,156.54712380952387
896.503,138.33126666666675
898.912,117.3072952380953
901.319,130.7154000000001
903.724,145.5580523809525
906.128,156.5039238095239
908.53,152.3652238095239
910.931,142.33460000000008
913.329,131.5572238095239
915.726,136.9400571428572
918.122,116.0094190476191
920.516,109.81500000000008
922.908,109.69294285714292
925.298,97.59781904761911
927.687,94.62750000000007
930.074,92.11753809523815
932.459,79.16565238095242
934.843,70.5835485714286
937.225,51.1357961904762
939.605,25.062830476190484
941.984,14.700440000000015
944.361,9.431969047619052
946.736,2.640773333333349
949.11,21.138786190476214
951.482,40.92842952380956
953.853,52.9168147619048
956.222,63.58251238095241
958.589,60.02305238095241
960.954,38.90735238095241
963.318,56.38072380952386
965.68,66.87374761904765
968.041,72.48377619047623
970.4,76.07003333333337
972.757,61.872590476190496
975.113,44.46477619047623
977.467,57.89621428571433
979.819,55.31129047619052
982.17,69.9497571428572
984.519,72.81308095238099
986.866,64.56940000000006
989.212,87.83892380952389
991.556,118.05167142857152
993.899,154.68461428571442
996.24,178.26260952380963
998.579,201.45323809523822
1000.92,190.16242857142868
1003.25,175.0573333333334
1005.59,152.4721714285715
1007.92,134.93089047619054
1010.25,95.71972857142863
1012.58,92.74381428571434
1014.91,91.05130000000007
1017.24,93.0232571428572
1019.56,92.75519047619053
1021.88,102.9612714285715
1024.2,102.92740476190482
1026.52,114.79645238095247
1028.84,141.37743333333344
1031.16,184.33716190476204
1033.48,204.91314285714296
1035.79,202.53366666666676
1038.1,224.53200000000015
1040.41,241.33609523809537
1042.72,261.08814285714305
1045.03,279.6449523809525
1047.33,278.5294285714287
1049.64,242.74119047619064
1051.94,239.66052380952394
1054.24,226.0481904761906
1056.54,225.57033333333345
1058.84,184.98780952380963
1061.13,182.6808571428573
1063.43,189.26761904761918
1065.72,189.46119047619058
1068.01,181.21290476190484
1070.3,191.14090476190484
1072.59,177.00590476190487
1074.87,184.2356190476192
1077.16,221.7334285714287
1079.44,237.11709523809537
1081.72,259.00457142857164
1084.0,299.7756666666669
1086.28,348.2860952380955
1088.56,440.82047619047654
1090.84,583.6154761904766
1093.11,686.0033809523813
1095.38,728.1733333333336
1097.65,685.1240000000003
1099.92,561.7110476190478
1102.19,445.69504761904784
1104.46,381.8841904761907
1106.72,344.8484285714288
1108.98,348.3484285714288
1111.24,384.0491904761908
1113.5,443.90223809523843
1115.76,504.09657142857174
1118.02,554.8212857142861
1120.28,579.2654285714289
1122.53,556.7136190476194
1124.78,509.3067619047622
1127.03,471.4250952380955
1129.28,411.9720476190478
1131.53,348.23166666666685
1133.77,320.67909523809544
1136.02,262.7895238095239
1138.26,239.60904761904777
1140.5,220.4699047619049
1142.74,208.1806190476192
1144.98,210.16828571428584
1147.22,233.67000000000013
1149.45,200.9705238095239
1151.69,220.7353809523811
1153.92,208.9632380952382
1156.15,202.8439047619049
1158.38,191.18595238095247
1160.61,163.22666666666674
1162.83,108.01290476190484
1165.06,114.11529523809531
1167.28,109.8660714285715
1169.5,115.97892857142864
1171.72,103.54831904761909
1173.94,64.43084285714289
1176.16,51.00712857142863
1178.37,67.80041428571434
1180.58,88.38154285714292
1182.8,105.75013809523814
1185.01,74.57254761904764
1187.22,41.65803809523811
1189.42,17.5779761904762
1191.63,13.617814285714326
1193.84,36.349042857142905
1196.04,77.20004761904767
1198.24,105.9805952380953
1200.44,113.928730952381
1202.64,78.37792857142861
1204.84,54.32835952380955
1207.03,36.87550000000003
1209.23,37.59090238095243
1211.42,73.28429047619052
1213.61,76.19404761904765
1215.8,82.60616476190481
1217.99,73.04471476190479
1220.18,55.0813485714286
1222.36,58.00218523809529
1224.55,67.0452866666667
1226.73,81.83014809523814
1228.91,83.35704571428575
1231.09,91.62620952380959
1233.27,82.82841428571433
1235.44,92.48780952380957
1237.62,92.46192380952388
1239.79,124.75073333333341
1241.96,111.8785095238096
1244.13,135.41719047619054
1246.3,127.17620000000007
1248.47,131.58474285714294
1250.64,125.88103809523818
1252.8,120.35089523809532
1254.96,135.6139523809525
1257.13,179.43247619047634
1259.29,200.71114285714302
1261.44,242.54580952380968
1263.6,245.03185714285726
1265.76,224.16971428571443
1267.91,211.81685714285726
1270.06,231.3541904761906
1272.22,218.3539047619049
1274.37,214.0539047619049
1276.51,198.07414285714296
1278.66,232.79547619047634
1280.81,232.45642857142872
1282.95,244.3429523809525
1285.09,244.07480952380965
1287.23,235.9372380952382
1289.37,215.12152380952398
1291.51,249.8656666666668
1293.65,252.45600000000013
1295.78,240.79780952380966
1297.92,221.89133333333345
1300.05,204.11761904761914
1302.18,197.620142857143
1304.31,209.30347619047632
1306.44,232.40633333333346
1308.57,241.88138095238108
1310.69,254.10966666666684
1312.82,273.94890476190494
1314.94,309.1137142857145
1317.06,299.9372380952383
1319.18,295.42019047619067
1321.3,289.1820952380955
1323.41,317.93738095238115
1325.53,370.2576666666669
1327.64,434.5720952380955
1329.75,459.78523809523836
1331.87,491.61176190476226
1333.98,550.6714761904766
1336.08,558.3930476190479
1338.19,556.9193333333336
1340.3,511.0131428571432
1342.4,446.0552380952384
1344.5,403.71261904761934
1346.6,402.50947619047645
1348.7,373.25557142857167
1350.8,383.5703809523812
1352.9,352.64461904761924
1354.99,330.81190476190494
1357.09,307.7865714285716
1359.18,327.9976666666669
1361.27,341.2072857142859
1363.36,359.89209523809546
1365.45,364.81414285714305
1367.54,388.5454285714288
1369.62,382.2760952380955
1371.7,410.29266666666695
1373.79,445.9284285714288
1375.87,451.51690476190504
1377.95,469.4396190476193
1380.03,492.50642857142884
1382.1,458.52676190476217
1384.18,426.3106190476193
1386.25,404.8107142857145
1388.33,351.45580952380976
1390.4,319.150761904762
1392.47,290.70533333333356
1394.54,261.9292380952383
1396.6,263.5846666666668
1398.67,274.196142857143
1400.74,255.47795238095253
1402.8,249.0491904761906
1404.86,220.81485714285728
1406.92,209.63223809523825
1408.98,199.07314285714298
1411.04,208.7094285714287
1413.09,202.44571428571442
1415.15,220.2348571428573
1417.2,219.83861904761918
1419.25,245.92409523809542
1421.3,260.34880952380973
1423.35,275.3510952380954
1425.4,281.74038095238114
1427.45,276.8977619047621
1429.49,254.77590476190494
1431.54,256.75609523809544
1433.58,273.93366666666685
1435.62,277.0230952380954
1437.66,285.64361904761915
1439.7,269.9856190476192
1441.74,272.2403809523811
1443.77,270.02676190476205
1445.81,267.1543809523811
1447.84,249.86152380952396
1449.87,242.57685714285728
1451.9,243.39552380952398
1453.93,263.36561904761925
1455.96,277.5347619047621
1457.98,273.9509523809526
1460.01,270.7570952380954
1462.03,265.9533333333335
1464.05,290.58742857142875
1466.07,300.183142857143
1468.09,320.93104761904783
1470.11,318.11709523809543
1472.13,318.4553333333335
1474.14,291.6606190476192
1476.16,277.35200000000015
1478.17,257.291142857143
1480.18,240.04976190476205
1482.19,219.05671428571446
1484.2,212.12138095238106
1486.21,181.57738095238105
1488.21,152.94819047619058
1490.22,151.70990476190485
1492.22,143.72014285714295
1494.22,145.9791047619048
1496.22,128.20093809523814
1498.22,116.38571904761912
1500.22,78.10459761904767
1502.22,68.45288571428576
1504.21,64.33556428571433
1506.21,61.514585714285744
1508.2,53.18026428571433
1510.19,64.57078571428573
1512.18,59.49576666666671
1514.17,72.43123333333337
1516.16,83.75813333333336
1518.14,77.66692380952385
1520.13,80.77666666666671
1522.11,72.32542857142862
1524.09,73.98009047619053
1526.07,85.93078095238101
1528.05,116.5587000000001
1530.03,131.19714571428577
1532.01,105.56050761904766
1533.98,88.553400952381
1535.96,65.93793523809526
1537.93,60.14258190476196
1539.9,77.97709809523813
1541.87,85.44149333333337
1543.84,52.012023809523846
1545.81,58.30784761904767
1547.78,80.51950000000008
1549.74,110.98036190476198
1551.7,149.02398095238104
1553.67,137.31723333333338
1555.63,116.43188571428578
1557.59,84.03478571428575
1559.55,81.60180000000005
1561.5,99.99035714285722
1563.46,121.81978571428577
1565.41,99.28083809523815
1567.37,111.27854761904767
1569.32,100.33688571428577
1571.27,110.07482380952388
1573.22,131.11176190476198
1575.17,129.63848571428576
1577.11,98.41711428571436
1579.06,103.06684761904769
1581.0,108.20699047619053
1582.95,107.12339523809531
1584.89,112.57806666666673
1586.83,110.14304285714292
1588.77,105.72293333333343
1590.7,118.08001428571437
1592.64,145.11941904761912
1594.58,153.07926428571432
1596.51,150.93591428571438
1598.44,137.1895190476193
