Raman Shift,Processed Intensity
331.095,-5.291883333333172
333.909,23.3180952380953
336.721,19.706909523809575
339.531,-1.6763238095238195
342.339,-17.24024761904764
345.145,-30.559347619047625
347.949,-30.91997619047619
350.751,-14.892433333333353
353.55,-17.56894761904764
356.348,-33.84939047619049
359.144,-41.7269619047619
361.937,-3.6213428571428246
364.729,15.47790952380957
367.518,68.39267619047631
370.306,179.08979523809543
373.091,306.91859047619073
375.874,428.08726190476216
378.656,512.1392380952383
381.435,469.7617619047621
384.212,344.69185238095247
386.988,210.19201904761908
389.761,95.14499523809528
392.532,34.62557619047624
395.301,28.186114285714332
398.068,61.856340000000046
400.833,56.048659047619076
403.596,64.50998685714288
406.358,52.893233047619056
409.117,25.09074990476191
411.874,0.9484136190476367
414.629,17.694305142857157
417.382,15.98620638095241
420.133,23.054397333333352
422.882,41.273200000000045
425.629,85.8273238095239
428.374,152.66433809523824
431.117,245.87572857142874
433.858,324.3630952380954
436.597,318.3626666666668
439.334,274.492142857143
442.069,223.98895238095253
444.802,188.2816190476192
447.533,192.22842857142874
450.262,252.11590476190491
452.989,291.8037142857144
455.714,324.8654761904764
458.438,299.30404761904776
461.159,263.40876190476206
463.878,219.18369523809534
466.595,168.06131428571436
469.31,126.61820000000007
472.024,125.85906666666675
474.735,94.50343809523817
477.444,104.74769523809533
480.152,149.93074285714295
482.857,153.05914285714294
485.561,171.4724761904763
488.262,192.93900000000008
490.962,169.75142857142868
493.659,180.91633333333345
496.355,194.20235238095248
499.048,149.42661428571435
501.74,126.26256190476195
504.43,101.0984333333334
507.118,96.6082761904763
509.804,153.60866190476204
512.488,220.91616190476208
515.17,260.49047619047633
517.85,268.5768095238097
520.528,227.42053333333342
523.204,168.3619238095239
525.878,111.88431428571434
528.551,74.99443333333339
531.221,64.1752428571429
533.89,81.7666790476191
536.556,78.63255523809528
539.221,71.77919619047623
541.883,62.02245428571432
544.544,60.98741047619054
547.203,85.82289333333341
549.86,118.9156171428572
552.515,115.65223809523818
555.168,121.37148095238103
557.819,117.74508571428579
560.469,119.58785238095246
563.116,152.23768571428582
565.761,149.7470047619048
568.405,115.07264761904769
571.047,102.123480952381
573.687,80.80808571428577
576.324,73.27353809523817
578.96,93.90385714285719
581.594,88.41678571428577
584.227,98.3391238095239
586.857,116.43578571428579
589.485,129.1853238095239
592.112,134.1141571428572
594.737,142.84350000000006
597.359,99.32760238095241
599.98,85.13960000000004
602.599,39.66210714285717
605.216,50.61035238095245
607.831,62.31885952380959
610.445,89.59813809523814
613.056,77.54392380952383
615.666,67.72809523809526
618.274,28.57942380952385
620.88,47.764476190476245
623.484,80.75941428571434
626.086,92.75414761904767
628.686,87.55753809523813
631.284,97.12100952380959
633.881,112.68183809523819
636.476,131.14322857142866
639.068,162.83721904761916
641.659,181.0956761904763
644.249,180.15480952380963
646.836,160.298080952381
649.421,132.09488571428577
652.005,70.8282904761905
654.587,31.876723809523845
657.166,32.19020000000005
659.745,63.86102380952385
662.321,61.17183809523812
664.895,51.119538095238106
667.468,40.12951904761908
670.038,31.34127142857146
672.607,45.513314285714344
675.174,82.68989523809529
677.739,94.7718714285715
680.303,116.94610476190485
682.864,133.30411428571435
685.424,118.6039333333334
687.982,104.07980000000005
690.538,78.34688571428575
693.092,54.06752380952385
695.645,55.80914952380956
698.195,35.37716142857145
700.744,33.19590380952384
703.291,43.02307190476193
705.836,46.330632380952416
708.38,58.781003333333366
710.921,56.94131047619048
713.461,33.807321904761935
715.999,44.85086761904766
718.535,58.30581714285719
721.069,74.92982761904769
723.602,100.2899752380953
726.133,93.2392428571429
728.662,86.53533809523815
731.189,84.07878571428576
733.714,75.72260952380958
736.238,68.79602857142861
738.759,66.91396190476195
741.279,69.02466666666675
743.798,97.21956666666675
746.314,136.54260952380963
748.829,143.32320000000007
751.342,142.60506666666674
753.853,121.28958095238102
756.362,113.65888571428579
758.869,113.47153809523817
761.375,126.20058571428578
763.879,96.98562380952384
766.381,77.06157619047623
768.882,75.997480952381
771.38,54.50482380952383
773.877,51.0572190476191
776.372,52.41415714285718
778.866,87.43083809523817
781.357,115.9623476190477
783.847,156.4830952380953
786.335,140.4200714285715
788.821,121.10535238095244
791.306,103.20421904761913
793.789,119.57318095238102
796.27,128.30630476190484
798.749,126.7362571428572
801.227,133.29095238095246
803.702,134.82719047619057
806.176,155.72557142857156
808.649,161.08171428571438
811.119,158.94314285714293
813.588,138.50061904761913
816.055,143.9921904761906
818.521,149.3709523809525
820.984,163.2088095238096
823.446,167.7450000000001
825.906,164.21833333333342
828.365,158.86780952380963
830.821,160.21823809523818
833.276,149.604380952381
835.729,151.40842857142866
838.181,155.6797142857144
840.631,153.89580952380965
843.079,147.6295714285715
845.525,137.8827333333334
847.97,106.657280952381
850.412,87.71722857142862
852.854,98.82625238095244
855.293,103.03412857142862
857.731,99.48567142857148
860.167,102.99272857142861
862.601,75.89099523809527
865.034,55.70672380952386
867.465,57.2515047619048
869.894,63.38517619047623
872.321,66.06260476190481
874.747,76.57205714285719
877.171,69.24949523809528
879.594,60.1451666666667
882.014,49.83312857142862
884.433,68.41157619047627
886.851,106.07345714285725
889.266,164.20266666666677
891.68,201.3256571428573
894.092,235.54040952380964
896.503,228.84985714285727
898.912,228.16171428571442
901.319,216.76457142857154
903.724,218.18504761904777
906.128,190.90219047619055
908.53,178.06152380952386
910.931,144.7612857142858
913.329,149.48033333333342
915.726,151.69780952380967
918.122,191.22580952380963
920.516,191.97190476190485
922.908,187.12940000000012
925.298,143.6533523809524
927.687,121.87956190476197
930.074,87.57274285714291
932.459,105.25940952380958
934.843,82.27529523809528
937.225,94.28960000000006
939.605,87.20948095238101
941.984,85.56094190476193
944.361,52.15600619047622
946.736,52.139783809523834
949.11,31.752497619047652
951.482,21.42462809523812
953.853,43.015570952381
956.222,61.71762619047624
958.589,75.86600761904769
960.954,103.79583476190483
963.318,114.31828476190482
965.68,102.00656190476198
968.041,117.24298095238103
970.4,101.93380476190481
972.757,89.36616190476195
975.113,70.5413523809524
977.467,51.651161904761956
979.819,61.458657142857206
982.17,78.63151428571433
984.519,95.12331904761913
986.866,131.26826666666676
989.212,170.16258095238106
991.556,199.23565714285726
993.899,219.10708571428583
996.24,219.25400000000013
998.579,228.96285714285727
1000.92,228.04357142857157
1003.25,226.97280952380964
1005.59,205.08447619047627
1007.92,158.23600000000008
1010.25,147.23734285714295
1012.58,136.7080095238096
1014.91,143.2196380952382
1017.24,134.72468095238102
1019.56,126.22322857142865
1021.88,95.33452857142863
1024.2,109.15364761904767
1026.52,96.01417619047626
1028.84,115.24942857142864
1031.16,112.24032380952389
1033.48,143.22455238095247
1035.79,154.01140952380962
1038.1,182.41017142857154
1040.41,192.46833333333348
1042.72,202.6615238095239
1045.03,195.7994285714287
1047.33,206.45271428571442
1049.64,209.2876190476192
1051.94,207.0659047619049
1054.24,201.31052380952394
1056.54,213.06852380952392
1058.84,192.10138095238108
1061.13,183.21804761904775
1063.43,201.56080952380967
1065.72,228.8909523809525
1068.01,244.92200000000014
1070.3,256.6530952380953
1072.59,223.13104761904773
1074.87,208.4981904761906
1077.16,196.75357142857158
1079.44,236.80142857142874
1081.72,282.2599047619049
1084.0,326.6995714285717
1086.28,398.30990476190505
1088.56,493.2804761904765
1090.84,610.1342857142862
1093.11,735.870428571429
1095.38,770.9164761904767
1097.65,726.1289047619051
1099.92,600.6968095238099
1102.19,485.4290000000003
1104.46,420.086285714286
1106.72,416.38200000000035
1108.98,436.22000000000037
1111.24,495.12323809523843
1113.5,531.7572380952384
1115.76,588.025666666667
1118.02,631.6417619047622
1120.28,658.5569047619052
1122.53,635.8653809523813
1124.78,602.9472380952384
1127.03,533.7063809523812
1129.28,444.5226190476193
1131.53,397.966285714286
1133.77,345.51252380952394
1136.02,288.0174761904764
1138.26,274.4325714285716
1140.5,267.13776190476204
1142.74,254.70395238095256
1144.98,270.65352380952396
1147.22,256.0810952380954
1149.45,256.6996666666669
1151.69,253.6039047619049
1153.92,238.64961904761913
1156.15,206.78871428571438
1158.38,180.40114285714293
1160.61,145.24810476190484
1162.83,131.99532380952388
1165.06,111.30888095238102
1167.28,92.37815714285718
1169.5,72.77386666666672
1171.72,67.01923809523815
1173.94,77.63724761904766
1176.16,68.19873809523814
1178.37,83.89357428571435
1180.58,71.48296476190478
1182.8,50.01396761904764
1185.01,35.00981142857145
1187.22,48.089024761904795
1189.42,41.63206952380957
1191.63,65.21000761904766
1193.84,58.06040476190479
1196.04,64.8019285714286
1198.24,52.67232380952384
1200.44,62.5283666666667
1202.64,73.3221047619048
1204.84,76.43417619047622
1207.03,61.34046190476194
1209.23,55.18352476190477
1211.42,21.772636666666674
1213.61,-0.7019885714285543
1215.8,28.902098571428606
1217.99,34.58477761904764
1220.18,45.34582619047623
1222.36,50.7564680952381
1224.55,38.86408476190478
1226.73,18.57325666666669
1228.91,40.74084000000003
1231.09,36.223985714285746
1233.27,46.16547619047623
1235.44,70.56505714285719
1237.62,71.51803809523814
1239.79,74.8338952380953
1241.96,96.84587142857147
1244.13,83.79218571428575
1246.3,82.52986666666673
1248.47,89.58271428571435
1250.64,96.28440000000008
1252.8,92.82528571428577
1254.96,120.25298095238102
1257.13,107.85343809523815
1259.29,94.67419047619052
1261.44,93.66808095238103
1263.6,105.45437142857149
1265.76,104.60438571428581
1267.91,133.64222857142866
1270.06,148.32980000000012
1272.22,149.09604761904774
1274.37,164.4652857142858
1276.51,177.77085714285724
1278.66,190.67990476190485
1280.81,198.95452380952395
1282.95,194.7852380952382
1285.09,185.17261904761915
1287.23,176.11695238095248
1289.37,177.76142857142867
1291.51,189.96361904761918
1293.65,206.1522380952382
1295.78,181.6135238095239
1297.92,177.1099238095239
1300.05,141.9749238095239
1302.18,123.78046666666675
1304.31,141.76498095238105
1306.44,169.3573238095239
1308.57,180.17716190476202
1310.69,206.08240000000012
1312.82,220.16819047619063
1314.94,226.86376190476207
1317.06,267.6936666666669
1319.18,298.27700000000016
1321.3,312.56690476190494
1323.41,310.4687142857145
1325.53,336.7443333333335
1327.64,316.39442857142876
1329.75,361.70557142857166
1331.87,384.1066666666669
1333.98,413.97928571428594
1336.08,398.27623809523834
1338.19,394.4263809523812
1340.3,359.00157142857165
1342.4,371.2885714285717
1344.5,360.5734285714288
1346.6,360.52333333333354
1348.7,319.80561904761925
1350.8,302.23014285714305
1352.9,292.7496666666669
1354.99,297.74595238095253
1357.09,317.7431428571431
1359.18,315.599142857143
1361.27,332.45742857142875
1363.36,361.93757142857163
1365.45,370.373285714286
1367.54,351.4794761904764
1369.62,375.0184285714288
1371.7,392.22876190476217
1373.79,433.0159523809527
1375.87,485.42804761904796
1377.95,490.17985714285743
1380.03,457.70061904761934
1382.1,438.65733333333355
1384.18,411.1932380952383
1386.25,371.0234285714288
1388.33,324.1959523809526
1390.4,272.9018095238097
1392.47,264.99871428571447
1394.54,255.96309523809535
1396.6,233.557142857143
1398.67,229.44833333333347
1400.74,217.63719047619063
1402.8,228.98114285714303
1404.86,248.57595238095251
1406.92,247.85047619047634
1408.98,233.99580952380967
1411.04,241.1553809523811
1413.09,251.0436190476192
1415.15,239.4227142857144
1417.2,215.19790476190485
1419.25,174.6551904761906
1421.3,158.17619047619058
1423.35,156.95161904761918
1425.4,174.98204761904773
1427.45,187.3627142857144
1429.49,197.52261904761914
1431.54,169.9858095238096
1433.58,153.08580952380962
1435.62,151.91814285714298
1437.66,181.76914285714298
1439.7,213.54347619047633
1441.74,214.4319047619049
1443.77,195.3394761904763
1445.81,188.98076190476203
1447.84,179.9749047619049
1449.87,188.56004761904774
1451.9,219.92709523809535
1453.93,207.0281904761906
1455.96,200.14933333333346
1457.98,206.90985714285722
1460.01,209.92857142857156
1462.03,216.96747619047633
1464.05,246.360142857143
1466.07,209.8684285714287
1468.09,212.06395238095251
1470.11,205.3751904761906
1472.13,210.37328571428583
1474.14,213.24857142857155
1476.16,206.76314285714295
1478.17,177.29761904761915
1480.18,176.7092380952382
1482.19,163.8550000000001
1484.2,148.02033333333344
1486.21,139.39535238095246
1488.21,117.98037619047628
1490.22,91.8699190476191
1492.22,115.3973638095239
1494.22,109.60987095238099
1496.22,90.1261228571429
1498.22,88.13601952380955
1500.22,83.68711333333339
1502.22,63.58849476190481
1504.21,86.55412571428575
1506.21,69.86919047619051
1508.2,48.58088095238099
1510.19,53.545714285714325
1512.18,62.62047142857146
1514.17,63.47127142857146
1516.16,55.335704761904786
1518.14,47.45138000000002
1520.13,28.103483809523816
1522.11,11.243890000000011
1524.09,14.348289523809546
1526.07,24.08281095238097
1528.05,37.87551142857146
1530.03,53.77357190476193
1532.01,65.06218952380956
1533.98,64.21708095238098
1535.96,66.14257619047623
1537.93,67.93343809523813
1539.9,69.01778571428575
1541.87,74.72845238095245
1543.84,101.68420476190482
1545.81,102.17029047619053
1547.78,109.04322380952388
1549.74,119.58864761904769
1551.7,120.42487619047625
1553.67,121.50400476190484
1555.63,122.2068047619048
1557.59,97.8661190476191
1559.55,86.909980952381
1561.5,60.19546190476194
1563.46,61.00752380952386
1565.41,73.44139047619053
1567.37,103.73459523809531
1569.32,116.55361428571435
1571.27,110.70764761904765
1573.22,87.4343571428572
1575.17,79.73349523809529
1577.11,75.55721904761911
1579.06,75.66692380952384
1581.0,95.53875714285722
1582.95,95.8865333333334
1584.89,119.90051904761913
1586.83,120.72327619047626
1588.77,109.83056190476196
1590.7,103.31745714285721
1592.64,119.85048571428577
1594.58,116.26262857142856
1596.51,98.55381428571428
1598.44,62.723892857142964
