Raman Shift,Processed Intensity
331.095,56.867952380952076
333.909,-5.622223809523895
336.721,-14.644016666666658
339.531,3.9266571428571604
342.339,6.856490476190479
345.145,5.055352380952362
347.949,-10.137351428571435
350.751,-8.857658571428574
353.55,-18.43120285714286
356.348,-8.70656523809524
359.144,10.706744761904769
361.937,-8.847468095238089
364.729,10.54724380952385
367.518,38.66542857142861
370.306,82.04466190476201
373.091,159.1756952380954
375.874,249.97932380952395
378.656,273.3298685714287
381.435,234.29317809523815
384.212,142.17441809523814
386.988,58.70851000000001
389.761,-0.9877304761904635
392.532,-19.89120761904761
395.301,-10.215749047619049
398.068,0.5877219047619153
400.833,3.4506423809523783
403.596,5.496184285714277
406.358,-21.960778571428595
409.117,-22.604113333333324
411.874,-9.640221904761884
414.629,18.440001904761925
417.382,28.004051428571437
420.133,19.896769523809525
422.882,7.7262228571428935
425.629,37.86315904761911
428.374,93.29885904761915
431.117,167.12032380952394
433.858,211.4159142857144
436.597,207.08451428571436
439.334,167.1211571428572
442.069,131.2832857142858
444.802,79.99640952380958
447.533,80.2574476190477
450.262,103.92201904761914
452.989,129.17945714285725
455.714,155.9340904761906
458.438,182.75755238095246
461.159,139.1269571428572
463.878,102.13879523809528
466.595,77.22385714285717
469.31,60.00344285714292
472.024,88.52828571428579
474.735,105.84960952380959
477.444,102.20929047619053
480.152,96.04016666666674
482.857,121.15674285714294
485.561,124.5162476190477
488.262,157.6477142857144
490.962,151.9857476190477
493.659,137.82150476190483
496.355,128.58987142857154
499.048,146.15451428571436
501.74,122.04557619047627
504.43,116.31733809523814
507.118,92.45298571428577
509.804,96.64994761904771
512.488,106.39155714285722
515.17,153.44702380952393
517.85,158.01373809523815
520.528,157.14670476190483
523.204,150.13862380952386
525.878,138.282561904762
528.551,138.25249047619056
531.221,140.62714761904766
533.89,108.79438571428577
536.556,101.28528095238099
539.221,93.63046190476196
541.883,90.59847142857151
544.544,111.81545238095245
547.203,121.38315238095245
549.86,141.5938000000001
552.515,143.88210952380962
555.168,141.8257238095239
557.819,159.28740476190484
560.469,136.46368095238103
563.116,159.2173285714287
565.761,171.12516666666673
568.405,139.7636095238096
571.047,114.47087142857148
573.687,133.39439047619055
576.324,108.01493333333342
578.96,109.76519047619054
581.594,121.2204952380953
584.227,96.9083190476191
586.857,98.40336190476201
589.485,151.23269047619056
592.112,142.82774761904767
594.737,137.2386714285715
597.359,144.563080952381
599.98,137.75539047619057
602.599,141.34122857142864
605.216,147.94109523809533
607.831,121.88962190476195
610.445,82.80674095238098
613.056,44.40755809523813
615.666,46.263735238095265
618.274,54.423143809523864
620.88,74.31435047619054
623.484,114.17521238095244
626.086,122.67191428571437
628.686,149.23209523809535
631.284,184.66385714285727
633.881,189.10900000000012
636.476,188.61333333333343
639.068,199.8419523809525
641.659,181.9358571428573
644.249,185.65440000000012
646.836,159.18537142857147
649.421,109.57390000000007
652.005,83.15009047619054
654.587,70.91104761904765
657.166,54.04399142857146
659.745,49.45004333333333
662.321,24.030260476190485
664.895,8.161792857142864
667.468,0.4597061904761931
670.038,-5.032523333333323
672.607,12.633256666666693
675.174,28.976494285714317
677.739,50.04035904761909
680.303,72.20126095238099
682.864,69.02600857142859
685.424,50.93846476190479
687.982,35.31486285714286
690.538,15.959960000000013
693.092,10.297541904761921
695.645,23.608513333333345
698.195,12.554728571428573
700.744,7.274280000000001
703.291,-8.47564380952381
705.836,3.9193028571428883
708.38,35.121196190476226
710.921,60.83973142857147
713.461,66.68945619047624
715.999,66.47547523809527
718.535,62.95527619047624
721.069,82.36273238095244
723.602,77.12226809523811
726.133,64.46784571428574
728.662,42.44307952380954
731.189,30.5202028571429
733.714,27.74289190476193
736.238,40.3932085714286
738.759,36.13419047619051
741.279,58.67655238095243
743.798,77.06450952380958
746.314,96.10426666666672
748.829,84.31641904761909
751.342,80.79313809523813
753.853,56.72190952380955
756.362,63.81413523809528
758.869,47.305209047619066
761.375,52.38288000000004
763.879,52.61624333333337
766.381,77.05053238095243
768.882,70.63596142857148
771.38,78.84659714285718
773.877,66.72831428571433
776.372,78.42184761904765
778.866,76.87797333333337
781.357,65.66652333333334
783.847,35.45277523809526
786.335,29.75933857142861
788.821,47.77565619047624
791.306,67.40525666666672
793.789,91.26634476190483
796.27,102.73920952380959
798.749,114.6323857142858
801.227,145.75533333333343
803.702,165.01207619047628
806.176,185.5929047619049
808.649,204.5452380952382
811.119,214.3930476190477
813.588,184.94542857142864
816.055,170.0602380952382
818.521,150.02314285714297
820.984,154.5011904761906
823.446,166.39960000000008
825.906,159.67124285714294
828.365,139.22124761904772
830.821,145.57453809523818
833.276,118.82712380952385
835.729,104.07518571428577
838.181,92.51030000000004
840.631,63.03810000000004
843.079,57.37400000000004
845.525,74.51934761904765
847.97,59.42780952380955
850.412,67.62458571428576
852.854,77.20635904761907
855.293,54.412773333333355
857.731,55.340470476190525
860.167,63.80078180952384
862.601,45.65260442857146
865.034,47.13576123809527
867.465,34.68067890476191
869.894,27.955900285714325
872.321,35.39171823809526
874.747,41.4664703809524
877.171,35.94406333333336
879.594,51.20748095238099
882.014,52.97317095238101
884.433,95.14791619047624
886.851,100.78162380952386
889.266,102.87646666666673
891.68,113.38725714285722
894.092,118.64962857142865
896.503,124.28456666666676
898.912,127.91354285714293
901.319,103.1579333333334
903.724,112.2582000000001
906.128,134.74102857142864
908.53,139.4658000000001
910.931,147.05380000000008
913.329,143.8408095238096
915.726,126.78147619047627
918.122,128.68795238095245
920.516,132.51538095238104
922.908,124.59912380952387
925.298,113.60862857142865
927.687,107.16517619047625
930.074,95.12846190476195
932.459,75.6915285714286
934.843,74.61876190476195
937.225,64.48376190476195
939.605,69.19384761904766
941.984,65.37054285714291
944.361,73.11132857142861
946.736,86.13302380952386
949.11,76.48565714285718
951.482,74.17142857142862
953.853,70.8593285714286
956.222,69.45647142857149
958.589,85.29830952380959
960.954,110.53005714285722
963.318,104.05857619047626
965.68,119.64779809523816
968.041,95.5856147619048
970.4,58.54078666666668
972.757,32.22964714285716
975.113,18.03510190476192
977.467,1.340003809523831
979.819,28.00336190476193
982.17,41.360344285714305
984.519,29.65080666666669
986.866,44.44787952380955
989.212,48.84842000000001
991.556,35.90163333333337
993.899,53.84709047619051
996.24,55.5433904761905
998.579,41.134728571428596
1000.92,33.289038095238105
1003.25,35.05511904761907
1005.59,33.57693714285717
1007.92,34.76030857142859
1010.25,39.32046952380954
1012.58,40.210652380952396
1014.91,21.526832857142878
1017.24,18.36489238095241
1019.56,51.48749761904767
1021.88,61.894912380952434
1024.2,97.5876014285715
1026.52,113.23247523809528
1028.84,104.78204761904767
1031.16,98.18883809523818
1033.48,139.59609523809533
1035.79,148.2892523809525
1038.1,171.5063238095239
1040.41,189.9612380952382
1042.72,181.12995238095246
1045.03,165.29809523809533
1047.33,163.03642857142864
1049.64,137.63023809523818
1051.94,112.69800000000006
1054.24,119.0485714285715
1056.54,122.39552380952391
1058.84,152.26214285714298
1061.13,182.0755714285715
1063.43,170.97816666666674
1065.72,157.35000000000008
1068.01,133.47583333333338
1070.3,126.925761904762
1072.59,140.79426190476198
1074.87,141.55614285714296
1077.16,130.73395238095247
1079.44,147.27880952380963
1081.72,160.90395238095252
1084.0,221.46471428571448
1086.28,290.1506190476193
1088.56,359.4840476190479
1090.84,452.9392380952384
1093.11,512.3720952380955
1095.38,528.066904761905
1097.65,493.35500000000025
1099.92,411.949523809524
1102.19,341.0869523809526
1104.46,284.9082857142859
1106.72,289.7929523809526
1108.98,314.21514285714306
1111.24,332.7921904761907
1113.5,360.7603809523812
1115.76,407.4038571428573
1118.02,399.9587619047622
1120.28,414.0424761904764
1122.53,379.510142857143
1124.78,337.9316190476193
1127.03,298.82842857142873
1129.28,273.8659523809525
1131.53,229.5658095238096
1133.77,196.25942857142869
1136.02,155.61166666666674
1138.26,132.1922380952382
1140.5,148.4274761904763
1142.74,169.6015238095239
1144.98,173.61728571428583
1147.22,198.85347619047627
1149.45,179.11809523809535
1151.69,164.2664285714287
1153.92,168.86810476190482
1156.15,147.4451714285715
1158.38,125.99594285714292
1160.61,102.23262380952384
1162.83,81.15370476190482
1165.06,74.09050952380957
1167.28,79.75573333333338
1169.5,74.19531904761908
1171.72,86.97891428571434
1173.94,82.29549047619054
1176.16,88.81025714285717
1178.37,63.37860476190479
1180.58,53.2371285714286
1182.8,34.86056190476193
1185.01,30.05683809523812
1187.22,25.681776190476203
1189.42,24.733957142857157
1191.63,27.164395238095267
1193.84,42.352783809523835
1196.04,35.67883380952382
1198.24,35.141381904761914
1200.44,30.97739476190478
1202.64,17.47155238095239
1204.84,7.194373333333335
1207.03,7.049853333333333
1209.23,7.465833809523835
1211.42,20.251316666666686
1213.61,36.072481428571436
1215.8,33.78617190476192
1217.99,17.96360952380953
1220.18,19.08087285714288
1222.36,19.756943809523825
1224.55,31.37311619047623
1226.73,60.214981904761956
1228.91,93.52110285714292
1231.09,80.95856619047622
1233.27,67.67068952380954
1235.44,54.896338571428615
1237.62,58.2076990476191
1239.79,64.79573761904767
1241.96,77.80426857142862
1244.13,92.09168095238101
1246.3,109.46840000000009
1248.47,117.26911428571435
1250.64,115.82854285714292
1252.8,110.76672857142866
1254.96,124.79935238095251
1257.13,191.11893809523824
1259.29,237.72658095238108
1261.44,250.7669523809525
1263.6,237.67071428571438
1265.76,215.39138095238107
1267.91,188.21690476190486
1270.06,161.38742857142867
1272.22,147.95209523809535
1274.37,139.38947619047627
1276.51,159.6542380952382
1278.66,171.65290476190486
1280.81,174.24504761904768
1282.95,155.33738095238104
1285.09,137.78938095238104
1287.23,130.69861904761913
1289.37,140.87719047619055
1291.51,139.18438095238102
1293.65,125.95592857142863
1295.78,130.33723809523818
1297.92,118.09283333333342
1300.05,129.31995238095246
1302.18,146.40230000000008
1304.31,146.77089523809533
1306.44,122.14245714285721
1308.57,127.75810476190485
1310.69,136.28669523809532
1312.82,147.2545142857144
1314.94,186.66432380952392
1317.06,210.37547619047632
1319.18,208.00976190476206
1321.3,219.8556666666668
1323.41,255.39133333333348
1325.53,282.47685714285734
1327.64,305.73390476190497
1329.75,329.2120000000002
1331.87,338.24733333333353
1333.98,339.4139047619049
1336.08,336.6184761904764
1338.19,314.3876190476192
1340.3,271.7712380952383
1342.4,253.19995238095254
1344.5,244.5809047619049
1346.6,237.5831904761906
1348.7,213.06580952380963
1350.8,175.65038095238106
1352.9,142.1005238095239
1354.99,134.70409523809533
1357.09,120.08228571428579
1359.18,141.37957142857152
1361.27,145.8838095238096
1363.36,153.50166666666678
1365.45,177.18685714285726
1367.54,197.84614285714298
1369.62,201.3382380952382
1371.7,203.9023333333334
1373.79,198.06409523809535
1375.87,215.3010952380954
1377.95,237.1859047619049
1380.03,241.38657142857156
1382.1,229.5232380952382
1384.18,190.50147619047632
1386.25,184.51252380952394
1388.33,193.41485714285724
1390.4,187.16116190476203
1392.47,158.32368571428577
1394.54,131.42672380952388
1396.6,96.51840476190483
1398.67,91.17030000000007
1400.74,69.95429523809527
1402.8,64.87013333333337
1404.86,42.63221428571431
1406.92,51.38302476190479
1408.98,38.64630333333335
1411.04,52.23101619047622
1413.09,48.61291095238099
1415.15,73.5054971428572
1417.2,88.38429857142864
1419.25,101.43891523809529
1421.3,88.19217619047625
1423.35,89.54760476190481
1425.4,94.50420000000007
1427.45,88.2985428571429
1429.49,89.92923809523816
1431.54,94.2996190476191
1433.58,96.78912857142862
1435.62,94.01517619047625
1437.66,110.11897619047625
1439.7,109.6699714285715
1441.74,129.38062380952388
1443.77,137.53468571428579
1445.81,133.0825428571429
1447.84,112.21260476190483
1449.87,93.25603809523817
1451.9,88.35342380952387
1453.93,107.12176190476198
1455.96,116.84449047619056
1457.98,134.376361904762
1460.01,139.0007238095239
1462.03,144.57204761904774
1464.05,156.89757142857152
1466.07,195.1176190476192
1468.09,229.75400000000013
1470.11,269.6610000000002
1472.13,278.78871428571443
1474.14,278.4673333333335
1476.16,271.0755714285716
1478.17,275.56323809523826
1480.18,239.7375238095239
1482.19,208.88114285714295
1484.2,169.75375238095245
1486.21,119.44778571428577
1488.21,89.3418952380953
1490.22,79.38596190476194
1492.22,61.72020952380957
1494.22,49.43721904761908
1496.22,65.8679190476191
1498.22,63.86710000000004
1500.22,65.76564761904766
1502.22,65.56116666666671
1504.21,71.10849523809527
1506.21,63.1672047619048
1508.2,60.87791904761907
1510.19,58.23843809523813
1512.18,71.0085047619048
1514.17,62.709854761904786
1516.16,54.86425714285717
1518.14,49.89832619047622
1520.13,46.238742857142896
1522.11,52.78841666666671
1524.09,78.40278095238098
1526.07,71.8420523809524
1528.05,35.1522619047619
1530.03,24.141423809523836
1532.01,23.379590476190497
1533.98,23.817800000000034
1535.96,40.93109523809527
1537.93,59.86124285714289
1539.9,57.13107142857148
1541.87,78.21583809523815
1543.84,86.35287142857148
1545.81,82.49384761904767
1547.78,76.87635238095243
1549.74,96.07116666666674
1551.7,114.93524285714292
1553.67,134.9917571428572
1555.63,124.4787190476191
1557.59,123.20555238095244
1559.55,116.64846190476197
1561.5,112.75960000000009
1563.46,148.206061904762
1565.41,159.1779428571429
1567.37,136.81866666666673
1569.32,136.84276190476197
1571.27,127.20290476190483
1573.22,118.89952380952391
1575.17,148.12367619047626
1577.11,141.20918095238102
1579.06,114.29976190476197
1581.0,116.4910476190477
1582.95,108.16480000000006
1584.89,109.94106666666676
1586.83,128.82027619047625
1588.77,133.1844571428572
1590.7,146.22504761904773
1592.64,160.56190476190483
1594.58,151.26769047619052
1596.51,140.0338333333334
1598.44,136.02800000000016
