Raman Shift,Processed Intensity
331.095,99.02046261904772
333.909,56.67419714285691
336.721,24.71108714285691
339.531,2.2555276190476192
342.339,0.47920047619046224
345.145,-14.659996190476196
347.949,-21.96499571428571
350.751,-13.713902857142864
353.55,3.2924428571428375
356.348,-22.26956190476191
359.144,-12.34146857142855
361.937,-0.10174952380951996
364.729,24.558186666666707
367.518,39.366582857142916
370.306,95.38643904761915
373.091,165.58689809523827
375.874,266.0807314285716
378.656,315.83938095238113
381.435,319.8352742857144
384.212,223.51761238095241
386.988,123.00391047619051
389.761,46.746263809523846
392.532,16.10244380952384
395.301,30.336474285714317
398.068,40.189390476190475
400.833,24.87966142857144
403.596,13.817499047619043
406.358,-10.87146619047621
409.117,-32.34602952380953
411.874,-32.763862380952396
414.629,-26.900412380952382
417.382,-7.672838095238085
420.133,12.336223809523817
422.882,11.735780952380967
425.629,29.897923809523853
428.374,68.86229047619057
431.117,137.09803333333343
433.858,182.40900952380963
436.597,223.8854857142858
439.334,187.09459047619052
442.069,161.9380857142858
444.802,138.07979047619057
447.533,144.89922857142867
450.262,164.20525714285725
452.989,214.71192380952394
455.714,211.70490476190488
458.438,203.3760000000001
461.159,167.7744857142858
463.878,120.37898571428576
466.595,78.00174285714291
469.31,57.741247619047655
472.024,54.83909523809528
474.735,63.109019047619114
477.444,101.50835238095246
480.152,124.08938571428578
482.857,158.2862285714287
485.561,165.2949571428572
488.262,162.07403809523817
490.962,155.772261904762
493.659,142.39631904761913
496.355,124.61935714285724
499.048,120.97232380952386
501.74,118.93824761904771
504.43,107.71510476190483
507.118,93.31004285714292
509.804,115.11171904761915
512.488,133.12752857142866
515.17,157.17454285714297
517.85,190.21248095238104
520.528,177.96357142857147
523.204,113.38774761904766
525.878,95.82640000000005
528.551,83.62006000000007
531.221,70.49067904761908
533.89,60.58860095238099
536.556,75.39739714285719
539.221,70.73400095238101
541.883,80.2248790476191
544.544,81.40053142857145
547.203,94.17296190476198
549.86,114.07275238095248
552.515,130.01098095238103
555.168,160.9943095238096
557.819,175.26710476190485
560.469,147.12107142857155
563.116,153.18102857142864
565.761,130.78600476190485
568.405,106.56015238095249
571.047,135.93747142857154
573.687,177.16077142857156
576.324,185.2820761904763
578.96,190.92474285714295
581.594,147.14045238095244
584.227,113.55176190476197
586.857,119.4957857142858
589.485,133.11834285714295
592.112,111.94589047619054
594.737,118.31459047619055
597.359,112.3693714285715
599.98,128.96897142857154
602.599,171.9723333333334
605.216,166.9046428571429
607.831,136.3857047619048
610.445,112.89271428571432
613.056,73.4259571428572
615.666,79.65194285714293
618.274,107.04662380952387
620.88,119.4191380952382
623.484,135.2923476190477
626.086,152.76031428571437
628.686,161.250142857143
631.284,196.04609523809538
633.881,229.76514285714302
636.476,245.6908095238096
639.068,247.58233333333348
641.659,227.532342857143
644.249,195.82343333333344
646.836,137.5478928571429
649.421,77.84510476190479
652.005,26.42566428571431
654.587,21.80946666666669
657.166,23.183350000000026
659.745,40.30490666666668
662.321,22.074682857142864
664.895,27.964522857142885
667.468,39.96992000000003
670.038,47.943422857142885
672.607,38.49942380952382
675.174,29.25223142857143
677.739,10.62566095238098
680.303,18.99586857142861
682.864,65.26277619047626
685.424,84.99294952380957
687.982,78.03866761904766
690.538,54.20459142857145
693.092,36.53348761904763
695.645,6.115818095238109
698.195,10.184906666666677
700.744,19.68838476190478
703.291,24.669225714285723
705.836,16.551415714285728
708.38,28.90187904761906
710.921,26.001938571428596
713.461,45.799632380952424
715.999,47.671665238095244
718.535,52.328255238095274
721.069,38.38446190476192
723.602,34.74117619047622
726.133,20.87087142857145
728.662,51.341358190476214
731.189,41.101567000000024
733.714,40.67198923809525
736.238,23.00182871428572
738.759,16.802271142857155
741.279,5.689478428571463
743.798,44.612864857142895
746.314,65.66513523809527
748.829,70.51042380952386
751.342,74.67008095238101
753.853,100.80855047619055
756.362,89.20932666666671
758.869,86.53684761904766
761.375,55.3607580952381
763.879,26.155399047619078
766.381,16.299980000000033
768.882,34.79293428571431
771.38,53.96629904761909
773.877,73.9137085714286
776.372,74.72917142857146
778.866,66.12584761904765
781.357,55.86457142857146
783.847,48.56341904761909
786.335,73.55517142857147
788.821,89.12453809523815
791.306,91.55660476190482
793.789,100.89856190476198
796.27,111.29284761904769
798.749,121.21511428571436
801.227,151.85569523809534
803.702,156.88089523809532
806.176,184.33823809523824
808.649,206.6090000000001
811.119,201.83597142857155
813.588,165.5430190476191
816.055,134.30180000000007
818.521,110.25555238095248
820.984,128.6428000000001
823.446,145.0354000000001
825.906,148.19582857142862
828.365,133.69619047619054
830.821,128.67971428571434
833.276,116.00457142857148
835.729,114.24286666666673
838.181,109.3001047619048
840.631,100.03463809523815
843.079,97.11407619047625
845.525,96.01549523809527
847.97,57.740119047619075
850.412,62.38420952380957
852.854,49.09190476190479
855.293,51.912095238095276
857.731,66.4651047619048
860.167,66.46657619047622
862.601,44.06074761904765
865.034,62.534814285714326
867.465,67.84255238095243
869.894,84.17598095238102
872.321,100.01278571428577
874.747,98.44978571428575
877.171,79.39337619047622
879.594,63.654842857142896
882.014,61.95004285714291
884.433,66.32837142857149
886.851,95.83896190476199
889.266,122.19797142857152
891.68,163.7882761904763
894.092,169.32566666666676
896.503,166.28847619047627
898.912,131.96409047619053
901.319,106.02087619047623
903.724,83.46068095238103
906.128,109.76174285714295
908.53,124.44953809523818
910.931,146.5264000000001
913.329,164.374761904762
915.726,149.13941904761916
918.122,123.34590000000007
920.516,112.13899047619054
922.908,91.04469047619054
925.298,114.35042857142867
927.687,148.2961190476191
930.074,151.83600761904768
932.459,105.49577428571432
934.843,82.84854857142861
937.225,66.6106828571429
939.605,71.8790247619048
941.984,75.84603142857146
944.361,79.32292666666669
946.736,47.025780952381
949.11,61.47994761904767
951.482,69.83001904761907
953.853,48.55385714285717
956.222,56.36744761904767
958.589,57.74841428571432
960.954,64.84130476190484
963.318,97.74256666666672
965.68,111.26334285714292
968.041,98.5001571428572
970.4,100.59730952380954
972.757,81.07980952380957
975.113,71.80624571428575
977.467,53.11098380952384
979.819,46.75732190476192
982.17,30.651069523809532
984.519,8.793358571428579
986.866,-1.3861771428571181
989.212,42.01845285714291
991.556,67.81764761904768
993.899,116.67912714285723
996.24,133.98473238095244
998.579,113.925880952381
1000.92,77.17016666666672
1003.25,75.19479523809527
1005.59,52.714776190476236
1007.92,65.54040476190481
1010.25,82.7676952380953
1012.58,111.39758095238103
1014.91,129.81153809523818
1017.24,123.58158571428577
1019.56,98.51806666666673
1021.88,92.0500714285715
1024.2,100.32085714285722
1026.52,139.140661904762
1028.84,170.6528857142858
1031.16,186.76257142857153
1033.48,191.7561904761906
1035.79,177.6339047619049
1038.1,174.9674285714287
1040.41,196.90014285714298
1042.72,210.6229047619049
1045.03,220.13576190476203
1047.33,212.7725238095239
1049.64,168.9138095238096
1051.94,134.70295238095244
1054.24,126.23542857142864
1056.54,132.13038095238105
1058.84,149.29230476190486
1061.13,145.38818571428578
1063.43,130.13194285714292
1065.72,122.28576666666675
1068.01,113.08770476190485
1070.3,123.06128095238104
1072.59,143.77749523809533
1074.87,148.71271428571438
1077.16,174.1046666666668
1079.44,196.47695238095253
1081.72,208.30528571428584
1084.0,221.16076190476207
1086.28,267.75723809523834
1088.56,362.8087619047622
1090.84,470.5053809523813
1093.11,537.7035714285718
1095.38,560.9266190476193
1097.65,496.8408571428575
1099.92,420.63580952380977
1102.19,377.1680476190478
1104.46,324.1037619047621
1106.72,315.2512857142859
1108.98,319.89604761904775
1111.24,327.98947619047635
1113.5,371.7211904761907
1115.76,413.6140476190478
1118.02,422.143523809524
1120.28,418.7367619047621
1122.53,372.1077142857145
1124.78,331.7310000000002
1127.03,305.79619047619065
1129.28,267.3497142857144
1131.53,241.20033333333342
1133.77,201.10833333333343
1136.02,157.0727142857144
1138.26,137.33009523809534
1140.5,141.06971428571438
1142.74,157.67128571428583
1144.98,178.22866666666678
1147.22,190.31180952380964
1149.45,168.87138095238106
1151.69,158.9062285714287
1153.92,139.4145857142858
1156.15,138.7758095238096
1158.38,116.75006190476196
1160.61,86.81214285714289
1162.83,55.483866666666714
1165.06,52.478071428571454
1167.28,35.60225714285718
1169.5,52.1403285714286
1171.72,46.85239047619051
1173.94,49.26031428571433
1176.16,70.36221904761909
1178.37,82.29906380952383
1180.58,59.78318523809525
1182.8,41.146037142857146
1185.01,24.76669761904764
1187.22,15.405167619047639
1189.42,17.82149380952383
1191.63,26.013857142857155
1193.84,21.26618952380954
1196.04,29.529111428571454
1198.24,34.22948285714287
1200.44,38.365633333333356
1202.64,39.935916190476206
1204.84,31.034011428571443
1207.03,38.84888476190479
1209.23,51.66477428571431
1211.42,40.33741571428573
1213.61,40.81784952380954
1215.8,29.247666190476192
1217.99,12.911395238095265
1220.18,27.331740476190497
1222.36,34.79338571428573
1224.55,39.62877619047622
1226.73,52.646623809523845
1228.91,63.51290000000004
1231.09,47.560352380952395
1233.27,47.59808095238097
1235.44,26.816261904761923
1237.62,35.214619047619095
1239.79,53.60276666666671
1241.96,75.12360952380956
1244.13,87.72981428571435
1246.3,113.42190000000006
1248.47,125.00971428571435
1250.64,130.87465238095243
1252.8,131.11289523809532
1254.96,135.72538095238104
1257.13,169.0942380952382
1259.29,186.8872857142858
1261.44,220.62938095238107
1263.6,217.55980952380963
1265.76,206.25138095238106
1267.91,203.22961904761917
1270.06,195.7818095238096
1272.22,186.95738095238107
1274.37,199.66297142857152
1276.51,167.1384714285715
1278.66,146.67151428571438
1280.81,142.69257619047627
1282.95,136.251561904762
1285.09,142.39823333333342
1287.23,169.8491142857144
1289.37,167.6064761904763
1291.51,180.3395523809525
1293.65,167.3838190476191
1295.78,140.17063809523816
1297.92,94.55939047619052
1300.05,87.07646666666673
1302.18,101.20053333333341
1304.31,113.98209047619054
1306.44,118.13815238095245
1308.57,137.43310000000008
1310.69,153.4887142857144
1312.82,173.21250000000012
1314.94,187.41666666666677
1317.06,188.81861904761917
1319.18,196.32561904761917
1321.3,222.51195238095255
1323.41,249.95190476190493
1325.53,267.50500000000017
1327.64,291.3648571428574
1329.75,315.2009523809526
1331.87,319.1583809523811
1333.98,317.2402857142859
1336.08,307.8781904761906
1338.19,294.83628571428585
1340.3,276.7367142857144
1342.4,248.2486190476192
1344.5,203.37423809523818
1346.6,167.68771428571435
1348.7,161.42985714285726
1350.8,167.03157142857157
1352.9,155.7810000000001
1354.99,153.9188095238096
1357.09,129.30414285714295
1359.18,138.5584761904763
1361.27,157.73157142857153
1363.36,178.30180952380962
1365.45,196.93809523809534
1367.54,196.0230476190477
1369.62,161.0825238095239
1371.7,170.11828571428583
1373.79,180.3699047619049
1375.87,208.45842857142873
1377.95,243.86157142857155
1380.03,253.05652380952392
1382.1,231.473761904762
1384.18,218.3524285714287
1386.25,183.12214285714296
1388.33,158.1175238095239
1390.4,150.38677428571435
1392.47,123.16890523809529
1394.54,82.70276761904766
1396.6,69.36971857142862
1398.67,61.55118190476196
1400.74,52.81871952380958
1402.8,89.55358380952386
1404.86,91.80332666666672
1406.92,67.94871000000003
1408.98,42.465677142857174
1411.04,34.49666142857144
1413.09,20.088681904761955
1415.15,55.4318671428572
1417.2,95.76319333333338
1419.25,115.41504761904767
1421.3,108.95777619047624
1423.35,89.0092190476191
1425.4,89.13948095238102
1427.45,96.68060000000006
1429.49,109.58326190476197
1431.54,112.51249523809531
1433.58,118.75239047619054
1435.62,106.87250476190484
1437.66,105.06136666666671
1439.7,88.98370000000006
1441.74,91.87531904761912
1443.77,87.82946666666672
1445.81,86.17738095238101
1447.84,99.48823809523816
1449.87,99.2358333333334
1451.9,98.75110952380959
1453.93,100.22202380952386
1455.96,97.74154285714292
1457.98,103.73585714285723
1460.01,130.20241904761914
1462.03,161.13850476190487
1464.05,185.9702666666668
1466.07,185.40928571428583
1468.09,200.07214285714298
1470.11,225.05185714285727
1472.13,245.583523809524
1474.14,272.5218571428573
1476.16,268.5311904761906
1478.17,242.13271428571443
1480.18,207.37161904761916
1482.19,171.86466666666678
1484.2,148.3230380952382
1486.21,130.93522857142864
1488.21,101.07988571428575
1490.22,79.46917619047625
1492.22,62.14851428571432
1494.22,58.06813428571432
1496.22,46.368510476190494
1498.22,32.61927809523811
1500.22,30.627951428571457
1502.22,32.86891142857146
1504.21,37.245172380952404
1506.21,38.945520000000016
1508.2,40.539814285714314
1510.19,19.836119047619057
1512.18,31.642588571428593
1514.17,23.386550476190486
1516.16,34.92400285714288
1518.14,32.49198000000002
1520.13,45.18478095238096
1522.11,31.66827142857144
1524.09,23.227448571428575
1526.07,14.861652380952407
1528.05,29.570336190476205
1530.03,29.11493619047621
1532.01,30.78075619047621
1533.98,39.18651047619049
1535.96,28.04621619047621
1537.93,25.97870857142859
1539.9,35.12666000000002
1541.87,34.72810857142859
1543.84,42.5924828571429
1545.81,62.52929238095241
1547.78,66.82428571428576
1549.74,67.71564285714291
1551.7,89.53656666666673
1553.67,91.62089047619054
1555.63,112.9685857142858
1557.59,139.48473809523819
1559.55,142.31238095238103
1561.5,129.45178095238103
1563.46,130.7601714285715
1565.41,105.3335571428572
1567.37,107.83861904761913
1569.32,111.32362380952385
1571.27,103.26523809523815
1573.22,105.33057619047626
1575.17,122.42472380952387
1577.11,122.9292000000001
1579.06,134.12986666666674
1581.0,139.21819047619056
1582.95,121.14702380952387
1584.89,123.86947619047628
1586.83,122.57659523809531
1588.77,129.88795238095247
1590.7,131.18473809523817
1592.64,139.8491333333334
1594.58,117.66714523809537
1596.51,84.83028095238114
1598.44,46.67272380952426
