Raman Shift,Processed Intensity
331.095,75.12266428571422
333.909,22.653583333333216
336.721,-3.864366666666754
339.531,-11.974352380952382
342.339,-17.196047619047608
345.145,11.213190476190483
347.949,10.640113333333328
350.751,9.139094285714291
353.55,12.194098095238072
356.348,-21.75752571428574
359.144,-46.420076190476195
361.937,-27.6872638095238
364.729,-2.6894409523809166
367.518,38.396151428571486
370.306,103.48906380952391
373.091,175.03369714285728
375.874,268.09520952380973
378.656,327.54900000000015
381.435,308.2241761904763
384.212,220.04599780952384
386.988,111.70312709523812
389.761,36.02822561904766
392.532,21.093670523809553
395.301,21.82974085714287
398.068,8.644181380952384
400.833,11.565144476190476
403.596,-7.949421904761913
406.358,-21.345122857142865
409.117,-20.018660952380955
411.874,-2.2702238095237917
414.629,31.553533333333377
417.382,43.39299047619049
420.133,41.237342857142885
422.882,37.743519047619095
425.629,72.47435714285724
428.374,138.51775238095252
431.117,215.05774761904775
433.858,228.7081523809525
436.597,214.9408095238096
439.334,181.799761904762
442.069,148.56790476190486
444.802,139.91014285714294
447.533,153.15857142857152
450.262,169.74157142857152
452.989,195.32661904761915
455.714,216.91480952380965
458.438,208.2222666666668
461.159,176.58461428571437
463.878,130.95695238095243
466.595,94.58078571428578
469.31,112.36513333333342
472.024,128.02855238095248
474.735,157.43318095238104
477.444,151.20319047619054
480.152,128.15376190476198
482.857,125.86218095238105
485.561,147.43002857142866
488.262,140.5781476190477
490.962,167.45634285714294
493.659,131.92852857142861
496.355,101.90686666666674
499.048,101.63651904761913
501.74,143.2680571428573
504.43,165.7612904761906
507.118,207.21950476190486
509.804,188.36461904761916
512.488,171.06157142857154
515.17,163.46085714285726
517.85,182.28514285714297
520.528,188.6848380952382
523.204,173.66783809523818
525.878,141.4323428571429
528.551,130.366561904762
531.221,120.43069523809531
533.89,121.34667619047629
536.556,116.16954761904766
539.221,92.04920952380957
541.883,81.80238571428578
544.544,88.81667619047624
547.203,91.47994285714292
549.86,99.70328571428576
552.515,85.4455190476191
555.168,93.90331428571437
557.819,138.65391904761915
560.469,160.84557142857153
563.116,186.8650380952382
565.761,175.28871428571435
568.405,159.21666666666675
571.047,123.27276190476198
573.687,148.50866666666678
576.324,167.0234285714287
578.96,182.10719047619057
581.594,169.76314285714295
584.227,144.04176190476198
586.857,117.75585714285725
589.485,136.43133333333344
592.112,155.4512857142858
594.737,168.2468095238096
597.359,179.05718095238103
599.98,150.64553809523818
602.599,146.77498095238101
605.216,134.8745095238096
607.831,123.94455238095246
610.445,129.36644285714294
613.056,135.42537142857148
615.666,134.78776190476202
618.274,153.21433333333346
620.88,156.9424761904763
623.484,150.827761904762
626.086,171.86847619047631
628.686,196.91995238095254
631.284,241.4563809523811
633.881,284.47514285714306
636.476,303.21233333333345
639.068,287.950523809524
641.659,258.1627142857144
644.249,207.46504761904774
646.836,158.75894285714296
649.421,127.08833333333341
652.005,85.68789523809527
654.587,53.601319047619064
657.166,37.25330000000003
659.745,26.068742857142894
662.321,39.0913190476191
664.895,71.26933333333336
667.468,53.598785714285725
670.038,23.599471428571437
672.607,14.695890476190494
675.174,27.836438095238144
677.739,48.68371904761909
680.303,78.75737142857147
682.864,101.05369047619052
685.424,109.90186666666673
687.982,97.86935238095244
690.538,85.47612380952384
693.092,64.28965809523814
695.645,39.16319619047622
698.195,30.902744761904795
700.744,51.361599047619066
703.291,29.20275904761905
705.836,9.041743809523826
708.38,21.494139047619072
710.921,23.604142857142897
713.461,45.08290952380959
715.999,97.21305238095243
718.535,116.46734285714292
721.069,112.27163333333338
723.602,100.95638571428573
726.133,65.56641904761908
728.662,47.1944047619048
731.189,46.79006666666671
733.714,59.49338285714289
736.238,51.68306619047621
738.759,38.54708000000002
741.279,32.51160523809527
743.798,51.860127619047674
746.314,72.54261857142862
748.829,93.93780666666672
751.342,90.8530571428572
753.853,81.90525714285718
756.362,73.42569047619051
758.869,70.88860952380956
761.375,84.38730000000005
763.879,81.77689047619052
766.381,76.24603333333337
768.882,65.65008571428574
771.38,68.84433333333338
773.877,65.06530000000005
776.372,78.26393809523813
778.866,83.34309047619053
781.357,80.63486190476195
783.847,96.13773809523818
786.335,115.46926666666671
788.821,99.91392857142861
791.306,91.13724285714291
793.789,97.61374761904767
796.27,93.580861904762
798.749,128.41825238095248
801.227,154.64856190476198
803.702,156.65195238095248
806.176,198.1420000000001
808.649,230.78404761904775
811.119,219.8634761904763
813.588,200.28414285714294
816.055,186.42619047619058
818.521,162.33700000000013
820.984,179.8732380952382
823.446,191.605761904762
825.906,178.15323809523818
828.365,158.61057142857155
830.821,173.0726000000001
833.276,156.63452857142866
835.729,146.05834285714295
838.181,144.96299523809532
840.631,149.49122857142865
843.079,129.5955333333334
845.525,128.79984761904768
847.97,110.29513809523817
850.412,110.27202857142863
852.854,116.01665238095245
855.293,118.81521904761911
857.731,105.28725714285719
860.167,69.76682380952384
862.601,58.49281428571434
865.034,71.79901142857148
867.465,52.972213809523836
869.894,52.29883238095243
872.321,67.3038528571429
874.747,69.65498000000008
877.171,86.59150904761911
879.594,132.11445428571437
882.014,135.27294761904773
884.433,162.5444000000001
886.851,179.35895238095245
889.266,186.4324285714287
891.68,173.24257142857152
894.092,169.50500000000008
896.503,161.26928571428581
898.912,170.01300000000012
901.319,167.97638095238105
903.724,187.06580952380963
906.128,190.99771428571438
908.53,182.2501904761906
910.931,172.82542857142863
913.329,161.43933333333342
915.726,148.95128571428583
918.122,152.2203333333334
920.516,145.34423809523815
922.908,146.13442857142866
925.298,148.73642857142866
927.687,126.24733333333342
930.074,125.14547619047626
932.459,115.67161904761912
934.843,102.01819047619057
937.225,118.56855238095245
939.605,132.42056190476197
941.984,108.8621095238096
944.361,100.94327142857148
946.736,86.66663333333338
949.11,90.12943333333342
951.482,113.2866714285715
953.853,136.80752857142866
956.222,148.69426666666672
958.589,126.3303666666667
960.954,95.86101904761911
963.318,89.52690952380958
965.68,82.13978095238102
968.041,91.98794761904769
970.4,95.4545285714286
972.757,78.8753428571429
975.113,75.30025238095243
977.467,67.11274761904767
979.819,76.41038571428577
982.17,76.14770952380954
984.519,42.18414285714286
986.866,24.664795238095255
989.212,25.54425714285717
991.556,31.01523333333339
993.899,71.98475238095243
996.24,110.40709047619053
998.579,96.37970952380957
1000.92,87.76177142857146
1003.25,86.12660952380956
1005.59,66.28568095238099
1007.92,67.28834761904767
1010.25,68.42200000000003
1012.58,55.974038095238136
1014.91,65.041180952381
1017.24,69.76765714285717
1019.56,64.10729523809528
1021.88,86.72769047619055
1024.2,95.91589047619055
1026.52,129.33955714285725
1028.84,165.71365714285722
1031.16,179.89638095238107
1033.48,198.7456666666668
1035.79,195.7857142857144
1038.1,201.54100000000014
1040.41,221.91666666666677
1042.72,228.6748571428573
1045.03,226.2923333333335
1047.33,202.91214285714295
1049.64,153.72500000000008
1051.94,129.1115238095239
1054.24,131.07157142857153
1056.54,164.12909523809537
1058.84,202.99805714285725
1061.13,193.24965238095245
1063.43,167.69325714285722
1065.72,149.32801428571437
1068.01,131.29649523809533
1070.3,132.1699380952382
1072.59,156.2332476190477
1074.87,143.5330476190477
1077.16,173.06885714285727
1079.44,207.50609523809536
1081.72,204.93966666666682
1084.0,233.70200000000017
1086.28,302.3635714285717
1088.56,400.9704761904765
1090.84,531.0457142857147
1093.11,595.2545714285718
1095.38,579.9771904761907
1097.65,528.4026190476193
1099.92,436.4818095238097
1102.19,372.16600000000017
1104.46,305.21566666666683
1106.72,293.5817619047621
1108.98,294.3580476190478
1111.24,320.3048571428573
1113.5,363.1348571428574
1115.76,408.2277142857145
1118.02,429.4864285714288
1120.28,458.14752380952405
1122.53,441.8758095238098
1124.78,402.1936190476192
1127.03,360.9086666666668
1129.28,307.11428571428587
1131.53,251.76109523809535
1133.77,200.2282380952382
1136.02,182.8470000000001
1138.26,164.0444285714287
1140.5,191.58038095238112
1142.74,228.40552380952394
1144.98,216.99404761904773
1147.22,227.34400000000014
1149.45,229.31052380952391
1151.69,217.5586666666668
1153.92,215.32433333333344
1156.15,191.46276190476198
1158.38,139.97183809523818
1160.61,118.8971952380953
1162.83,104.9034476190477
1165.06,105.79850476190482
1167.28,113.05629523809532
1169.5,105.29402380952388
1171.72,96.3192952380953
1173.94,95.98707619047627
1176.16,117.15263809523816
1178.37,118.76652380952386
1180.58,106.20755714285715
1182.8,83.14060476190478
1185.01,63.61129238095242
1187.22,49.71280904761908
1189.42,43.44349428571431
1191.63,33.134724285714306
1193.84,42.64176571428577
1196.04,60.581861428571486
1198.24,88.85793047619053
1200.44,86.84918571428574
1202.64,72.69671904761907
1204.84,51.065500000000036
1207.03,58.04912380952384
1209.23,61.78892857142861
1211.42,52.378677142857164
1213.61,34.245605714285716
1215.8,4.912259047619042
1217.99,-8.241577142857123
1220.18,13.83071619047623
1222.36,40.03300571428576
1224.55,69.65034380952386
1226.73,85.72970000000002
1228.91,80.41346666666672
1231.09,71.84409047619052
1233.27,79.64057619047625
1235.44,71.61218095238101
1237.62,92.99712857142865
1239.79,91.7002571428572
1241.96,97.86465714285721
1244.13,113.06226666666676
1246.3,132.15070476190482
1248.47,137.13047142857152
1250.64,143.66887619047625
1252.8,155.67161904761915
1254.96,170.90152380952395
1257.13,214.7403809523811
1259.29,256.61785714285736
1261.44,287.5829523809525
1263.6,284.16052380952397
1265.76,292.3519523809525
1267.91,274.49190476190495
1270.06,259.29619047619065
1272.22,238.05209523809535
1274.37,209.76161904761915
1276.51,188.14057142857155
1278.66,177.76214285714298
1280.81,212.29466666666684
1282.95,239.07357142857157
1285.09,235.05309523809535
1287.23,214.04480952380965
1289.37,182.95571428571438
1291.51,148.83533333333344
1293.65,137.25742857142865
1295.78,143.74804761904772
1297.92,147.02385714285722
1300.05,154.6580952380953
1302.18,147.17733333333342
1304.31,151.2502857142858
1306.44,141.87980952380963
1308.57,173.592142857143
1310.69,207.62752380952395
1312.82,218.7977142857144
1314.94,221.43885714285727
1317.06,221.7439047619049
1319.18,226.1916666666668
1321.3,257.0230476190478
1323.41,294.76395238095256
1325.53,332.60747619047635
1327.64,352.50857142857166
1329.75,357.4222857142859
1331.87,372.4460476190478
1333.98,371.96385714285736
1336.08,358.31109523809545
1338.19,349.2049523809526
1340.3,309.1715714285716
1342.4,267.16600000000017
1344.5,246.57128571428586
1346.6,234.96180952380968
1348.7,219.196761904762
1350.8,202.89776190476204
1352.9,186.25757142857154
1354.99,166.46890476190487
1357.09,167.10542857142872
1359.18,203.3124761904763
1361.27,219.7587142857144
1363.36,217.44652380952394
1365.45,208.7589047619049
1367.54,194.8884761904763
1369.62,189.69409523809537
1371.7,221.46371428571442
1373.79,248.86538095238112
1375.87,259.6158095238097
1377.95,258.6212857142858
1380.03,235.83585714285726
1382.1,205.73738095238107
1384.18,213.13690476190493
1386.25,201.98814285714298
1388.33,187.72138095238108
1390.4,172.3378095238096
1392.47,151.02886666666674
1394.54,130.4627714285715
1396.6,131.8305428571429
1398.67,110.51458095238102
1400.74,95.13466666666672
1402.8,91.5486571428572
1404.86,84.995180952381
1406.92,83.76078095238101
1408.98,80.22644285714291
1411.04,93.77375238095244
1413.09,96.11707142857148
1415.15,108.73263809523814
1417.2,105.47753809523816
1419.25,101.54246190476196
1421.3,99.64113333333343
1423.35,116.1543952380953
1425.4,148.3198000000001
1427.45,151.08886190476196
1429.49,130.8892571428572
1431.54,106.29179047619054
1433.58,89.00937619047625
1435.62,47.61232380952385
1437.66,64.1471285714286
1439.7,47.564438095238124
1441.74,42.053195238095284
1443.77,55.754723809523846
1445.81,75.90524761904766
1447.84,81.50271428571436
1449.87,97.02164761904768
1451.9,97.55506666666673
1453.93,105.1009714285715
1455.96,96.22851428571434
1457.98,114.31640000000009
1460.01,133.36225714285723
1462.03,156.98304761904774
1464.05,176.65228571428582
1466.07,189.4630000000001
1468.09,188.5078095238096
1470.11,215.26023809523826
1472.13,260.0989047619049
1474.14,275.59285714285727
1476.16,276.3584285714287
1478.17,257.0120000000001
1480.18,203.97947619047628
1482.19,169.16310476190486
1484.2,163.2271190476191
1486.21,106.97867619047626
1488.21,79.55813333333339
1490.22,60.867490476190504
1492.22,40.57100476190479
1494.22,22.428245238095265
1496.22,47.00840952380957
1498.22,59.3566547619048
1500.22,74.56594000000005
1502.22,71.9197804761905
1504.21,51.74939619047619
1506.21,9.243206190476204
1508.2,-2.076786190476187
1510.19,0.02546047619049041
1512.18,4.738657142857151
1514.17,16.442046190476205
1516.16,21.848336190476203
1518.14,27.194058952380963
1520.13,18.38255014285715
1522.11,12.983892666666671
1524.09,14.33016319047621
1526.07,18.372571238095247
1528.05,20.824331571428583
1530.03,20.589206095238104
1532.01,12.142458095238105
1533.98,26.53088809523813
1535.96,36.84898095238096
1537.93,40.286546666666695
1539.9,41.652521904761926
1541.87,37.136837142857175
1543.84,51.07254476190482
1545.81,82.2210685714286
1547.78,74.24874761904766
1549.74,84.15552857142862
1551.7,96.94097142857149
1553.67,105.55747142857152
1555.63,128.67182857142865
1557.59,141.522380952381
1559.55,127.5850952380953
1561.5,137.38419047619055
1563.46,148.8244095238096
1565.41,127.9537428571429
1567.37,110.10562857142862
1569.32,96.75701904761911
1571.27,83.62239047619055
1573.22,99.32140952380962
1575.17,123.18798095238103
1577.11,119.74610476190482
1579.06,112.80591428571435
1581.0,106.65373333333339
1582.95,112.05241904761914
1584.89,124.33597142857151
1586.83,131.8860095238096
1588.77,136.94105714285723
1590.7,135.88314285714293
1592.64,133.0460476190477
1594.58,141.40704761904766
1596.51,139.01454761904765
1598.44,114.70271428571426
