Raman Shift,Processed Intensity
331.095,52.246011904761886
333.909,39.93893761904763
336.721,21.696383333333337
339.531,3.3097123809523774
342.339,-14.168038095238085
345.145,7.8641123809523865
347.949,8.222259047619048
350.751,2.1517419047619004
353.55,-9.006055238095254
356.348,-20.813698095238095
359.144,-8.594785714285685
361.937,15.375600000000032
364.729,59.44240952380959
367.518,95.09411428571437
370.306,168.20169047619063
373.091,257.0653714285716
375.874,314.89110476190496
378.656,317.6005523809525
381.435,272.8779476190477
384.212,174.50389047619055
386.988,94.73676666666668
389.761,32.121452380952384
392.532,-21.414928571428568
395.301,-11.419923809523793
398.068,-2.916414285714282
400.833,0.5028399999999955
403.596,-13.039424285714299
406.358,2.247556190476205
409.117,-7.891756666666656
411.874,20.669341904761918
414.629,24.154110857142847
417.382,7.358495619047618
420.133,-12.44418161904759
422.882,30.401680571428617
425.629,61.83843266666675
428.374,122.00002704761914
431.117,166.40230895238105
433.858,202.7528476190477
436.597,189.33164285714292
439.334,149.03871428571435
442.069,125.44130952380961
444.802,112.25057142857152
447.533,115.51183333333344
450.262,168.2712380952382
452.989,209.7185238095239
455.714,211.42480952380964
458.438,227.62885714285727
461.159,204.09353333333343
463.878,153.3446333333334
466.595,108.81300000000006
469.31,91.59678571428577
472.024,92.98489523809532
474.735,112.88613809523818
477.444,128.11384761904768
480.152,142.00626666666676
482.857,123.23485714285722
485.561,127.8524761904763
488.262,155.150761904762
490.962,167.51625714285726
493.659,149.47897142857147
496.355,127.90264761904766
499.048,78.22216190476196
501.74,75.53950476190484
504.43,89.29029523809531
507.118,95.57646666666672
509.804,104.50040000000008
512.488,138.87894285714296
515.17,177.86219047619062
517.85,214.93340952380964
520.528,222.76663809523816
523.204,192.98795238095244
525.878,151.79519047619056
528.551,156.86211428571437
531.221,135.4340190476191
533.89,109.4700190476191
536.556,92.12017619047624
539.221,91.7719333333334
541.883,75.05124761904767
544.544,89.01193333333337
547.203,92.32721904761911
549.86,104.90795238095245
552.515,103.807461904762
555.168,151.60311428571438
557.819,175.58608571428582
560.469,162.61885714285725
563.116,169.37319047619056
565.761,190.42542857142868
568.405,182.39880952380966
571.047,209.44095238095252
573.687,231.55561904761916
576.324,202.31795238095248
578.96,156.06471428571436
581.594,141.0848095238096
584.227,131.1905238095239
586.857,135.7182380952382
589.485,174.43170476190488
592.112,169.71389523809532
594.737,151.5190761904763
597.359,135.65786666666676
599.98,130.17883809523818
602.599,142.1784285714287
605.216,153.32338095238103
607.831,148.7570952380953
610.445,133.62229047619053
613.056,93.48982380952386
615.666,79.93040476190484
618.274,98.2765095238096
620.88,118.95540476190484
623.484,141.91825238095245
626.086,162.40153333333345
628.686,188.78400000000013
631.284,219.58761904761917
633.881,225.19080952380966
636.476,232.16209523809536
639.068,221.78428571428586
641.659,220.8167142857144
644.249,217.87490476190484
646.836,167.52719047619053
649.421,126.10359047619053
652.005,81.98105714285718
654.587,63.87010476190481
657.166,54.57669142857145
659.745,35.906396190476194
662.321,13.521911428571462
664.895,42.467056190476214
667.468,30.97580380952382
670.038,20.282288571428573
672.607,14.954014285714296
675.174,16.65376000000004
677.739,48.37770380952387
680.303,82.93163523809527
682.864,105.07372571428576
685.424,75.18143333333336
687.982,45.775128571428596
690.538,26.803819047619065
693.092,22.88328476190478
695.645,14.96281885714288
698.195,25.182171952380948
700.744,13.20520342857144
703.291,5.410046619047636
705.836,36.88930628571434
708.38,62.97363480952385
710.921,78.08910314285717
713.461,75.61423809523814
715.999,61.832409523809545
718.535,56.312757142857215
721.069,100.10059047619055
723.602,119.33670952380959
726.133,130.82859523809532
728.662,135.6693476190477
731.189,105.57135238095243
733.714,80.48502857142863
736.238,82.69406190476195
738.759,62.14918571428576
741.279,58.70554761904768
743.798,82.79010000000005
746.314,86.92500476190482
748.829,82.25152857142862
751.342,116.14887619047626
753.853,105.42519047619052
756.362,99.84070476190482
758.869,87.4418285714286
761.375,68.65563809523813
763.879,44.2904190476191
766.381,78.01123619047624
768.882,68.4838504761905
771.38,61.32615809523813
773.877,68.39396857142862
776.372,82.44832476190481
778.866,83.86920285714294
781.357,125.65545047619054
783.847,129.9968390476191
786.335,94.89251761904765
788.821,70.05580190476194
791.306,63.86710142857149
793.789,73.13509238095247
796.27,133.52595095238107
798.749,164.99149619047628
801.227,146.05521904761912
803.702,130.1927857142858
806.176,152.87985714285728
808.649,180.21130952380963
811.119,202.75828571428582
813.588,183.71109523809534
816.055,154.21261904761914
818.521,146.64345714285724
820.984,147.00352857142863
823.446,141.1024857142858
825.906,114.13085238095243
828.365,106.51720000000009
830.821,126.35705238095247
833.276,130.2695047619048
835.729,129.3025714285715
838.181,110.45645238095241
840.631,98.49353952380959
843.079,78.50917642857146
845.525,77.31352428571432
847.97,51.00224023809528
850.412,59.24281952380958
852.854,62.94029071428577
855.293,85.52395380952385
857.731,56.3277904761905
860.167,56.92397142857146
862.601,45.07519523809527
865.034,34.544347619047635
867.465,42.18929523809527
869.894,49.915742857142874
872.321,32.724709523809565
874.747,54.331328571428614
877.171,67.49869523809528
879.594,101.8470295238096
882.014,101.52026523809528
884.433,109.75773047619053
886.851,93.036810952381
889.266,99.6443876190477
891.68,117.34382238095247
894.092,155.18416761904768
896.503,110.11908571428577
898.912,127.00744285714295
901.319,111.75522380952388
903.724,120.93544285714296
906.128,148.2637857142858
908.53,158.59904761904767
910.931,131.085561904762
913.329,133.3446095238096
915.726,138.61547619047627
918.122,137.8522857142858
920.516,159.77095238095248
922.908,164.42071428571438
925.298,150.04102857142863
927.687,116.15786190476197
930.074,125.1536571428572
932.459,103.26821428571435
934.843,113.31301904761912
937.225,119.52773809523815
939.605,118.3899428571429
941.984,112.28226666666674
944.361,121.53983809523815
946.736,117.16421904761913
949.11,102.68100476190482
951.482,106.28243809523818
953.853,119.39828095238104
956.222,140.50629523809533
958.589,160.27452857142865
960.954,170.22845714285722
963.318,154.7505714285715
965.68,147.98505714285722
968.041,136.45696666666672
970.4,111.59630952380957
972.757,97.83277619047624
975.113,91.73920476190482
977.467,79.22155904761908
979.819,58.85214047619049
982.17,27.203594761904768
984.519,0.27686333333336144
986.866,19.40634142857149
989.212,76.7357814285715
991.556,121.93248333333341
993.899,133.66387428571431
996.24,116.88293333333337
998.579,100.25701428571435
1000.92,87.54874285714291
1003.25,100.3302714285715
1005.59,106.45892857142863
1007.92,101.69687619047625
1010.25,101.2351476190477
1012.58,109.21671428571436
1014.91,113.59424285714292
1017.24,115.27288571428576
1019.56,104.44310000000007
1021.88,96.34296190476196
1024.2,107.11571904761914
1026.52,121.9038000000001
1028.84,168.99306190476202
1031.16,208.05028571428585
1033.48,223.40842857142871
1035.79,234.1148571428573
1038.1,228.93152380952392
1040.41,215.00071428571442
1042.72,222.51280952380966
1045.03,215.03895238095248
1047.33,210.1976666666668
1049.64,223.22657142857156
1051.94,215.69695238095252
1054.24,212.6557142857144
1056.54,195.48352380952394
1058.84,193.37000000000015
1061.13,183.88604761904773
1063.43,183.45966666666678
1065.72,198.47133333333346
1068.01,199.8726666666668
1070.3,178.044142857143
1072.59,206.74676190476202
1074.87,174.74176190476197
1077.16,167.12357142857155
1079.44,186.93919047619056
1081.72,210.9018571428573
1084.0,242.96314285714305
1086.28,310.12228571428597
1088.56,399.56885714285744
1090.84,528.159285714286
1093.11,618.7500952380956
1095.38,647.5783333333336
1097.65,605.4523809523812
1099.92,499.6569523809526
1102.19,443.3340476190479
1104.46,392.7209523809526
1106.72,373.48347619047644
1108.98,387.00176190476213
1111.24,401.75071428571454
1113.5,424.91980952380976
1115.76,464.127285714286
1118.02,469.46733333333356
1120.28,493.51061904761934
1122.53,489.92271428571456
1124.78,431.08357142857164
1127.03,396.1828571428573
1129.28,339.31457142857164
1131.53,265.6683809523811
1133.77,222.6720476190477
1136.02,179.70519047619058
1138.26,147.81485714285725
1140.5,169.38123809523822
1142.74,187.45057142857155
1144.98,202.54585714285727
1147.22,228.85671428571442
1149.45,220.42985714285726
1151.69,216.12180952380962
1153.92,192.78885714285724
1156.15,160.14409523809533
1158.38,148.1390476190477
1160.61,129.15395238095243
1162.83,114.99761904761911
1165.06,107.00270952380957
1167.28,88.02568571428577
1169.5,72.54182380952386
1171.72,88.50297142857148
1173.94,77.28926666666672
1176.16,100.32870476190482
1178.37,92.04916190476195
1180.58,78.16436666666672
1182.8,75.00705238095243
1185.01,87.95780000000005
1187.22,61.20643809523811
1189.42,41.13358095238096
1191.63,27.881576190476213
1193.84,15.783376190476218
1196.04,38.171928571428616
1198.24,51.8088142857143
1200.44,46.408042857142874
1202.64,48.92173333333337
1204.84,45.492500000000014
1207.03,44.26299523809527
1209.23,52.4711380952381
1211.42,25.21204761904763
1213.61,16.009504761904786
1215.8,24.53018095238097
1217.99,29.44080952380956
1220.18,41.26535380952382
1222.36,32.48023238095238
1224.55,14.990514761904782
1226.73,25.51086761904765
1228.91,53.23224809523815
1231.09,76.48856571428576
1233.27,85.37565142857146
1235.44,72.22758095238099
1237.62,57.3308047619048
1239.79,50.11475714285718
1241.96,52.104176190476224
1244.13,70.44290000000007
1246.3,95.84622380952388
1248.47,122.69629047619055
1250.64,125.70853809523815
1252.8,124.12207619047626
1254.96,130.5574285714287
1257.13,168.6826190476192
1259.29,198.97533333333345
1261.44,243.62747619047633
1263.6,230.54528571428582
1265.76,224.3964761904763
1267.91,225.56388571428587
1270.06,175.28724285714293
1272.22,144.71115238095248
1274.37,133.64690000000007
1276.51,110.00100952380963
1278.66,126.53690952380964
1280.81,144.25660000000008
1282.95,136.59014285714295
1285.09,147.25400000000008
1287.23,142.58309523809532
1289.37,139.00820000000007
1291.51,120.6262952380953
1293.65,107.86815238095244
1295.78,96.25910000000005
1297.92,80.27766666666673
1300.05,87.6872333333334
1302.18,123.34743809523818
1304.31,131.11717619047627
1306.44,156.28431428571437
1308.57,144.75555238095245
1310.69,141.91389523809536
1312.82,154.42773333333346
1314.94,170.96601904761914
1317.06,170.81638095238105
1319.18,170.45680952380962
1321.3,191.74671428571443
1323.41,217.307142857143
1325.53,251.90190476190497
1327.64,287.58033333333356
1329.75,292.4872380952383
1331.87,301.62457142857164
1333.98,308.0420000000001
1336.08,279.78895238095254
1338.19,256.43852380952393
1340.3,229.56385714285722
1342.4,176.83357142857156
1344.5,175.01142857142867
1346.6,155.67057142857155
1348.7,151.09814285714296
1350.8,147.43833333333345
1352.9,136.7883333333334
1354.99,121.76885714285721
1357.09,127.80990476190483
1359.18,121.960761904762
1361.27,152.60334285714293
1363.36,144.97715238095248
1365.45,144.55982857142865
1367.54,144.0670380952382
1369.62,148.49973333333344
1371.7,160.62100952380965
1373.79,194.62234285714294
1375.87,217.55223809523827
1377.95,229.36409523809533
1380.03,232.53504761904776
1382.1,225.06596190476205
1384.18,187.3385333333334
1386.25,157.73434285714296
1388.33,138.0156952380953
1390.4,113.99262857142864
1392.47,86.665480952381
1394.54,85.08258095238101
1396.6,83.76769809523815
1398.67,77.86366000000004
1400.74,67.18026761904765
1402.8,67.33649238095241
1404.86,50.85601047619052
1406.92,64.21495523809529
1408.98,72.98430761904764
1411.04,67.35404761904766
1413.09,75.89522380952386
1415.15,91.9882952380953
1417.2,106.6800952380953
1419.25,114.01743809523813
1421.3,84.4757047619048
1423.35,85.62524761904768
1425.4,103.5128476190477
1427.45,96.42310476190481
1429.49,97.40217142857148
1431.54,87.2108285714286
1433.58,68.08586190476197
1435.62,79.69250952380958
1437.66,99.26742857142861
1439.7,88.6183952380953
1441.74,103.79117142857149
1443.77,105.212880952381
1445.81,99.50076190476194
1447.84,76.46248095238097
1449.87,60.09615238095243
1451.9,60.54251904761911
1453.93,81.94236190476197
1455.96,96.00819523809531
1457.98,134.02356666666674
1460.01,124.46254285714294
1462.03,140.13254285714297
1464.05,160.31689523809533
1466.07,195.10868571428585
1468.09,209.41043809523822
1470.11,253.26772380952394
1472.13,256.63066666666685
1474.14,263.21109523809537
1476.16,264.4352380952382
1478.17,245.53900000000007
1480.18,210.7106380952382
1482.19,168.42425714285724
1484.2,141.4870095238096
1486.21,98.61069047619051
1488.21,83.36459523809526
1490.22,59.79414285714289
1492.22,50.94493333333335
1494.22,23.338490476190493
1496.22,33.163147619047635
1498.22,26.94061428571431
1500.22,35.81174285714289
1502.22,38.10782380952383
1504.21,47.44595238095241
1506.21,40.348038095238124
1508.2,41.621714285714305
1510.19,40.408028571428595
1512.18,45.37196190476193
1514.17,26.035619047619065
1516.16,38.30213809523812
1518.14,38.17000000000001
1520.13,22.113923809523826
1522.11,21.227776190476206
1524.09,20.795983333333336
1526.07,6.150663809523822
1528.05,7.814459047619054
1530.03,18.024403809523825
1532.01,17.446188571428596
1533.98,45.50743809523813
1535.96,44.96919333333335
1537.93,49.11640380952383
1539.9,45.94829190476192
1541.87,41.84511142857146
1543.84,54.04444619047624
1545.81,74.21227714285718
1547.78,55.39576190476194
1549.74,63.26106190476195
1551.7,74.33186190476196
1553.67,78.65504761904769
1555.63,114.0879857142858
1557.59,130.7253571428572
1559.55,108.70991428571435
1561.5,98.85085238095245
1563.46,104.29148571428578
1565.41,109.36452857142866
1567.37,126.594361904762
1569.32,140.26642857142866
1571.27,135.57142857142864
1573.22,141.98566666666676
1575.17,145.79538095238104
1577.11,147.23847619047626
1579.06,127.55354761904768
1581.0,110.31223809523817
1582.95,95.80064285714293
1584.89,102.06676190476198
1586.83,113.11111904761913
1588.77,140.93409523809532
1590.7,154.48847619047626
1592.64,155.06066666666675
1594.58,138.36533333333344
1596.51,123.0934761904764
1598.44,120.41226190476218
