Raman Shift,Processed Intensity
331.095,109.67910333333298
333.909,6.383979523809515
336.721,-19.317579047618935
339.531,-1.4667457142856914
342.339,-0.22406761904760675
345.145,19.678954285714283
347.949,5.440539047619028
350.751,-29.216341904761933
353.55,-35.18674952380951
356.348,-12.93614
359.144,-0.5002990476190163
361.937,30.705168571428608
364.729,61.3611390476191
367.518,72.43488380952388
370.306,124.41900761904772
373.091,184.56907619047635
375.874,276.0464095238097
378.656,306.3946380952383
381.435,282.2059857142858
384.212,198.45441428571434
386.988,84.78204761904763
389.761,14.212953809523833
392.532,-0.7039021428571395
395.301,-3.6086938095237873
398.068,7.1450411904762
400.833,13.824054761904764
403.596,18.07713261904763
406.358,14.935074761904762
409.117,7.09653190476192
411.874,18.165948571428583
414.629,37.55840476190478
417.382,21.118638095238104
420.133,23.1209761904762
422.882,8.888385714285725
425.629,23.411490476190536
428.374,68.82488095238105
431.117,142.8356095238096
433.858,134.62758571428577
436.597,132.7666571428572
439.334,118.86734285714292
442.069,114.83021904761912
444.802,111.65237142857148
447.533,127.76008571428578
450.262,108.72290476190483
452.989,135.1592380952382
455.714,180.49725714285722
458.438,168.5942333333334
461.159,138.07027619047625
463.878,113.06944285714289
466.595,72.68881428571434
469.31,66.21672380952387
472.024,82.37005714285716
474.735,74.34266190476197
477.444,79.66207619047626
480.152,109.6657095238096
482.857,129.31023333333343
485.561,149.88594285714294
488.262,178.82658095238108
490.962,183.61345714285721
493.659,146.29964761904768
496.355,104.89099523809529
499.048,80.29778095238102
501.74,65.47853333333339
504.43,70.72528571428576
507.118,83.18713333333339
509.804,87.91805714285721
512.488,123.1148904761906
515.17,165.45057142857152
517.85,177.5511523809525
520.528,172.51834285714293
523.204,151.7395095238096
525.878,122.64977142857151
528.551,114.63630952380957
531.221,95.22937142857147
533.89,61.67367619047622
536.556,63.02305238095242
539.221,43.66446428571432
541.883,41.69934761904766
544.544,66.65709285714291
547.203,71.40086666666672
549.86,80.69795476190484
552.515,105.55405714285719
555.168,91.1646952380953
557.819,119.05861428571438
560.469,158.8122095238096
563.116,158.90623809523822
565.761,171.7735238095239
568.405,176.41861904761916
571.047,152.2738095238096
573.687,181.91395238095248
576.324,184.00945714285723
578.96,163.51567619047628
581.594,134.1023190476191
584.227,108.20072380952384
586.857,64.00376666666672
589.485,92.08476190476198
592.112,101.49333809523814
594.737,93.80263809523814
597.359,84.96617142857147
599.98,96.2710952380953
602.599,108.86090476190486
605.216,141.54556666666673
607.831,150.08756190476197
610.445,134.62961428571435
613.056,114.79020000000008
615.666,129.95040476190485
618.274,140.87121428571436
620.88,132.1230857142858
623.484,115.70524285714292
626.086,107.28246666666675
628.686,133.80556666666678
631.284,193.0823047619049
633.881,232.96790476190492
636.476,260.60285714285726
639.068,256.3180952380954
641.659,221.06341904761913
644.249,179.8837857142858
646.836,122.58567619047625
649.421,78.92813333333338
652.005,58.24121238095242
654.587,54.28347190476193
657.166,31.051848571428568
659.745,5.304690000000001
662.321,-1.580494285714261
664.895,15.916605238095272
667.468,44.88772666666671
670.038,77.23412457142861
672.607,67.90468933333335
675.174,48.18164533333335
677.739,39.44246876190478
680.303,19.636116761904784
682.864,45.33061314285719
685.424,49.42734838095239
687.982,45.68494761904765
690.538,26.57635238095238
693.092,24.24127619047621
695.645,14.629042857142885
698.195,35.403361904761915
700.744,26.08512571428573
703.291,24.95725428571429
705.836,5.112241904761921
708.38,16.880717142857165
710.921,31.498160952380985
713.461,37.5334304761905
715.999,51.07922571428575
718.535,60.27592857142861
721.069,62.59729047619052
723.602,71.326600952381
726.133,58.74723190476192
728.662,44.71396380952384
731.189,34.74831095238098
733.714,39.752735238095276
736.238,47.677336666666704
738.759,71.51992000000006
741.279,73.04014761904767
743.798,97.52163333333338
746.314,86.81929523809528
748.829,84.07384761904765
751.342,69.09273809523813
753.853,61.016785714285746
756.362,47.46300000000004
758.869,63.09616666666671
761.375,59.676138095238144
763.879,81.67720476190482
766.381,79.71654285714288
768.882,63.50658571428574
771.38,58.99796190476194
773.877,53.379380952380984
776.372,53.41106666666671
778.866,60.85320476190479
781.357,70.94240000000005
783.847,74.77222380952387
786.335,83.0554190476191
788.821,86.31452380952388
791.306,78.92887142857147
793.789,92.94479523809531
796.27,103.88481904761909
798.749,102.60487619047625
801.227,118.43679047619057
803.702,138.76098095238103
806.176,155.95688095238108
808.649,182.69014285714294
811.119,170.48390476190485
813.588,161.52785714285724
816.055,158.86823809523818
818.521,153.21928571428577
820.984,154.29409523809534
823.446,137.47280952380962
825.906,125.707761904762
828.365,143.66520000000008
830.821,135.24908095238104
833.276,131.126161904762
835.729,131.29572857142864
838.181,114.61489047619054
840.631,93.51230476190482
843.079,79.3213428571429
845.525,78.2801571428572
847.97,70.72214761904767
850.412,86.17110952380956
852.854,80.10381428571432
855.293,79.99660000000006
857.731,65.42156666666672
860.167,70.47471428571433
862.601,76.34704761904767
865.034,89.13455238095241
867.465,65.36192380952383
869.894,45.93465714285715
872.321,34.09196666666669
874.747,38.263676190476254
877.171,60.165290476190535
879.594,102.79819047619054
882.014,119.06835238095246
884.433,115.02521904761913
886.851,133.47937142857154
889.266,135.71870476190483
891.68,137.60180952380964
894.092,142.65447619047626
896.503,148.40214285714293
898.912,150.75204761904772
901.319,148.2295714285715
903.724,137.8848095238096
906.128,151.52919047619056
908.53,143.7364000000001
910.931,124.07985238095245
913.329,114.56203809523815
915.726,101.32805238095244
918.122,121.90422857142866
920.516,147.95964285714294
922.908,149.02057142857151
925.298,135.2323714285715
927.687,111.35940952380957
930.074,90.5470952380953
932.459,89.08362857142862
934.843,99.97154285714291
937.225,105.0230857142858
939.605,98.0505428571429
941.984,87.38959047619053
944.361,77.47159142857147
946.736,41.53712952380956
949.11,57.58879714285719
951.482,68.91502761904765
953.853,54.80416380952386
956.222,65.54433904761909
958.589,83.70971523809527
960.954,59.112314285714326
963.318,67.46888571428575
965.68,58.829623809523824
968.041,50.67315714285717
970.4,45.144777142857166
972.757,42.10399857142858
975.113,24.98168285714287
977.467,15.97065857142859
979.819,36.35874000000004
982.17,54.957670000000036
984.519,60.388624761904794
986.866,56.701233333333356
989.212,68.99262857142861
991.556,55.074257142857185
993.899,82.90027619047623
996.24,74.80574285714289
998.579,51.31604761904765
1000.92,39.52799047619051
1003.25,62.68107619047623
1005.59,60.157650476190526
1007.92,66.72097190476192
1010.25,47.9911580952381
1012.58,29.826407142857164
1014.91,13.941996666666686
1017.24,11.148306190476212
1019.56,41.39845476190481
1021.88,63.12166761904768
1024.2,88.17545285714293
1026.52,109.17952666666673
1028.84,121.56255238095245
1031.16,115.2297333333334
1033.48,139.89530476190484
1035.79,145.8925238095239
1038.1,166.50700000000012
1040.41,185.1674761904763
1042.72,191.20657142857155
1045.03,196.6719523809525
1047.33,189.22957142857152
1049.64,190.7360000000001
1051.94,182.3812380952382
1054.24,182.1170000000001
1056.54,161.7040476190477
1058.84,171.37992380952392
1061.13,139.0961857142858
1063.43,153.75641904761912
1065.72,159.598061904762
1068.01,153.19114285714295
1070.3,148.4868238095239
1072.59,161.38858095238103
1074.87,136.41901904761914
1077.16,154.48124761904774
1079.44,181.86000952380962
1081.72,196.12500000000014
1084.0,217.7988095238097
1086.28,286.1179523809526
1088.56,369.4142380952384
1090.84,492.59052380952414
1093.11,579.9307142857145
1095.38,593.8142857142859
1097.65,522.3822380952383
1099.92,424.20433333333347
1102.19,350.46947619047637
1104.46,321.2708095238097
1106.72,332.17780952380974
1108.98,362.37928571428597
1111.24,369.58771428571447
1113.5,393.3725714285717
1115.76,430.63666666666694
1118.02,443.5685238095241
1120.28,461.6423809523812
1122.53,448.8085714285717
1124.78,393.112904761905
1127.03,348.1723333333335
1129.28,281.9373809523811
1131.53,234.7396666666668
1133.77,204.48176190476198
1136.02,171.54290476190488
1138.26,162.96852380952393
1140.5,171.8519523809525
1142.74,174.23909523809533
1144.98,189.41361904761916
1147.22,202.6116666666668
1149.45,194.9744761904763
1151.69,174.88100000000009
1153.92,150.80590476190486
1156.15,126.69990476190483
1158.38,115.37042857142866
1160.61,123.8635714285715
1162.83,131.93961904761912
1165.06,119.88252857142864
1167.28,104.26236666666672
1169.5,86.36334761904766
1171.72,72.326580952381
1173.94,75.57925238095244
1176.16,84.07253428571433
1178.37,67.32882714285718
1180.58,55.775411428571445
1182.8,35.31586333333335
1185.01,25.23474285714288
1187.22,25.95950619047621
1189.42,17.96535904761905
1191.63,11.965616190476204
1193.84,7.6260628571428715
1196.04,25.42213142857147
1198.24,46.734074285714314
1200.44,59.94224285714289
1202.64,53.331857142857174
1204.84,47.378671428571444
1207.03,36.08235714285718
1209.23,45.53794285714288
1211.42,39.31670952380954
1213.61,41.70432380952382
1215.8,19.93890952380952
1217.99,7.6397095238095405
1220.18,18.045028571428595
1222.36,30.155266666666694
1224.55,32.875642857142886
1226.73,53.540033333333355
1228.91,44.625299047619066
1231.09,19.560789523809543
1233.27,39.44256000000005
1235.44,58.74775809523814
1237.62,72.14405047619053
1239.79,80.20391809523812
1241.96,80.73815142857147
1244.13,81.0334238095239
1246.3,114.37708095238102
1248.47,131.0559095238096
1250.64,135.2145047619048
1252.8,128.23500000000007
1254.96,123.26190476190486
1257.13,156.5824761904763
1259.29,191.05571428571443
1261.44,216.96890476190492
1263.6,229.65747619047636
1265.76,241.74180952380965
1267.91,219.27166666666676
1270.06,185.4397142857144
1272.22,169.62838095238106
1274.37,155.69685714285725
1276.51,162.5997142857144
1278.66,180.81514285714297
1280.81,185.10709523809533
1282.95,167.81133333333344
1285.09,168.2155238095239
1287.23,152.1790476190477
1289.37,147.22785714285723
1291.51,146.88817142857152
1293.65,121.49529047619055
1295.78,102.19457142857149
1297.92,88.0360571428572
1300.05,85.35522857142865
1302.18,98.34470476190485
1304.31,130.2452476190477
1306.44,123.29720476190482
1308.57,138.64599047619058
1310.69,157.5318095238096
1312.82,163.81409523809535
1314.94,158.49504761904768
1317.06,167.62490476190487
1319.18,150.6346666666668
1321.3,175.4790952380954
1323.41,236.3030952380954
1325.53,274.48990476190494
1327.64,332.1846190476192
1329.75,351.0086190476192
1331.87,358.9169523809526
1333.98,350.6734761904763
1336.08,315.1376666666668
1338.19,267.7878095238097
1340.3,258.530761904762
1342.4,222.03509523809538
1344.5,215.77957142857156
1346.6,199.90890476190486
1348.7,179.47272380952393
1350.8,140.85398571428578
1352.9,117.91163809523817
1354.99,122.50472857142864
1357.09,113.96873333333342
1359.18,138.82908095238108
1361.27,162.3732952380953
1363.36,160.93633333333347
1365.45,156.18671428571437
1367.54,153.64961904761913
1369.62,155.51738095238107
1371.7,166.26709523809535
1373.79,190.3766666666668
1375.87,220.89509523809537
1377.95,238.7759523809525
1380.03,232.30609523809537
1382.1,227.2488380952382
1384.18,176.7001714285715
1386.25,141.32796190476196
1388.33,116.1330571428572
1390.4,101.3542714285715
1392.47,88.65906666666673
1394.54,99.14329047619054
1396.6,106.80759238095244
1398.67,86.41431380952385
1400.74,63.48745142857146
1402.8,63.78940047619052
1404.86,58.70125142857148
1406.92,75.69925285714291
1408.98,70.54533619047622
1411.04,57.905940000000044
1413.09,64.97138476190483
1415.15,69.26515904761911
1417.2,92.16774857142863
1419.25,89.29756761904764
1421.3,63.892238095238156
1423.35,75.23624761904767
1425.4,100.99568571428576
1427.45,95.59790000000008
1429.49,113.9464428571429
1431.54,82.23059047619051
1433.58,78.68717619047625
1435.62,61.9336666666667
1437.66,80.11160476190483
1439.7,86.98112380952385
1441.74,100.15981904761911
1443.77,90.45522380952386
1445.81,93.48446666666669
1447.84,75.10286190476197
1449.87,89.64168571428577
1451.9,87.00371428571434
1453.93,84.13944285714291
1455.96,93.4276095238096
1457.98,95.67542380952386
1460.01,109.02357142857151
1462.03,131.3271095238096
1464.05,144.20269523809532
1466.07,159.2192380952382
1468.09,185.42238095238108
1470.11,214.76195238095255
1472.13,247.47376190476206
1474.14,276.0794285714287
1476.16,280.2905714285716
1478.17,265.77152380952396
1480.18,236.6153809523811
1482.19,205.24809523809535
1484.2,187.19120952380965
1486.21,144.87111428571436
1488.21,130.0948857142858
1490.22,112.09859047619054
1492.22,105.92751619047624
1494.22,72.34114238095239
1496.22,64.05171809523812
1498.22,28.10477190476193
1500.22,31.783955238095263
1502.22,27.325329523809536
1504.21,25.345990476190487
1506.21,14.41548428571431
1508.2,34.05577428571432
1510.19,46.7888347619048
1512.18,68.94632761904766
1514.17,83.05037619047623
1516.16,81.90885428571431
1518.14,60.90118523809526
1520.13,50.02585142857145
1522.11,34.23374333333336
1524.09,31.19015142857147
1526.07,55.56036142857147
1528.05,73.62872571428576
1530.03,59.48921904761908
1532.01,72.71219047619053
1533.98,87.48679142857146
1535.96,72.66902238095241
1537.93,72.11493047619051
1539.9,48.680630000000015
1541.87,37.26990190476196
1543.84,61.97722238095244
1545.81,93.89676761904768
1547.78,96.45626666666672
1549.74,105.36921904761911
1551.7,115.44455238095247
1553.67,147.30037142857154
1555.63,161.5552380952382
1557.59,182.35118095238104
1559.55,179.0687238095239
1561.5,140.99310476190482
1563.46,134.98101904761913
1565.41,142.46051428571437
1567.37,137.431161904762
1569.32,151.8924857142858
1571.27,161.1776761904763
1573.22,152.1435714285715
1575.17,155.932761904762
1577.11,162.30723809523815
1579.06,147.409380952381
1581.0,139.95352380952392
1582.95,148.17747619047628
1584.89,170.50971428571438
1586.83,185.4742380952382
1588.77,200.3091904761906
1590.7,194.30019047619058
1592.64,195.68552380952391
1594.58,191.25080952380947
1596.51,174.4963095238095
1598.44,139.5888571428572
