Raman Shift,Processed Intensity
331.095,113.02826190476176
333.909,36.563911904761994
336.721,6.076533333333515
339.531,2.858309523809539
342.339,-6.465543809523812
345.145,-0.5074890476190511
347.949,-13.021710476190485
350.751,-7.38062190476191
353.55,-19.336614285714287
356.348,-18.641168571428587
359.144,-8.759027619047602
361.937,5.8460557142857335
364.729,31.806696190476238
367.518,60.66126666666671
370.306,94.85405238095247
373.091,140.06838095238106
375.874,190.7982761904763
378.656,214.11048571428583
381.435,205.2156333333334
384.212,137.80166666666668
386.988,65.46248095238096
389.761,4.269190476190462
392.532,-35.80105952380952
395.301,-28.72209523809523
398.068,-3.466750571428559
400.833,8.850596095238105
403.596,25.973870761904767
406.358,19.029192476190474
409.117,2.096168380952381
411.874,-2.0301172380952384
414.629,-10.553490095238098
417.382,7.609049523809553
420.133,14.017775238095249
422.882,21.662630476190508
425.629,51.72489619047625
428.374,98.52982000000009
431.117,150.26081904761918
433.858,199.29253333333344
436.597,198.57208571428578
439.334,160.42833809523816
442.069,135.66710476190485
444.802,107.380661904762
447.533,126.80486666666678
450.262,158.50952857142872
452.989,205.44617142857155
455.714,213.32876190476202
458.438,202.11011428571436
461.159,143.0294714285715
463.878,96.18359523809528
466.595,50.57457142857145
469.31,34.30008571428575
472.024,39.410576190476235
474.735,54.38556190476196
477.444,61.56227142857147
480.152,80.51627142857149
482.857,91.29976190476197
485.561,109.10798095238103
488.262,122.85075714285722
490.962,136.34306666666674
493.659,121.78079047619052
496.355,111.74126666666672
499.048,94.08782380952384
501.74,68.96952857142861
504.43,49.440395238095284
507.118,51.4117190476191
509.804,86.98515714285725
512.488,138.21519523809533
515.17,176.5371238095239
517.85,171.0051238095239
520.528,164.4832380952382
523.204,139.5498000000001
525.878,133.7830047619048
528.551,104.23735238095242
531.221,85.82420476190478
533.89,65.45489523809529
536.556,82.56454761904769
539.221,91.11211428571433
541.883,96.19911428571433
544.544,81.73651428571434
547.203,78.3018428571429
549.86,80.04406666666672
552.515,96.68285238095244
555.168,92.98600000000008
557.819,127.57797619047629
560.469,166.65427619047628
563.116,184.6482857142858
565.761,192.51728571428583
568.405,182.55142857142863
571.047,153.23114285714297
573.687,175.03698095238107
576.324,164.9723333333334
578.96,135.75476666666674
581.594,121.9116571428572
584.227,94.8267190476191
586.857,79.07370476190484
589.485,99.08401428571435
592.112,95.00225714285722
594.737,110.63971428571439
597.359,130.95055238095244
599.98,122.69747619047625
602.599,123.30993333333343
605.216,133.83610476190483
607.831,130.5621714285715
610.445,146.20246666666674
613.056,142.8040857142858
615.666,120.27133333333342
618.274,126.0792857142858
620.88,138.03633333333343
623.484,151.47457142857155
626.086,173.34461904761918
628.686,210.0248571428573
631.284,228.1326666666668
633.881,242.61771428571444
636.476,252.0486666666668
639.068,268.51757142857156
641.659,236.0214285714287
644.249,205.03233333333344
646.836,169.73776190476198
649.421,135.89561904761916
652.005,141.93032095238107
654.587,134.74229476190482
657.166,97.61314666666672
659.745,69.252290952381
662.321,61.322203809523856
664.895,55.91329952380957
667.468,68.78279714285716
670.038,51.211561904761936
672.607,62.242457142857184
675.174,46.06112380952382
677.739,45.043757142857174
680.303,29.566580952380967
682.864,50.00587619047626
685.424,64.92854285714292
687.982,99.90158819047623
690.538,81.25399390476193
693.092,44.02920209523809
695.645,-4.348301523809513
698.195,-1.1205883809523698
700.744,4.470541523809555
703.291,32.32625009523812
705.836,45.63354761904763
708.38,32.7701523809524
710.921,44.304147619047654
713.461,48.61364285714289
715.999,76.88625619047625
718.535,79.83350142857145
721.069,63.97646952380956
723.602,73.83653666666672
726.133,83.88709333333338
728.662,88.26880619047625
731.189,114.02698285714288
733.714,78.77844809523812
736.238,52.47343904761909
738.759,50.491056666666694
741.279,45.21000571428578
743.798,80.4380052380953
746.314,96.554340952381
748.829,86.8906190476191
751.342,80.63566190476195
753.853,69.50225714285719
756.362,60.15540952380957
758.869,54.59374285714288
761.375,52.911290476190516
763.879,47.392447619047644
766.381,49.70270952380957
768.882,65.84104761904766
771.38,88.13977142857149
773.877,76.21693333333337
776.372,92.7385428571429
778.866,86.22739523809528
781.357,91.92099047619054
783.847,95.39004761904769
786.335,126.11015238095247
788.821,115.08080476190483
791.306,109.15878095238102
793.789,116.01030952380961
796.27,130.54019047619056
798.749,123.1765476190477
801.227,146.347761904762
803.702,148.29185714285725
806.176,158.24685714285727
808.649,185.8319047619049
811.119,205.4284285714287
813.588,194.84590476190488
816.055,183.7034761904763
818.521,167.38247619047627
820.984,178.16901904761917
823.446,164.77782857142867
825.906,153.35259047619056
828.365,127.51274761904767
830.821,110.63960000000009
833.276,92.54363809523817
835.729,112.89203809523816
838.181,121.59079047619053
840.631,118.4502571428572
843.079,117.23308095238102
845.525,111.41639047619051
847.97,80.28710952380956
850.412,66.32233809523812
852.854,47.09503809523812
855.293,34.60623809523814
857.731,52.42858571428575
860.167,66.27780952380957
862.601,69.39335238095242
865.034,68.34810476190479
867.465,57.953109523809566
869.894,39.400357142857175
872.321,69.88204761904768
874.747,100.39973333333339
877.171,87.38370476190482
879.594,76.74046190476194
882.014,73.85288571428575
884.433,58.77026190476198
886.851,81.30426666666673
889.266,110.12324761904767
891.68,121.51501904761913
894.092,132.43406666666675
896.503,151.59677142857151
898.912,159.7672571428572
901.319,131.47139047619055
903.724,126.47311428571439
906.128,123.10789523809531
908.53,114.80635238095246
910.931,124.85653333333343
913.329,150.1657238095239
915.726,151.92614285714293
918.122,152.8546666666667
920.516,134.19128571428578
922.908,124.89061904761915
925.298,117.57408571428579
927.687,126.52957142857149
930.074,111.13996666666671
932.459,108.31247619047626
934.843,93.00139523809531
937.225,98.97066666666673
939.605,109.84159523809531
941.984,114.2827333333334
944.361,95.86746190476198
946.736,103.93123809523817
949.11,120.6662714285715
951.482,127.35996666666676
953.853,129.3000333333334
956.222,132.82133809523813
958.589,111.35422857142865
960.954,98.04328095238104
963.318,121.6519714285715
965.68,127.27690476190483
968.041,135.63347619047627
970.4,132.91357142857152
972.757,117.59471428571435
975.113,100.34466666666671
977.467,75.73606666666672
979.819,66.96016190476195
982.17,71.63669523809527
984.519,56.48090000000004
986.866,68.73129523809529
989.212,80.15047142857148
991.556,91.54853333333341
993.899,101.68755238095245
996.24,133.80587619047628
998.579,124.18943333333337
1000.92,86.59996190476193
1003.25,47.466309523809535
1005.59,24.407557142857158
1007.92,4.518671428571475
1010.25,43.275576190476244
1012.58,91.725880952381
1014.91,113.25013809523816
1017.24,121.61001428571433
1019.56,124.23342857142863
1021.88,110.78689523809533
1024.2,113.93659047619057
1026.52,126.91996190476198
1028.84,138.06962857142867
1031.16,148.90890476190486
1033.48,173.81809523809534
1035.79,186.8441904761906
1038.1,219.8437142857144
1040.41,215.76785714285728
1042.72,218.23500000000016
1045.03,224.19666666666677
1047.33,213.17604761904772
1049.64,198.12419047619062
1051.94,206.32595238095246
1054.24,183.54233333333343
1056.54,174.72485714285725
1058.84,177.58657142857152
1061.13,169.07866666666678
1063.43,173.00961904761917
1065.72,202.4734285714287
1068.01,200.46909523809535
1070.3,199.70990476190488
1072.59,203.0042380952382
1074.87,199.82657142857155
1077.16,209.8904761904763
1079.44,240.575142857143
1081.72,257.35552380952396
1084.0,285.563904761905
1086.28,325.00890476190506
1088.56,433.7839047619051
1090.84,551.0785714285718
1093.11,615.8911904761908
1095.38,615.6489523809527
1097.65,542.8267619047622
1099.92,420.28042857142884
1102.19,365.96080952380976
1104.46,341.62890476190495
1106.72,319.711904761905
1108.98,336.20833333333354
1111.24,369.59300000000025
1113.5,394.1026666666669
1115.76,427.0691428571431
1118.02,458.82476190476217
1120.28,449.84433333333357
1122.53,445.65019047619074
1124.78,418.76476190476205
1127.03,366.5202857142859
1129.28,304.772523809524
1131.53,260.18728571428585
1133.77,208.81057142857156
1136.02,180.97457142857152
1138.26,172.39223809523818
1140.5,163.39547619047627
1142.74,150.17376190476202
1144.98,172.3454285714287
1147.22,207.43276190476206
1149.45,233.67280952380966
1151.69,251.49314285714294
1153.92,236.27361904761915
1156.15,180.48914285714295
1158.38,149.18661904761913
1160.61,136.0318857142858
1162.83,120.83317142857148
1165.06,92.30403333333338
1167.28,80.3962571428572
1169.5,79.06101428571435
1171.72,68.39272380952386
1173.94,94.67649047619055
1176.16,113.86388019047625
1178.37,87.4304868571429
1180.58,73.75680600000003
1182.8,55.65174233333333
1185.01,13.067067333333362
1187.22,23.19264290476193
1189.42,28.409111904761915
1191.63,24.716073000000026
1193.84,27.68458466666668
1196.04,33.07627142857146
1198.24,42.7956666666667
1200.44,46.414023809523826
1202.64,50.169314285714314
1204.84,50.06151142857144
1207.03,30.423959047619064
1209.23,23.018641904761918
1211.42,20.94098857142858
1213.61,8.14366571428573
1215.8,10.388892380952395
1217.99,28.24854476190479
1220.18,47.866038095238125
1222.36,47.00392857142858
1224.55,35.710592857142856
1226.73,18.367895238095237
1228.91,-4.880349999999982
1231.09,20.63367238095242
1233.27,29.196931904761918
1235.44,47.191849523809566
1237.62,61.953170476190515
1239.79,61.14922095238099
1241.96,49.82937238095243
1244.13,73.51925333333338
1246.3,89.12560476190485
1248.47,97.79350000000007
1250.64,115.57255238095244
1252.8,105.51270000000005
1254.96,98.23543809523818
1257.13,129.6478142857144
1259.29,171.7998857142858
1261.44,183.59900000000013
1263.6,212.90509523809536
1265.76,198.81585714285723
1267.91,173.096161904762
1270.06,143.32009047619053
1272.22,120.2044476190477
1274.37,96.99041428571437
1276.51,98.53804761904769
1278.66,100.56439523809532
1280.81,121.92979047619058
1282.95,127.25590952380959
1285.09,121.30743333333338
1287.23,109.13492857142862
1289.37,90.55075714285718
1291.51,56.938980952380994
1293.65,62.44537142857147
1295.78,54.9773285714286
1297.92,30.680557142857175
1300.05,44.890933333333365
1302.18,55.325757142857185
1304.31,75.22577619047627
1306.44,112.92681904761913
1308.57,138.00289047619054
1310.69,130.02781428571436
1312.82,121.62330476190483
1314.94,106.5536333333334
1317.06,125.72606666666675
1319.18,130.95231904761914
1321.3,163.8062000000001
1323.41,200.24242857142872
1325.53,227.3108571428573
1327.64,232.01328571428584
1329.75,240.73295238095255
1331.87,239.9478571428573
1333.98,261.70738095238113
1336.08,265.2518571428573
1338.19,271.24947619047634
1340.3,243.27361904761915
1342.4,214.0878095238096
1344.5,192.40802857142867
1346.6,157.90205238095245
1348.7,124.19067619047627
1350.8,129.8465095238096
1352.9,121.53762380952388
1354.99,121.16989523809531
1357.09,113.98259523809529
1359.18,101.97664285714293
1361.27,108.72468095238104
1363.36,106.32289047619052
1365.45,107.20043809523816
1367.54,110.12024761904769
1369.62,118.08250476190486
1371.7,145.42108571428582
1373.79,180.61270476190487
1375.87,181.08647619047628
1377.95,179.69938095238106
1380.03,181.11871428571442
1382.1,161.2965238095239
1384.18,167.0423904761906
1386.25,163.45146190476197
1388.33,134.47598571428577
1390.4,109.54387619047624
1392.47,90.5596285714286
1394.54,59.8082571428572
1396.6,74.90818095238099
1398.67,73.95383333333338
1400.74,76.84908571428576
1402.8,86.06910000000005
1404.86,70.23178571428573
1406.92,48.0978285714286
1408.98,35.09437619047621
1411.04,35.21997142857147
1413.09,47.758671428571475
1415.15,66.99448095238098
1417.2,63.02080952380955
1419.25,57.597590476190504
1421.3,43.675152380952404
1423.35,45.72758095238099
1425.4,62.609761904761946
1427.45,72.65272380952383
1429.49,54.56830000000003
1431.54,55.87799047619052
1433.58,71.43622857142861
1435.62,66.57374047619051
1437.66,78.00215238095242
1439.7,82.24255571428573
1441.74,48.62547952380955
1443.77,24.910223333333363
1445.81,45.33176333333337
1447.84,52.887340000000066
1449.87,98.0979557142858
1451.9,129.43684380952388
1453.93,113.80583333333338
1455.96,92.48755238095244
1457.98,79.86012857142863
1460.01,67.8253333333334
1462.03,118.3327380952382
1464.05,155.5700666666668
1466.07,190.24860000000012
1468.09,236.50802857142872
1470.11,259.77442857142876
1472.13,265.616142857143
1474.14,274.8876666666668
1476.16,282.30066666666687
1478.17,276.47142857142876
1480.18,252.92109523809535
1482.19,218.2661904761906
1484.2,189.98008571428582
1486.21,135.96524761904772
1488.21,102.88588095238102
1490.22,94.12057142857148
1492.22,76.38154285714289
1494.22,60.333147619047665
1496.22,70.49695238095241
1498.22,67.91872380952384
1500.22,71.35842380952386
1502.22,69.90935238095238
1504.21,45.09369047619049
1506.21,27.719333333333353
1508.2,23.40379047619051
1510.19,42.09807142857148
1512.18,75.75325714285718
1514.17,75.65390000000004
1516.16,66.32273333333337
1518.14,65.61597619047623
1520.13,64.00893333333337
1522.11,57.4056285714286
1524.09,56.376776190476214
1526.07,44.588471428571445
1528.05,39.183104761904794
1530.03,36.63651428571431
1532.01,48.091214285714315
1533.98,54.118438095238126
1535.96,43.956147619047634
1537.93,31.080504761904788
1539.9,47.20589047619051
1541.87,47.094395238095274
1543.84,56.03198571428577
1545.81,75.30480000000003
1547.78,65.9133428571429
1549.74,68.57233809523817
1551.7,99.23499047619055
1553.67,118.33051428571437
1555.63,127.28847619047627
1557.59,130.0621714285715
1559.55,121.98561904761912
1561.5,114.44085714285723
1563.46,125.71500000000007
1565.41,144.99954285714293
1567.37,142.2007571428572
1569.32,129.79622857142863
1571.27,124.45367142857151
1573.22,116.50780000000009
1575.17,127.0557095238096
1577.11,141.09846666666675
1579.06,124.01885238095244
1581.0,115.77099047619056
1582.95,114.73729047619054
1584.89,115.91941904761913
1586.83,131.36718571428582
1588.77,148.31987619047626
1590.7,146.2079523809525
1592.64,152.7475714285715
1594.58,142.77366666666677
1596.51,121.6931666666668
1598.44,88.84140476190498
