Raman Shift,Processed Intensity
331.095,50.4084847619047
333.909,30.714553809523764
336.721,20.30390809523807
339.531,14.134974285714296
342.339,6.403999047619038
345.145,-14.240029523809541
347.949,-24.64703999999999
350.751,-2.475680476190477
353.55,-2.7170180952380987
356.348,3.257832857142856
359.144,5.554929523809523
361.937,0.5194290476190737
364.729,24.16389809523814
367.518,59.88336190476197
370.306,98.83547142857154
373.091,179.98847619047635
375.874,273.6447523809526
378.656,306.77476190476204
381.435,294.6356666666668
384.212,212.53360000000006
386.988,113.204080952381
389.761,32.71716190476192
392.532,12.286628571428595
395.301,7.699307619047645
398.068,30.647971904761913
400.833,22.92161523809523
403.596,3.262990952380922
406.358,-21.06012190476191
409.117,-37.54063571428573
411.874,-21.479602857142844
414.629,-11.51026000000001
417.382,-0.12170380952379656
420.133,8.150615238095263
422.882,32.39135714285718
425.629,53.448528571428646
428.374,130.93269523809533
431.117,176.8367142857144
433.858,216.63075238095246
436.597,206.6428857142858
439.334,158.53538095238102
442.069,123.63866666666675
444.802,120.42580952380962
447.533,132.6095238095239
450.262,148.76061904761912
452.989,184.54533333333347
455.714,189.10709523809533
458.438,185.06614285714295
461.159,173.18575238095247
463.878,140.27787142857147
466.595,93.15507619047628
469.31,110.29679523809531
472.024,121.13560952380959
474.735,105.86626190476197
477.444,123.68396190476197
480.152,117.02246666666672
482.857,113.26806666666675
485.561,138.9502476190477
488.262,157.5515333333334
490.962,156.0781714285715
493.659,131.25110000000004
496.355,103.41024761904768
499.048,87.99132857142865
501.74,116.62047619047628
504.43,112.68606666666673
507.118,129.62367619047626
509.804,134.67917619047628
512.488,149.0025523809525
515.17,166.69706190476205
517.85,218.00803809523825
520.528,204.32390476190486
523.204,182.84267619047628
525.878,153.42922380952388
528.551,132.90036190476198
531.221,112.21579047619056
533.89,114.90622857142863
536.556,100.40729047619054
539.221,94.34499047619053
541.883,88.10728571428578
544.544,113.31960000000008
547.203,137.98836666666676
549.86,141.88167619047624
552.515,114.91019047619054
555.168,99.79409523809534
557.819,141.15813333333347
560.469,173.57849523809534
563.116,189.3463714285715
565.761,205.7520285714287
568.405,198.94266666666678
571.047,181.4941904761906
573.687,205.4102857142858
576.324,192.78961904761917
578.96,178.1594761904763
581.594,169.37990476190484
584.227,157.9772380952382
586.857,153.71571428571437
589.485,154.40671428571437
592.112,164.43309523809535
594.737,167.17719047619056
597.359,142.1638095238096
599.98,138.7745238095239
602.599,154.2950952380953
605.216,142.05906190476196
607.831,126.25675238095245
610.445,108.45929047619053
613.056,97.18943809523819
615.666,126.87438571428581
618.274,157.32194285714294
620.88,176.24503809523821
623.484,180.35585714285725
626.086,173.55719047619058
628.686,183.98904761904777
631.284,229.45790476190493
633.881,266.34166666666687
636.476,316.1134761904764
639.068,331.626761904762
641.659,303.2590952380954
644.249,269.1966666666668
646.836,221.62589523809532
649.421,165.87607619047628
652.005,126.70477333333338
654.587,73.44074952380956
657.166,36.174913333333365
659.745,29.902426666666692
662.321,25.475713333333367
664.895,51.9854447619048
667.468,52.66499714285716
670.038,37.366842857142885
672.607,49.22928571428576
675.174,44.77153809523813
677.739,43.98910000000004
680.303,56.68714761904764
682.864,68.90884476190482
685.424,70.50735904761909
687.982,62.764432380952385
690.538,32.53325523809525
693.092,10.381537142857152
695.645,11.25803390476195
698.195,33.635361047619064
700.744,42.41518495238097
703.291,25.927661809523826
705.836,26.59839923809526
708.38,25.47217819047622
710.921,48.59390819047623
713.461,59.62770000000004
715.999,67.7615904761905
718.535,52.70752380952383
721.069,58.17761428571433
723.602,65.55070476190481
726.133,68.15813333333338
728.662,80.33133333333338
731.189,81.68760000000003
733.714,58.70143333333338
736.238,62.56171428571433
738.759,65.3145523809524
741.279,54.19663809523813
743.798,54.01615238095241
746.314,58.39097619047622
748.829,64.12944761904767
751.342,63.08765714285717
753.853,61.74078571428574
756.362,47.5641761904762
758.869,27.080771428571452
761.375,27.861314285714318
763.879,35.143238095238125
766.381,61.306814285714346
768.882,79.87546190476193
771.38,73.22973809523813
773.877,74.46435714285718
776.372,74.15060952380955
778.866,53.95500952380957
781.357,66.59138095238099
783.847,83.72657619047625
786.335,95.74152857142863
788.821,107.4933285714286
791.306,86.26789523809526
793.789,67.16074285714289
796.27,59.647971428571495
798.749,84.01559047619057
801.227,116.54977619047627
803.702,147.53681904761913
806.176,163.73904761904774
808.649,188.10940952380963
811.119,179.17205238095244
813.588,149.16562857142864
816.055,118.13832857142864
818.521,100.37696190476197
820.984,105.02495714285722
823.446,112.84519523809529
825.906,117.8859714285715
828.365,110.05309047619055
830.821,120.25206666666674
833.276,100.96024761904768
835.729,106.27352380952388
838.181,112.57426190476198
840.631,114.38711428571436
843.079,90.4752428571429
845.525,82.45887142857146
847.97,55.14863809523814
850.412,48.11706666666671
852.854,61.175123809523846
855.293,65.03822857142859
857.731,55.945800000000034
860.167,53.327749523809544
862.601,34.56634000000001
865.034,21.329603809523835
867.465,32.666540952380984
869.894,45.29282761904765
872.321,56.01943047619051
874.747,59.133506666666676
877.171,24.303128571428584
879.594,25.101228571428617
882.014,63.29112380952388
884.433,101.8267476190477
886.851,135.23333333333338
889.266,136.03627142857147
891.68,100.71323333333338
894.092,70.02763809523815
896.503,66.36202380952385
898.912,84.3369333333334
901.319,94.00130476190482
903.724,99.78538571428577
906.128,101.54792857142863
908.53,93.76627619047625
910.931,102.8710333333334
913.329,108.43486666666672
915.726,99.74490476190482
918.122,80.42183333333337
920.516,67.08620952380957
922.908,70.69161428571434
925.298,65.09702380952385
927.687,70.25612857142863
930.074,77.4083666666667
932.459,70.65043333333338
934.843,74.17414761904766
937.225,82.21902380952385
939.605,56.8340428571429
941.984,68.68718571428576
944.361,62.779800000000044
946.736,73.5892190476191
949.11,75.30732857142863
951.482,90.9830571428572
953.853,96.66515238095243
956.222,103.83083809523814
958.589,97.71947619047623
960.954,78.85580000000002
963.318,69.85998571428578
965.68,80.3998952380953
968.041,88.47646190476195
970.4,76.80493238095241
972.757,51.910025238095244
975.113,21.697388571428586
977.467,4.739150952380955
979.819,8.32192952380954
982.17,15.541688571428578
984.519,14.399160476190485
986.866,7.752125238095257
989.212,28.410740476190508
991.556,47.94708333333339
993.899,80.21875857142862
996.24,93.13102952380956
998.579,84.68430952380956
1000.92,57.545638095238125
1003.25,57.810553333333374
1005.59,45.955600952380976
1007.92,49.36190190476194
1010.25,56.07727047619051
1012.58,61.38754952380957
1014.91,64.05468666666671
1017.24,73.03108190476192
1019.56,59.88815714285719
1021.88,73.34011428571435
1024.2,91.76789047619054
1026.52,112.2663714285715
1028.84,154.78773809523818
1031.16,165.14127619047628
1033.48,165.66023809523818
1035.79,178.67728571428583
1038.1,193.62085714285726
1040.41,203.6331904761906
1042.72,207.23790476190487
1045.03,191.33890476190487
1047.33,177.17419047619057
1049.64,162.3141904761906
1051.94,148.2345238095239
1054.24,152.0298095238096
1056.54,147.46152380952392
1058.84,168.76680952380966
1061.13,189.61195238095252
1063.43,179.37695238095245
1065.72,165.82242857142867
1068.01,176.47166666666678
1070.3,182.800142857143
1072.59,180.66390476190486
1074.87,181.68138095238103
1077.16,178.61338095238108
1079.44,188.45866666666683
1081.72,221.2643333333335
1084.0,261.5530000000002
1086.28,306.8471428571431
1088.56,404.5747142857146
1090.84,511.0202380952384
1093.11,586.2777142857146
1095.38,607.3940000000003
1097.65,557.3200000000003
1099.92,476.05447619047635
1102.19,402.5011904761907
1104.46,344.9925714285717
1106.72,312.05085714285735
1108.98,338.4371904761907
1111.24,377.8166666666669
1113.5,425.4260476190479
1115.76,453.4072857142859
1118.02,450.56866666666696
1120.28,432.4803333333336
1122.53,405.66504761904787
1124.78,367.74019047619066
1127.03,334.5618571428574
1129.28,314.2717142857145
1131.53,281.2016190476192
1133.77,261.2551904761906
1136.02,215.47900000000013
1138.26,173.58590476190489
1140.5,168.57461904761917
1142.74,169.82471428571438
1144.98,163.6207142857144
1147.22,178.81842857142868
1149.45,195.1790000000001
1151.69,200.1297142857144
1153.92,195.6690476190477
1156.15,173.08147619047628
1158.38,148.55627619047627
1160.61,126.56830000000008
1162.83,119.54510476190484
1165.06,113.10457619047625
1167.28,87.1026952380953
1169.5,82.6335571428572
1171.72,79.5531952380953
1173.94,88.24152380952387
1176.16,103.74487619047625
1178.37,111.72885238095243
1180.58,100.6686066666667
1182.8,76.65830904761906
1185.01,38.69689904761907
1187.22,29.9740623809524
1189.42,10.107670476190485
1191.63,18.71588428571431
1193.84,13.131110476190484
1196.04,35.40003142857148
1198.24,58.47417714285719
1200.44,86.35277428571435
1202.64,76.8922323809524
1204.84,61.09188952380953
1207.03,25.71300476190479
1209.23,39.135985714285745
1211.42,33.741347619047644
1213.61,39.67157619047621
1215.8,34.688280952380964
1217.99,22.505581904761925
1220.18,10.790053333333347
1222.36,21.11314952380954
1224.55,28.80837047619051
1226.73,40.73308761904765
1228.91,58.31620095238098
1231.09,41.74866285714286
1233.27,38.03101428571432
1235.44,53.54487619047624
1237.62,78.67203809523814
1239.79,84.17526952380956
1241.96,65.24601952380952
1244.13,37.50451047619052
1246.3,54.999547142857196
1248.47,72.5895533333334
1250.64,89.89485285714292
1252.8,109.34556476190481
1254.96,110.46713333333341
1257.13,136.78525714285723
1259.29,176.11106666666677
1261.44,208.6844761904763
1263.6,218.4594285714287
1265.76,237.91400000000016
1267.91,220.28871428571438
1270.06,181.77623809523817
1272.22,147.2830952380953
1274.37,129.09761904761913
1276.51,109.17409523809532
1278.66,114.5148095238096
1280.81,127.36057142857152
1282.95,139.4758095238096
1285.09,148.814961904762
1287.23,143.61889047619053
1289.37,127.12797142857147
1291.51,94.39244285714291
1293.65,69.22447142857146
1295.78,79.24592857142864
1297.92,72.03077619047623
1300.05,63.9150190476191
1302.18,83.85368095238101
1304.31,91.99256190476196
1306.44,99.04854285714295
1308.57,134.92912380952387
1310.69,129.44656190476198
1312.82,113.65109523809532
1314.94,126.64066666666677
1317.06,157.70409523809536
1319.18,191.27266666666682
1321.3,236.77742857142874
1323.41,257.2688571428573
1325.53,259.4639047619049
1327.64,274.46047619047636
1329.75,298.54733333333354
1331.87,305.7744285714287
1333.98,296.38228571428584
1336.08,261.0880000000002
1338.19,247.13228571428584
1340.3,226.66047619047632
1342.4,206.48480952380964
1344.5,191.0360095238096
1346.6,144.26889047619053
1348.7,119.56687619047628
1350.8,131.55113809523817
1352.9,120.50969047619054
1354.99,117.58756666666675
1357.09,126.8824333333334
1359.18,116.2532476190477
1361.27,124.74971904761912
1363.36,143.42126666666675
1365.45,153.12700000000007
1367.54,157.6304761904763
1369.62,156.21957142857153
1371.7,154.13361904761916
1373.79,169.27900000000014
1375.87,201.56190476190488
1377.95,227.17409523809536
1380.03,210.83114285714294
1382.1,170.43933333333342
1384.18,147.14221904761914
1386.25,126.84583809523818
1388.33,122.64610476190484
1390.4,109.87708095238101
1392.47,95.20612857142862
1394.54,76.11004761904766
1396.6,64.6842904761905
1398.67,51.02457619047622
1400.74,37.607185714285734
1402.8,27.860758095238122
1404.86,24.07094857142858
1406.92,23.047049523809548
1408.98,32.78869428571432
1411.04,54.48587809523813
1413.09,61.51890571428576
1415.15,76.17272000000004
1417.2,93.06552857142863
1419.25,91.43444761904767
1421.3,81.80215238095242
1423.35,83.31032857142861
1425.4,65.67180952380956
1427.45,59.0279190476191
1429.49,68.23429523809527
1431.54,74.62253333333338
1433.58,77.42899047619052
1435.62,75.22324285714289
1437.66,68.33657142857146
1439.7,63.766852380952415
1441.74,60.273832380952435
1443.77,56.6647204761905
1445.81,59.69909809523812
1447.84,48.56494619047623
1449.87,47.30735523809528
1451.9,66.39989666666672
1453.93,86.31601809523815
1455.96,85.24343333333339
1457.98,84.36976666666672
1460.01,95.6922714285715
1462.03,104.445861904762
1464.05,128.29444285714297
1466.07,148.9013142857144
1468.09,173.40648571428585
1470.11,186.759142857143
1472.13,225.00390476190492
1474.14,239.32819047619063
1476.16,245.3001904761906
1478.17,229.91652380952394
1480.18,213.55530476190486
1482.19,169.5464714285715
1484.2,160.69620000000006
1486.21,119.62083809523816
1488.21,88.79315714285718
1490.22,66.06737428571432
1492.22,47.011960000000016
1494.22,15.62379619047622
1496.22,34.85209714285716
1498.22,38.17033523809526
1500.22,29.57560619047621
1502.22,37.92228095238097
1504.21,28.398082380952395
1506.21,22.71463523809527
1508.2,41.05986047619051
1510.19,65.43125809523814
1512.18,60.49311428571432
1514.17,64.57645238095242
1516.16,61.726671428571464
1518.14,44.70358571428574
1520.13,35.74331904761907
1522.11,22.60589047619049
1524.09,30.146585714285756
1526.07,52.220964761904796
1528.05,64.30366000000002
1530.03,38.44087714285714
1532.01,24.059959047619056
1533.98,29.492877142857196
1535.96,55.07203619047624
1537.93,81.98709333333339
1539.9,98.04676666666668
1541.87,77.34567619047623
1543.84,67.54998571428577
1545.81,76.5638285714286
1547.78,65.91090476190482
1549.74,73.49581904761911
1551.7,108.88981428571437
1553.67,137.95025714285723
1555.63,158.24851428571438
1557.59,171.40402857142865
1559.55,148.08370000000005
1561.5,133.38306666666676
1563.46,145.68372857142867
1565.41,151.65311428571437
1567.37,154.24389047619056
1569.32,162.40948571428578
1571.27,158.76961904761916
1573.22,166.27728571428582
1575.17,177.36245714285724
1577.11,154.0736238095239
1579.06,129.982961904762
1581.0,117.28247142857151
1582.95,125.73500952380964
1584.89,155.86562380952392
1586.83,159.7231714285715
1588.77,162.69004761904773
1590.7,169.29095238095246
1592.64,167.81338095238104
1594.58,166.87757142857149
1596.51,148.08035714285725
1598.44,100.92323809523819
