Raman Shift,Processed Intensity
331.095,110.74578761904749
333.909,41.30840809523795
336.721,8.622743095237979
339.531,-0.18610571428570344
342.339,-0.5170919047619059
345.145,2.397816666666654
347.949,-24.05330714285714
350.751,-1.4340498095237972
353.55,9.645130190476198
356.348,15.288881809523822
359.144,11.602714095238097
361.937,13.597768952380962
364.729,6.857448761904797
367.518,26.632994476190532
370.306,84.84306190476201
373.091,182.31179047619065
375.874,269.4837476190478
378.656,308.18576190476205
381.435,285.2451333333334
384.212,202.30042380952386
386.988,134.0385333333334
389.761,58.24263333333333
392.532,-7.159742857142877
395.301,-26.334861904761894
398.068,-15.495861904761881
400.833,9.574501904761936
403.596,41.808876
406.358,29.046039571428565
409.117,-6.778814190476183
411.874,14.032732333333353
414.629,19.9898600952381
417.382,3.269678619047612
420.133,-5.997218285714277
422.882,8.03553142857147
425.629,56.691171428571536
428.374,153.8657761904763
431.117,218.69483333333343
433.858,218.0286952380953
436.597,204.81410476190484
439.334,153.14215238095244
442.069,133.199361904762
444.802,104.93547619047624
447.533,87.3963714285715
450.262,112.00909523809534
452.989,164.82093333333347
455.714,212.4513809523811
458.438,221.47297619047626
461.159,177.98245714285719
463.878,130.60146190476198
466.595,109.38036190476198
469.31,99.89396666666676
472.024,127.95557142857149
474.735,112.90284285714293
477.444,111.2642095238096
480.152,124.71206190476198
482.857,123.29935238095247
485.561,124.55574761904771
488.262,135.0592476190477
490.962,139.05411428571435
493.659,127.26161428571436
496.355,119.9269428571429
499.048,103.05690952380958
501.74,103.27822857142863
504.43,103.74156666666676
507.118,139.73978095238107
509.804,149.4712857142858
512.488,182.51509523809537
515.17,219.92685714285727
517.85,250.6194761904763
520.528,234.8385047619049
523.204,187.1631952380953
525.878,141.83948571428581
528.551,135.5417476190477
531.221,132.65878095238105
533.89,113.24571904761909
536.556,106.7857428571429
539.221,85.42929523809532
541.883,106.04060000000008
544.544,133.62677142857152
547.203,147.90882857142864
549.86,125.55995238095247
552.515,107.25319047619054
555.168,143.75684761904773
557.819,149.6480857142858
560.469,160.0278380952382
563.116,154.90153333333342
565.761,139.03602857142866
568.405,139.53180000000015
571.047,173.39360952380963
573.687,186.1969523809525
576.324,190.6125238095239
578.96,180.7870476190477
581.594,191.72380952380962
584.227,197.14023809523817
586.857,177.03933333333345
589.485,173.75661904761915
592.112,153.6752380952382
594.737,152.3687142857144
597.359,163.4098095238096
599.98,144.1328095238096
602.599,144.205580952381
605.216,116.39043809523815
607.831,102.0212095238096
610.445,104.81203809523815
613.056,93.76248571428577
615.666,76.15745238095245
618.274,109.13903809523816
620.88,113.80112857142865
623.484,125.33274285714296
626.086,172.77958571428584
628.686,207.9018000000001
631.284,237.07776190476207
633.881,247.6860476190477
636.476,233.05714285714296
639.068,205.09276190476203
641.659,216.21807619047632
644.249,207.47745238095249
646.836,197.58126761904768
649.421,124.71633904761907
652.005,81.21221714285718
654.587,35.39818095238098
657.166,34.36503238095242
659.745,44.9657047619048
662.321,59.67201714285717
664.895,69.57473428571434
667.468,99.38366761904767
670.038,73.2371619047619
672.607,47.03546190476192
675.174,13.726414285714279
677.739,-8.932585714285691
680.303,-0.23173809523806987
682.864,37.443642857142905
685.424,67.70816952380957
687.982,74.12897190476193
690.538,53.93987714285717
693.092,43.89863571428573
695.645,17.382100952380963
698.195,8.95772380952382
700.744,13.145295714285712
703.291,-1.7256957142857137
705.836,2.483819523809542
708.38,11.34161476190477
710.921,22.796460476190507
713.461,46.84485142857146
715.999,59.34054761904764
718.535,60.08978571428575
721.069,77.04176190476194
723.602,64.76477619047623
726.133,64.73199047619052
728.662,70.41668571428575
731.189,67.3874628571429
733.714,47.16542000000002
736.238,39.93842095238098
738.759,44.70388476190481
741.279,61.03083047619053
743.798,66.86937238095243
746.314,90.02659619047624
748.829,79.78630000000004
751.342,63.71787619047624
753.853,65.81938095238098
756.362,68.2318666666667
758.869,71.90598571428578
761.375,77.74466190476194
763.879,84.46086190476194
766.381,78.33880571428575
768.882,51.37715571428574
771.38,44.574630476190514
773.877,60.78732523809528
776.372,68.10930666666673
778.866,102.72990809523816
781.357,101.55318190476194
783.847,94.4830952380953
786.335,94.8046666666667
788.821,77.94596190476196
791.306,70.52535238095243
793.789,73.97081904761907
796.27,62.71062857142864
798.749,91.22081904761912
801.227,124.88191904761914
803.702,122.88458095238104
806.176,168.51439047619058
808.649,202.58076190476203
811.119,224.03614285714295
813.588,215.1668095238096
816.055,199.21057142857154
818.521,164.54923809523822
820.984,179.992761904762
823.446,177.49366666666674
825.906,177.62395238095246
828.365,157.5274285714287
830.821,142.87118095238102
833.276,109.51344285714292
835.729,118.26450476190482
838.181,106.36331904761911
840.631,96.95364761904769
843.079,117.08449047619057
845.525,114.80440952380957
847.97,80.54316190476196
850.412,71.82562380952385
852.854,51.558038095238125
855.293,39.21796190476195
857.731,57.80705238095241
860.167,68.32661428571433
862.601,70.73065238095242
865.034,79.3541390476191
867.465,65.0558842857143
869.894,49.79002095238097
872.321,39.98694904761908
874.747,45.4104066666667
877.171,54.82421761904767
879.594,75.99228190476194
882.014,63.24995714285718
884.433,75.40864761904768
886.851,108.23239047619055
889.266,139.58083809523816
891.68,162.55103809523817
894.092,155.14537619047624
896.503,117.27082380952386
898.912,102.40557619047627
901.319,105.1234238095239
903.724,131.61746190476202
906.128,171.8895000000001
908.53,179.2754476190477
910.931,160.0633190476191
913.329,125.25540000000005
915.726,89.75876190476195
918.122,70.86148095238102
920.516,88.2798857142858
922.908,125.06407142857152
925.298,150.21620476190486
927.687,154.02440000000007
930.074,136.68130000000005
932.459,88.95103333333338
934.843,78.40708095238102
937.225,86.09924761904766
939.605,88.41040476190481
941.984,82.62848571428574
944.361,70.08874285714289
946.736,43.60268571428574
949.11,56.21988571428576
951.482,60.51353809523813
953.853,68.15207619047624
956.222,86.80395238095244
958.589,83.13742380952385
960.954,76.8207190476191
963.318,89.28405238095243
965.68,90.90966190476196
968.041,82.1274666666667
970.4,70.22446666666667
972.757,46.05894761904765
975.113,42.679616190476224
977.467,42.849478190476226
979.819,37.188345333333345
982.17,28.316088285714297
984.519,12.995292761904789
986.866,37.36941590476197
989.212,84.29609104761911
991.556,102.01387390476197
993.899,111.28505238095244
996.24,93.87177142857145
998.579,76.53614095238099
1000.92,55.2783123809524
1003.25,40.38405809523811
1005.59,21.32960666666669
1007.92,39.067515238095275
1010.25,50.359364761904814
1012.58,89.72896476190482
1014.91,93.36652857142862
1017.24,83.36714761904766
1019.56,81.8732952380953
1021.88,84.21813809523817
1024.2,108.63966666666677
1026.52,147.18496666666675
1028.84,172.2821047619049
1031.16,192.07366666666678
1033.48,212.65433333333345
1035.79,189.88061904761915
1038.1,195.9903809523811
1040.41,196.17300000000012
1042.72,222.52328571428586
1045.03,235.99285714285728
1047.33,239.20042857142866
1049.64,204.09733333333344
1051.94,189.9210000000001
1054.24,166.38471428571438
1056.54,167.72600000000008
1058.84,172.4674761904763
1061.13,191.37042857142868
1063.43,190.6719523809525
1065.72,208.37100000000012
1068.01,187.18119047619058
1070.3,171.57757142857156
1072.59,179.46361904761918
1074.87,195.124142857143
1077.16,197.84390476190487
1079.44,219.71690476190486
1081.72,221.93252380952399
1084.0,245.58471428571448
1086.28,324.4341904761908
1088.56,414.9084285714289
1090.84,507.76809523809555
1093.11,559.2977142857145
1095.38,566.4007619047622
1097.65,535.552142857143
1099.92,487.5603809523812
1102.19,425.85233333333355
1104.46,387.3790000000002
1106.72,341.0916666666668
1108.98,342.65552380952397
1111.24,383.35480952380976
1113.5,422.9502380952384
1115.76,423.7736666666669
1118.02,431.9190476190479
1120.28,419.19457142857163
1122.53,403.6937142857146
1124.78,403.5578571428574
1127.03,358.8333809523811
1129.28,292.9950000000001
1131.53,238.1367142857144
1133.77,196.54233333333343
1136.02,166.87709523809536
1138.26,177.61585714285727
1140.5,189.18600000000015
1142.74,216.91880952380967
1144.98,226.95609523809537
1147.22,247.15309523809535
1149.45,238.98466666666678
1151.69,218.02080952380962
1153.92,196.59347619047628
1156.15,164.1295238095239
1158.38,141.53246666666678
1160.61,137.27683333333343
1162.83,121.78970476190483
1165.06,105.78357619047625
1167.28,102.92389523809533
1169.5,90.63786190476195
1171.72,80.20978571428576
1173.94,70.40002380952384
1176.16,63.34997142857148
1178.37,57.3437428571429
1180.58,64.2370904761905
1182.8,58.40963809523813
1185.01,56.38380952380956
1187.22,63.39638095238099
1189.42,48.16040000000001
1191.63,28.627014285714303
1193.84,21.080880000000015
1196.04,12.235270476190491
1198.24,22.13689333333337
1200.44,45.45155809523813
1202.64,68.8929933333334
1204.84,87.12710857142862
1207.03,95.48675142857147
1209.23,71.82867619047622
1211.42,40.58119523809525
1213.61,25.887038095238122
1215.8,16.651047619047624
1217.99,14.920843809523827
1220.18,15.88715142857143
1222.36,5.788445238095241
1224.55,4.244276190476215
1226.73,29.16009666666669
1228.91,45.67954000000004
1231.09,63.42256809523813
1233.27,60.05690761904764
1235.44,49.5361047619048
1237.62,66.48046190476195
1239.79,71.3676047619048
1241.96,68.05620952380956
1244.13,71.92893333333339
1246.3,73.46351904761912
1248.47,86.32843809523817
1250.64,112.00200476190483
1252.8,126.96236190476199
1254.96,150.02104761904772
1257.13,166.51385714285726
1259.29,199.34742857142874
1261.44,226.09576190476204
1263.6,234.42795238095255
1265.76,256.0607142857144
1267.91,261.4727523809525
1270.06,194.47632380952393
1272.22,155.74069523809533
1274.37,122.41139047619055
1276.51,109.72917142857152
1278.66,134.31603809523818
1280.81,140.2701333333334
1282.95,134.59439047619057
1285.09,126.33929523809533
1287.23,126.9836857142858
1289.37,143.67366666666675
1291.51,125.50740000000005
1293.65,97.72605238095244
1295.78,88.66609047619052
1297.92,61.806580952381
1300.05,47.67435238095242
1302.18,62.51073333333337
1304.31,56.46145238095243
1306.44,73.9581571428572
1308.57,106.71822857142865
1310.69,131.8874952380953
1312.82,141.94509047619056
1314.94,151.22730476190486
1317.06,145.02271428571436
1319.18,132.71533333333343
1321.3,156.1174761904763
1323.41,184.70828571428584
1325.53,214.72876190476205
1327.64,249.6576190476192
1329.75,278.40247619047636
1331.87,293.39442857142876
1333.98,293.3503333333335
1336.08,270.8440952380954
1338.19,245.16428571428585
1340.3,217.88433333333344
1342.4,195.625761904762
1344.5,183.24795238095248
1346.6,158.41990476190483
1348.7,152.33385714285725
1350.8,129.70636666666672
1352.9,93.87236666666672
1354.99,71.92899523809528
1357.09,68.4496333333334
1359.18,89.5786333333334
1361.27,105.31729047619052
1363.36,118.1910476190477
1365.45,130.8199333333334
1367.54,144.6816095238096
1369.62,142.15792380952388
1371.7,142.20254285714293
1373.79,140.3400000000001
1375.87,174.42828571428583
1377.95,200.99166666666676
1380.03,204.17390476190488
1382.1,201.54666666666677
1384.18,183.06333333333342
1386.25,170.5334857142858
1388.33,137.52849523809527
1390.4,94.9057285714286
1392.47,57.85578571428576
1394.54,40.902366666666694
1396.6,51.47430285714291
1398.67,55.52360523809526
1400.74,34.192677142857164
1402.8,48.909985238095274
1404.86,54.293967619047635
1406.92,41.344048095238136
1408.98,52.107407619047635
1411.04,50.86894285714288
1413.09,34.67547619047623
1415.15,51.57400000000003
1417.2,51.9442666666667
1419.25,65.02359047619052
1421.3,58.286880952381
1423.35,75.92335238095242
1425.4,89.78911904761911
1427.45,85.40650952380958
1429.49,65.6312047619048
1431.54,70.65245238095241
1433.58,52.23042857142862
1435.62,53.07781428571434
1437.66,64.52653333333336
1439.7,76.28912380952386
1441.74,84.64936190476197
1443.77,95.41499047619052
1445.81,88.96509523809529
1447.84,84.91672380952386
1449.87,67.2203666666667
1451.9,72.15987619047624
1453.93,79.06633333333336
1455.96,76.27105238095243
1457.98,79.15292380952387
1460.01,97.70949047619054
1462.03,110.74831904761913
1464.05,136.79080476190487
1466.07,162.12045714285725
1468.09,188.592142857143
1470.11,219.4418095238097
1472.13,236.5716190476192
1474.14,264.217523809524
1476.16,267.47195238095253
1478.17,239.95180952380966
1480.18,205.559361904762
1482.19,165.3874952380953
1484.2,113.43370952380958
1486.21,83.40988095238099
1488.21,64.88479523809528
1490.22,40.52284761904765
1492.22,51.55960952380958
1494.22,53.9925666666667
1496.22,60.05736190476193
1498.22,50.51343809523812
1500.22,62.83451904761908
1502.22,48.30386190476193
1504.21,45.157152380952404
1506.21,45.9633466666667
1508.2,41.2438823809524
1510.19,49.28205047619052
1512.18,59.64690333333334
1514.17,39.621826666666685
1516.16,25.633063333333357
1518.14,42.440199047619075
1520.13,29.23147142857146
1522.11,41.48085238095241
1524.09,57.90043333333337
1526.07,51.82145238095241
1528.05,57.81330000000004
1530.03,43.20731428571428
1532.01,27.906352380952413
1533.98,41.718130476190524
1535.96,48.97418047619051
1537.93,63.577584761904816
1539.9,82.71727190476193
1541.87,68.72505142857148
1543.84,74.45668047619053
1545.81,93.48223047619052
1547.78,100.80035238095246
1549.74,116.21948571428578
1551.7,125.54795238095245
1553.67,123.35605238095245
1555.63,114.21460952380961
1557.59,128.7413761904763
1559.55,149.9357333333334
1561.5,138.9872857142858
1563.46,160.51426666666677
1565.41,150.0397666666667
1567.37,139.2302000000001
1569.32,136.2749952380953
1571.27,140.79342857142865
1573.22,113.54659047619056
1575.17,137.4390095238096
1577.11,143.32760476190487
1579.06,171.06898095238108
1581.0,176.18682380952393
1582.95,169.5383238095239
1584.89,150.9330000000001
1586.83,147.8470476190477
1588.77,143.75661904761915
1590.7,169.23309523809533
1592.64,167.038761904762
1594.58,146.31628571428584
1596.51,133.68500000000034
1598.44,145.47840476190547
