Raman Shift,Processed Intensity
331.095,89.0648733333329
333.909,-29.802722857142967
336.721,-54.64935928571428
339.531,-24.532300952380922
342.339,5.680925238095244
345.145,33.36193619047621
347.949,14.02794142857142
350.751,23.817236190476194
353.55,-1.8441223809523741
356.348,3.6626180952380953
359.144,-13.565790476190477
361.937,-8.906580952380953
364.729,-21.020828571428517
367.518,79.52797142857156
370.306,204.60665714285736
373.091,354.179204761905
375.874,489.4020190476193
378.656,534.5285714285717
381.435,475.2902380952383
384.212,378.6107047619049
386.988,213.2723952380953
389.761,115.77375238095247
392.532,79.56713809523816
395.301,75.20183809523816
398.068,67.8478428571429
400.833,81.10516190476194
403.596,50.003809523809544
406.358,38.242095238095246
409.117,16.13863714285714
411.874,-3.891222380952394
414.629,-21.049787619047603
417.382,3.033531904761918
420.133,9.158902857142877
422.882,15.50878714285719
425.629,86.40991809523823
428.374,189.713723809524
431.117,329.844204761905
433.858,413.3216190476192
436.597,399.9526666666668
439.334,338.4499047619049
442.069,288.9558571428573
444.802,234.4228571428573
447.533,239.61371428571442
450.262,273.38676190476207
452.989,286.7917619047621
455.714,330.8788095238097
458.438,356.0804857142858
461.159,285.8291523809525
463.878,217.17701904761918
466.595,179.0811333333334
469.31,137.11844761904774
472.024,145.1993904761906
474.735,183.42591428571438
477.444,211.0420571428573
480.152,190.483461904762
482.857,192.32830476190486
485.561,180.72696666666678
488.262,202.02035238095254
490.962,213.54998571428587
493.659,243.27572380952392
496.355,198.01519047619058
499.048,168.44295238095248
501.74,131.7580000000001
504.43,134.25409523809532
507.118,134.0352380952382
509.804,161.49071428571438
512.488,190.96209523809537
515.17,222.31471428571442
517.85,223.17590476190486
520.528,190.64909523809536
523.204,157.21892380952386
525.878,120.13152380952387
528.551,80.8234952380953
531.221,77.34997142857148
533.89,69.90926190476195
536.556,67.31842857142863
539.221,87.72806190476196
541.883,94.00220000000004
544.544,87.76693809523815
547.203,83.98129047619052
549.86,84.74741904761912
552.515,97.97633809523818
555.168,100.67427619047626
557.819,110.32331904761914
560.469,134.69103809523818
563.116,121.25884285714294
565.761,128.41297142857152
568.405,128.2056333333334
571.047,134.54633333333345
573.687,129.5823476190477
576.324,141.84163809523815
578.96,117.32744761904769
581.594,111.51958095238103
584.227,116.8968380952382
586.857,165.7954761904763
589.485,160.36075714285724
592.112,172.02356190476198
594.737,155.88052857142864
597.359,134.36213333333342
599.98,138.70710000000008
602.599,140.48769523809528
605.216,112.2282333333334
607.831,98.35746666666672
610.445,94.58947142857151
613.056,102.78098095238103
615.666,106.5024571428572
618.274,103.3244190476191
620.88,102.76895714285723
623.484,111.16789523809533
626.086,141.75732857142867
628.686,189.10644761904774
631.284,209.68890476190492
633.881,235.6447142857144
636.476,215.92290476190485
639.068,185.28238095238106
641.659,165.86209523809532
644.249,160.5158857142858
646.836,135.33483809523815
649.421,145.1716285714286
652.005,105.11728095238101
654.587,86.3102952380953
657.166,87.0311952380953
659.745,108.9899333333334
662.321,98.94323809523816
664.895,120.36215238095245
667.468,101.47977142857148
670.038,97.43378095238101
672.607,98.59958095238102
675.174,101.11506190476194
677.739,92.3083571428572
680.303,108.36440476190481
682.864,96.0876190476191
685.424,117.18725238095246
687.982,112.65791428571434
690.538,118.49469523809532
693.092,75.2643142857143
695.645,59.152228571428594
698.195,27.296980952380967
700.744,37.93247142857146
703.291,29.14962857142862
705.836,82.5634047619048
708.38,77.26557619047624
710.921,106.34776666666674
713.461,100.66388571428577
715.999,142.97262857142866
718.535,132.41386190476197
721.069,131.60366666666675
723.602,136.44441904761914
726.133,154.98070476190486
728.662,144.06740476190487
731.189,168.0355714285715
733.714,148.50219047619058
736.238,122.41771428571438
738.759,155.35161904761918
741.279,181.1112380952382
743.798,180.3615238095239
746.314,174.05323809523819
748.829,164.1374761904763
751.342,133.18433333333343
753.853,153.33520952380962
756.362,140.4460333333334
758.869,127.32515380952387
761.375,92.73346690476193
763.879,69.09880523809528
766.381,55.32514023809529
768.882,52.22118142857146
771.38,67.92935738095244
773.877,83.06802523809526
776.372,73.35103333333339
778.866,79.34945714285719
781.357,81.11063809523813
783.847,57.967704761904805
786.335,76.01620000000004
788.821,71.16050952380957
791.306,82.1151190476191
793.789,100.45170952380958
796.27,113.78938095238104
798.749,99.55694285714293
801.227,130.99323809523818
803.702,148.00318095238106
806.176,169.06354285714295
808.649,180.17510476190486
811.119,171.81443809523816
813.588,140.26814285714295
816.055,145.10867619047627
818.521,126.43205714285722
820.984,124.14392380952387
823.446,133.2453714285715
825.906,129.35606666666675
828.365,128.19181904761913
830.821,140.51552380952387
833.276,129.85222857142867
835.729,114.10798095238101
838.181,104.52222380952385
840.631,79.23890952380957
843.079,72.40278571428577
845.525,84.3483190476191
847.97,99.07703333333339
850.412,98.54287142857149
852.854,95.27124285714291
855.293,85.12089047619052
857.731,93.4268714285715
860.167,96.0955428571429
862.601,101.79535238095244
865.034,94.00422380952386
867.465,96.67642380952387
869.894,89.33750000000006
872.321,94.70351904761912
874.747,105.39537142857151
877.171,124.08160952380962
879.594,124.66907142857151
882.014,147.58823809523818
884.433,167.7934761904763
886.851,185.4294761904763
889.266,192.06952380952393
891.68,182.47771428571437
894.092,164.27514285714298
896.503,171.08285714285728
898.912,190.14080952380965
901.319,199.35590476190487
903.724,218.20633333333345
906.128,228.69428571428585
908.53,228.34552380952394
910.931,247.40028571428584
913.329,223.0508571428572
915.726,183.06147619047627
918.122,141.91023809523816
920.516,112.50390476190485
922.908,95.13013333333342
925.298,103.02918095238101
927.687,110.58407619047628
930.074,138.17760000000007
932.459,121.85952380952386
934.843,115.63173333333339
937.225,98.54371714285716
939.605,47.16893619047622
941.984,31.794986666666695
944.361,32.185492380952404
946.736,33.10442000000005
949.11,54.8868647619048
951.482,81.86798857142861
953.853,80.52571904761908
956.222,84.38558571428574
958.589,75.16355238095241
960.954,74.48029523809527
963.318,51.95640000000003
965.68,59.688619047619085
968.041,52.72594285714288
970.4,50.59355714285718
972.757,37.81653333333337
975.113,55.68156666666671
977.467,69.6185190476191
979.819,82.05696190476193
982.17,72.75971428571432
984.519,81.53717619047623
986.866,89.3901952380953
989.212,112.03335714285724
991.556,150.0867000000001
993.899,177.88397142857153
996.24,212.52090476190494
998.579,246.42647619047636
1000.92,268.124761904762
1003.25,240.18728571428585
1005.59,196.1384761904763
1007.92,174.0259523809525
1010.25,172.56414285714294
1012.58,175.324761904762
1014.91,172.54538095238104
1017.24,152.84500000000008
1019.56,128.69980952380962
1021.88,133.34780952380962
1024.2,139.502761904762
1026.52,173.30771428571438
1028.84,205.42828571428583
1031.16,207.76904761904774
1033.48,177.9962380952382
1035.79,172.10976190476197
1038.1,157.72757142857154
1040.41,171.27790476190486
1042.72,187.04557142857152
1045.03,198.74447619047632
1047.33,225.13585714285733
1049.64,260.64757142857155
1051.94,258.1834285714287
1054.24,261.79000000000013
1056.54,245.41928571428585
1058.84,248.4510476190478
1061.13,262.17028571428585
1063.43,277.7186666666669
1065.72,285.80957142857164
1068.01,302.25147619047635
1070.3,318.71028571428593
1072.59,330.51790476190496
1074.87,334.4833333333336
1077.16,352.1764761904764
1079.44,406.78676190476216
1081.72,451.59890476190503
1084.0,502.23076190476223
1086.28,554.2524761904766
1088.56,656.9964285714291
1090.84,802.9853333333339
1093.11,948.2176190476197
1095.38,975.3588571428576
1097.65,871.2649047619051
1099.92,712.9820000000003
1102.19,567.6522380952383
1104.46,497.51280952380984
1106.72,508.7049523809527
1108.98,539.2273809523813
1111.24,590.9834761904765
1113.5,667.4007142857147
1115.76,739.2397619047624
1118.02,772.4519047619052
1120.28,819.2741428571433
1122.53,774.1812380952385
1124.78,710.9814761904765
1127.03,616.5311428571432
1129.28,553.4476190476194
1131.53,492.2541428571432
1133.77,466.711523809524
1136.02,426.7707142857145
1138.26,380.4780000000002
1140.5,342.3088571428574
1142.74,338.69047619047643
1144.98,337.7650476190479
1147.22,361.10319047619066
1149.45,371.9893333333335
1151.69,350.8510476190478
1153.92,330.97323809523823
1156.15,301.5453333333335
1158.38,262.5664095238097
1160.61,215.17863333333344
1162.83,130.95259047619052
1165.06,91.98268095238102
1167.28,83.36378095238102
1169.5,96.09505238095244
1171.72,96.9376571428572
1173.94,96.55771047619052
1176.16,61.7165104761905
1178.37,56.46107809523814
1180.58,44.743565714285744
1182.8,56.182410476190505
1185.01,37.396326190476216
1187.22,54.242200000000025
1189.42,33.05304476190477
1191.63,28.87633333333335
1193.84,17.854721904761927
1196.04,38.65489142857146
1198.24,52.65767000000006
1200.44,88.72029619047625
1202.64,107.50989047619052
1204.84,112.83609809523814
1207.03,87.65159428571431
1209.23,49.433001904761916
1211.42,16.03780380952382
1213.61,-2.533357142857129
1215.8,3.6251904761904976
1217.99,23.799718095238116
1220.18,27.943481904761917
1222.36,34.00976190476193
1224.55,39.428090476190505
1226.73,52.29480952380956
1228.91,64.18245714285717
1231.09,69.04457619047622
1233.27,51.69192380952383
1235.44,34.840080952380966
1237.62,28.157014285714318
1239.79,24.786985714285734
1241.96,38.96951904761908
1244.13,57.03935714285718
1246.3,64.42655238095242
1248.47,57.4659723809524
1250.64,40.96866761904762
1252.8,20.412378095238115
1254.96,13.179632380952398
1257.13,24.891025714285743
1259.29,34.50054857142858
1261.44,28.724039047619055
1263.6,24.18213809523813
1265.76,36.06690000000003
1267.91,50.37988095238101
1270.06,90.45585714285721
1272.22,114.77259047619054
1274.37,139.28396666666674
1276.51,130.94376666666673
1278.66,117.9441333333334
1280.81,108.28629047619056
1282.95,120.73341904761914
1285.09,118.09651904761914
1287.23,142.37687619047625
1289.37,136.147380952381
1291.51,141.17128571428577
1293.65,129.11640476190482
1295.78,115.84115238095241
1297.92,87.25155238095243
1300.05,75.2059190476191
1302.18,79.41971428571435
1304.31,81.32268571428577
1306.44,99.24934761904771
1308.57,139.34381904761915
1310.69,165.7021523809525
1312.82,190.61123333333344
1314.94,211.92925714285727
1317.06,190.13333333333344
1319.18,181.89128571428586
1321.3,203.58504761904774
1323.41,201.4533333333335
1325.53,236.06880952380973
1327.64,281.71809523809543
1329.75,319.6401428571431
1331.87,342.07395238095256
1333.98,357.73433333333355
1336.08,355.3840476190478
1338.19,373.3572857142859
1340.3,351.4165714285716
1342.4,330.13442857142877
1344.5,264.22561904761915
1346.6,213.64309523809538
1348.7,179.2925714285716
1350.8,212.8410476190478
1352.9,205.38428571428582
1354.99,218.87523809523822
1357.09,223.1716190476192
1359.18,250.84547619047638
1361.27,265.9926666666669
1363.36,328.8990476190478
1365.45,359.7081428571431
1367.54,382.9916666666669
1369.62,402.70247619047643
1371.7,427.412285714286
1373.79,443.50238095238126
1375.87,463.6870476190479
1377.95,483.06228571428596
1380.03,464.2947142857146
1382.1,424.6703809523812
1384.18,383.8559523809526
1386.25,340.08985714285734
1388.33,296.4198571428573
1390.4,259.3700476190478
1392.47,225.2736666666668
1394.54,217.36876190476204
1396.6,209.36942857142873
1398.67,218.84728571428585
1400.74,204.99285714285725
1402.8,184.99661904761916
1404.86,192.66823809523822
1406.92,198.67371428571442
1408.98,187.20352380952392
1411.04,200.11461904761916
1413.09,194.02595238095253
1415.15,181.03252380952392
1417.2,201.84833333333344
1419.25,196.61585714285727
1421.3,185.52524761904772
1423.35,164.00481904761912
1425.4,143.0542095238096
1427.45,117.29194285714293
1429.49,128.76525714285722
1431.54,131.47367619047628
1433.58,139.36915238095247
1435.62,126.87957142857151
1437.66,128.8615238095239
1439.7,148.64757142857155
1441.74,172.04709523809532
1443.77,176.29704761904773
1445.81,189.3495238095239
1447.84,186.1082857142858
1449.87,184.23938095238108
1451.9,192.694142857143
1453.93,192.9009523809525
1455.96,188.90609523809536
1457.98,190.80404761904774
1460.01,206.21295238095252
1462.03,226.03652380952394
1464.05,230.0359047619049
1466.07,241.68628571428584
1468.09,236.7007142857144
1470.11,204.55442857142867
1472.13,185.38919047619058
1474.14,185.91814285714298
1476.16,173.61638095238106
1478.17,185.19680952380963
1480.18,176.42038095238104
1482.19,157.42866666666671
1484.2,130.55357142857153
1486.21,125.6510476190477
1488.21,106.43377142857149
1490.22,102.80514761904766
1492.22,68.57354285714288
1494.22,57.49922380952385
1496.22,47.58068095238099
1498.22,55.10234761904766
1500.22,60.300566666666704
1502.22,68.07858095238099
1504.21,62.24427142857148
1506.21,69.9389190476191
1508.2,83.01805238095244
1510.19,65.00393333333335
1512.18,71.32336761904766
1514.17,48.30835095238096
1516.16,39.338273333333376
1518.14,48.07835380952385
1520.13,62.717616190476214
1522.11,41.397498571428606
1524.09,43.687905714285726
1526.07,35.77819047619051
1528.05,31.762314285714318
1530.03,61.54375904761909
1532.01,65.31186142857145
1533.98,54.160680000000035
1535.96,46.75577190476194
1537.93,56.23898000000005
1539.9,72.56156142857151
1541.87,118.29404476190484
1543.84,156.10210476190485
1545.81,166.88966666666678
1547.78,171.46509523809533
1549.74,160.06571428571436
1551.7,146.88147619047626
1553.67,148.48282857142868
1555.63,146.58337619047626
1557.59,138.70646666666673
1559.55,139.70824285714295
1561.5,143.77851428571438
1563.46,138.67899523809533
1565.41,163.50354285714297
1567.37,162.58533333333344
1569.32,156.78119047619057
1571.27,166.94793333333342
1573.22,157.13252857142865
1575.17,134.19186666666675
1577.11,139.36332857142864
1579.06,134.59896190476198
1581.0,138.7558142857144
1582.95,169.357361904762
1584.89,171.68880952380965
1586.83,173.98823809523816
1588.77,168.01738095238105
1590.7,161.0614761904763
1592.64,164.54942857142865
1594.58,172.81407142857154
1596.51,172.11721428571443
1598.44,153.12535714285738
