Raman Shift,Processed Intensity
331.095,59.89686904761852
333.909,-48.4069190476193
336.721,-79.2892261904763
339.531,-57.635985714285695
342.339,-13.310009523809505
345.145,30.32685238095243
347.949,77.70110952380955
350.751,76.76496190476192
353.55,34.32963333333336
356.348,24.017766666666695
359.144,45.54878095238102
361.937,74.88240476190484
364.729,102.12236666666678
367.518,170.27913809523827
370.306,274.46017142857164
373.091,395.6789047619051
375.874,547.7123809523813
378.656,611.5773809523812
381.435,523.8158761904764
384.212,375.5904619047621
386.988,207.82721428571435
389.761,78.54848095238101
392.532,19.873495238095277
395.301,29.113095238095276
398.068,39.484680952380984
400.833,59.1114047619048
403.596,52.40355714285715
406.358,29.67751428571427
409.117,-3.7491204761904804
411.874,-26.605037142857146
414.629,-16.522452857142817
417.382,39.43891333333339
420.133,74.83981380952387
422.882,102.28970571428579
425.629,132.44671523809535
428.374,214.01723809523827
431.117,339.0899285714288
433.858,459.6114761904765
436.597,465.7198571428573
439.334,394.36361904761924
442.069,271.4919523809525
444.802,203.6733809523811
447.533,209.09671428571446
450.262,263.4752857142859
452.989,315.37980952380974
455.714,344.0483809523811
458.438,349.5769619047621
461.159,281.63329047619055
463.878,178.07615714285723
466.595,122.38381428571437
469.31,71.60645238095243
472.024,62.60388095238106
474.735,118.23652857142866
477.444,163.84145714285728
480.152,152.7082476190477
482.857,184.07887619047628
485.561,173.8152761904763
488.262,171.11254285714298
490.962,181.1183904761906
493.659,209.40934285714297
496.355,199.5624285714287
499.048,194.67785714285725
501.74,197.9995238095239
504.43,170.15204761904772
507.118,154.14109523809535
509.804,148.4965238095239
512.488,186.55785714285727
515.17,217.0449523809525
517.85,262.20190476190487
520.528,246.08214285714294
523.204,226.40620000000007
525.878,152.98979523809527
528.551,133.31495238095246
531.221,101.6257571428572
533.89,82.9757428571429
536.556,70.41821428571434
539.221,82.14991428571433
541.883,68.89077619047626
544.544,99.64638095238101
547.203,79.47025714285715
549.86,53.129819047619094
552.515,74.34493333333339
555.168,90.59724761904768
557.819,106.08262380952388
560.469,145.23486666666673
563.116,132.05926666666673
565.761,125.13208571428581
568.405,137.45832380952388
571.047,141.89990476190485
573.687,145.55700000000004
576.324,114.62469047619051
578.96,89.86909523809527
581.594,67.34197619047623
584.227,83.04742857142867
586.857,129.89416666666676
589.485,182.02903809523818
592.112,167.88387142857152
594.737,143.79529047619053
597.359,110.81398571428578
599.98,109.6096714285715
602.599,126.89964285714295
605.216,138.3530714285715
607.831,124.6387571428572
610.445,92.61596666666672
613.056,95.8579095238096
615.666,88.17562380952384
618.274,80.2374428571429
620.88,61.56793809523813
623.484,73.16829523809533
626.086,118.94398095238108
628.686,193.1334000000001
631.284,233.403361904762
633.881,211.37301904761912
636.476,153.9941333333334
639.068,134.0761714285715
641.659,135.47541904761914
644.249,153.095161904762
646.836,169.79178095238103
649.421,146.8494333333334
652.005,112.07588571428576
654.587,99.70745238095242
657.166,92.07545714285719
659.745,93.0822190476191
662.321,82.29713333333336
664.895,55.28882857142859
667.468,48.10216190476196
670.038,51.73410000000004
672.607,63.038923809523865
675.174,78.39415238095242
677.739,98.65400000000005
680.303,90.43392857142862
682.864,104.5400190476191
685.424,100.01623333333337
687.982,69.33508095238098
690.538,39.44504285714288
693.092,25.771314285714293
695.645,20.64322380952384
698.195,25.961919047619055
700.744,17.580590476190473
703.291,9.876442857142862
705.836,0.8933476190476313
708.38,25.532261904761953
710.921,46.31343095238097
713.461,47.61425238095241
715.999,59.2405071428572
718.535,76.4268190476191
721.069,102.2652357142858
723.602,129.99018571428573
726.133,112.26502857142862
728.662,101.65789047619053
731.189,82.87951428571432
733.714,79.35505238095246
736.238,93.70064761904769
738.759,108.19887619047627
741.279,104.70361428571435
743.798,115.54519047619054
746.314,79.6251428571429
748.829,83.74997142857148
751.342,82.29756666666673
753.853,102.4556428571429
756.362,97.55451428571432
758.869,83.02003809523814
761.375,73.6587571428572
763.879,82.08736666666671
766.381,72.92206666666671
768.882,76.82699523809528
771.38,78.89487142857146
773.877,62.599442857142904
776.372,83.27138571428576
778.866,80.52767142857147
781.357,77.55661428571435
783.847,73.45113333333339
786.335,92.87590476190482
788.821,82.06694285714292
791.306,98.68875238095244
793.789,90.21590952380959
796.27,95.59923809523816
798.749,86.07498571428579
801.227,115.11765714285723
803.702,122.86862857142867
806.176,173.61224761904774
808.649,185.44238095238106
811.119,180.45342857142865
813.588,163.4060476190477
816.055,160.15600000000012
818.521,158.035942857143
820.984,160.09275238095245
823.446,160.18280000000007
825.906,136.25809047619055
828.365,123.93709523809532
830.821,134.60043333333343
833.276,137.81915238095246
835.729,149.21237619047628
838.181,157.16111428571435
840.631,136.42725238095244
843.079,98.86824761904766
845.525,90.00847142857148
847.97,71.2767333333334
850.412,94.34058095238102
852.854,97.96259047619053
855.293,74.61986190476192
857.731,35.83730952380956
860.167,53.42570000000006
862.601,77.2434714285715
865.034,102.53020000000006
867.465,131.38290000000006
869.894,127.2792476190477
872.321,96.36420476190483
874.747,118.30636190476197
877.171,122.06046190476198
879.594,126.10464761904771
882.014,146.06072857142865
884.433,165.45441904761913
886.851,159.90761904761916
889.266,177.13728571428584
891.68,189.47976190476203
894.092,214.0329047619049
896.503,224.3714285714287
898.912,221.06933333333345
901.319,206.08233333333345
903.724,195.79433333333347
906.128,203.49447619047632
908.53,201.8050000000001
910.931,185.06295238095248
913.329,170.22371428571438
915.726,150.48138095238104
918.122,150.98233333333346
920.516,159.4442857142858
922.908,137.25169047619053
925.298,116.26547619047626
927.687,109.96511904761911
930.074,106.02118095238103
932.459,116.05658095238101
934.843,98.36042380952385
937.225,70.9841047619048
939.605,56.359680952380984
941.984,52.776552380952424
944.361,51.0003904761905
946.736,56.55860380952383
949.11,22.597658571428582
951.482,24.692593333333363
953.853,34.799346190476214
956.222,31.588131428571444
958.589,27.157696666666677
960.954,25.22576571428573
963.318,35.84342380952386
965.68,55.204414285714314
968.041,67.16914761904765
970.4,76.93140000000005
972.757,74.4941047619048
975.113,55.95545714285718
977.467,47.36600476190476
979.819,27.5854904761905
982.17,26.997452380952428
984.519,42.27105714285719
986.866,80.59881428571437
989.212,123.1732000000001
991.556,182.3296666666668
993.899,214.21267142857155
996.24,215.68086666666676
998.579,210.64023809523823
1000.92,190.33033333333344
1003.25,168.84742857142868
1005.59,160.38290476190483
1007.92,144.46142857142866
1010.25,119.27414285714295
1012.58,133.9640476190477
1014.91,126.81783809523817
1017.24,112.02605238095245
1019.56,105.06467619047626
1021.88,114.26728095238103
1024.2,105.68134285714294
1026.52,124.49710000000009
1028.84,167.4762000000001
1031.16,155.14202857142865
1033.48,167.73181904761913
1035.79,163.05444761904766
1038.1,130.775961904762
1040.41,141.56231428571442
1042.72,167.12645714285725
1045.03,187.61023809523823
1047.33,237.0121904761906
1049.64,243.09328571428583
1051.94,217.28080952380967
1054.24,217.81161904761922
1056.54,224.9697619047621
1058.84,275.37257142857163
1061.13,314.78023809523825
1063.43,304.4292857142858
1065.72,277.8890000000001
1068.01,271.06261904761925
1070.3,282.1861904761907
1072.59,317.6865714285716
1074.87,348.3238571428574
1077.16,353.5241904761907
1079.44,367.6664285714288
1081.72,409.6056190476193
1084.0,455.67257142857176
1086.28,557.294047619048
1088.56,696.9914761904766
1090.84,860.5724285714291
1093.11,981.9390476190481
1095.38,983.8503809523813
1097.65,891.2567142857147
1099.92,770.2508571428575
1102.19,640.8779523809528
1104.46,578.2315238095242
1106.72,561.8802857142861
1108.98,537.3452380952385
1111.24,565.2434761904766
1113.5,640.23880952381
1115.76,707.6622380952385
1118.02,784.5112857142863
1120.28,839.4028571428576
1122.53,843.8103333333337
1124.78,792.3506190476194
1127.03,701.1640000000004
1129.28,609.3911428571432
1131.53,510.88671428571456
1133.77,412.3154285714288
1136.02,365.9604761904764
1138.26,333.0103809523812
1140.5,317.46257142857166
1142.74,345.3149047619049
1144.98,343.3272380952383
1147.22,353.3072380952383
1149.45,372.91957142857166
1151.69,364.1620952380954
1153.92,335.1280952380954
1156.15,304.67295238095255
1158.38,263.2233809523811
1160.61,234.58719047619056
1162.83,205.7155142857144
1165.06,163.03491904761913
1167.28,113.68694761904769
1169.5,84.67020476190483
1171.72,69.60214285714291
1173.94,77.71974666666672
1176.16,74.64110619047622
1178.37,67.17446000000002
1180.58,60.937908095238114
1182.8,37.5496123809524
1185.01,21.104049047619075
1187.22,27.981503809523822
1189.42,30.181414285714325
1191.63,47.274785714285755
1193.84,68.35648095238099
1196.04,75.28353809523814
1198.24,81.53204761904767
1200.44,97.0544333333334
1202.64,126.42215714285722
1204.84,132.30222380952387
1207.03,104.55211428571434
1209.23,73.3629161904762
1211.42,26.068523333333346
1213.61,4.38395142857145
1215.8,15.309895714285737
1217.99,30.514003809523842
1220.18,54.47349952380958
1222.36,89.71326380952385
1224.55,89.61549047619053
1226.73,68.75290476190479
1228.91,68.26971428571433
1231.09,70.50072190476196
1233.27,57.82844809523813
1235.44,66.96877238095243
1237.62,88.54246142857149
1239.79,91.36076761904768
1241.96,98.09216238095242
1244.13,96.73856000000002
1246.3,52.58757619047621
1248.47,24.498376190476222
1250.64,31.80628571428574
1252.8,34.94192380952384
1254.96,48.52647619047624
1257.13,54.75256190476192
1259.29,51.62236190476194
1261.44,53.94755714285718
1263.6,65.01622380952386
1265.76,79.21154285714292
1267.91,110.05930952380959
1270.06,123.99063333333342
1272.22,138.34093333333342
1274.37,137.2078095238096
1276.51,142.30790476190484
1278.66,148.4052380952382
1280.81,161.74028571428582
1282.95,167.12490476190484
1285.09,170.08490476190488
1287.23,156.71795238095248
1289.37,138.59771428571437
1291.51,168.34509523809535
1293.65,190.62944380952388
1295.78,157.07140571428576
1297.92,129.95871619047625
1300.05,88.43628000000005
1302.18,44.839668571428646
1304.31,87.2181676190477
1306.44,115.85953904761911
1308.57,137.47957142857155
1310.69,168.27061904761916
1312.82,204.37723809523823
1314.94,216.80133333333345
1317.06,239.8778571428573
1319.18,235.94133333333343
1321.3,251.32666666666682
1323.41,235.6543809523811
1325.53,269.7354285714287
1327.64,280.38085714285734
1329.75,308.83009523809545
1331.87,331.9887619047621
1333.98,361.81071428571454
1336.08,383.9159523809526
1338.19,405.2581428571432
1340.3,371.4097142857145
1342.4,334.32419047619067
1344.5,287.9548095238097
1346.6,271.4930476190478
1348.7,261.4158095238097
1350.8,274.05747619047634
1352.9,237.60904761904774
1354.99,220.11928571428587
1357.09,229.92219047619062
1359.18,250.6849047619049
1361.27,252.36038095238115
1363.36,308.75866666666684
1365.45,331.6897142857145
1367.54,361.39242857142887
1369.62,395.86700000000025
1371.7,428.68552380952406
1373.79,469.65785714285744
1375.87,509.6411904761908
1377.95,528.064428571429
1380.03,523.0708571428574
1382.1,467.8032380952384
1384.18,410.7858571428573
1386.25,362.590142857143
1388.33,305.4066190476192
1390.4,280.4256666666668
1392.47,264.59976190476203
1394.54,232.59552380952394
1396.6,209.03190476190485
1398.67,199.14685714285724
1400.74,188.130761904762
1402.8,197.60238095238105
1404.86,189.27561904761913
1406.92,193.3411904761906
1408.98,171.51261904761915
1411.04,170.50409523809535
1413.09,163.88661904761915
1415.15,153.61209523809532
1417.2,159.06090476190488
1419.25,192.6137142857144
1421.3,192.60300000000012
1423.35,174.8855952380953
1425.4,162.08014285714296
1427.45,125.7570714285715
1429.49,123.24923809523821
1431.54,145.84169047619056
1433.58,157.91466666666673
1435.62,137.37219047619055
1437.66,139.30876190476198
1439.7,132.151761904762
1441.74,139.6148095238096
1443.77,148.0780476190477
1445.81,147.06433333333342
1447.84,150.38242857142868
1449.87,169.07885714285726
1451.9,193.77176190476203
1453.93,207.65038095238108
1455.96,227.71366666666682
1457.98,226.2936666666668
1460.01,222.8179523809525
1462.03,231.61880952380966
1464.05,227.50485714285728
1466.07,223.665142857143
1468.09,226.62204761904775
1470.11,209.37433333333345
1472.13,198.49223809523818
1474.14,201.8315238095239
1476.16,206.91471428571444
1478.17,241.93101904761915
1480.18,229.45023333333347
1482.19,191.7568000000001
1484.2,152.70633809523815
1486.21,122.29749523809531
1488.21,97.76673809523815
1490.22,91.30321904761905
1492.22,54.95290000000003
1494.22,43.47591428571433
1496.22,59.1564952380953
1498.22,71.51703809523812
1500.22,69.60337142857145
1502.22,61.032942857142885
1504.21,40.51825238095242
1506.21,58.533914285714346
1508.2,93.45907142857149
1510.19,85.43481904761909
1512.18,79.36418571428575
1514.17,66.53117142857145
1516.16,53.17209047619053
1518.14,67.47595238095244
1520.13,80.44081428571434
1522.11,85.96979523809529
1524.09,62.44217142857145
1526.07,56.95170952380957
1528.05,65.25854761904766
1530.03,71.8850428571429
1532.01,84.78188571428576
1533.98,98.42397619047622
1535.96,70.5241333333334
1537.93,81.50995714285722
1539.9,107.95116666666675
1541.87,123.51313809523818
1543.84,150.90891904761912
1545.81,168.61360000000008
1547.78,152.7690476190477
1549.74,156.66014285714297
1551.7,175.9997142857144
1553.67,169.50109523809533
1555.63,165.97271428571437
1557.59,159.9852857142858
1559.55,122.68090476190486
1561.5,118.48714285714294
1563.46,142.21261904761914
1565.41,151.9520000000001
1567.37,171.3234761904763
1569.32,182.18361904761915
1571.27,167.293761904762
1573.22,164.31980952380965
1575.17,182.40404761904773
1577.11,203.49856190476203
1579.06,193.26946666666677
1581.0,180.38269523809535
1582.95,161.07615238095246
1584.89,161.87317142857154
1586.83,166.4877523809525
1588.77,179.63384761904774
1590.7,184.31128571428584
1592.64,188.04328571428582
1594.58,200.42504761904763
1596.51,204.52783333333338
1598.44,191.68480952380963
