Raman Shift,Processed Intensity
331.095,48.02033714285696
333.909,-39.00096761904783
336.721,-73.53414547619063
339.531,-71.96884476190478
342.339,-45.21923190476193
345.145,-43.74611047619049
347.949,-23.602801904761932
350.751,-31.507432857142877
353.55,-23.55677047619047
356.348,-22.655348095238082
359.144,26.15178666666673
361.937,82.29709095238103
364.729,108.35850285714294
367.518,147.53410952380966
370.306,240.97694285714306
373.091,339.60347619047644
375.874,488.4269047619051
378.656,567.414523809524
381.435,532.4882857142859
384.212,370.04714285714294
386.988,204.58776190476195
389.761,91.56035238095245
392.532,26.13067619047623
395.301,26.41898095238101
398.068,54.68969523809525
400.833,39.780166666666695
403.596,32.10062380952383
406.358,60.6818085714286
409.117,37.8891704761905
411.874,55.94669809523812
414.629,35.50821523809524
417.382,14.371726666666682
420.133,-4.4253438095237705
422.882,62.155522857142955
425.629,124.24913809523824
428.374,228.75366190476208
431.117,333.1394476190478
433.858,378.8303333333335
436.597,348.39414285714304
439.334,327.6376190476192
442.069,264.51104761904776
444.802,214.77547619047635
447.533,218.76352380952395
450.262,231.80885714285733
452.989,285.48419047619075
455.714,330.8861428571431
458.438,344.44557142857155
461.159,302.49900952380966
463.878,217.71608095238105
466.595,140.71978095238106
469.31,122.46696666666675
472.024,106.00987619047629
474.735,156.25831904761918
477.444,200.93229523809535
480.152,216.3708571428573
482.857,219.15147619047633
485.561,195.70938095238105
488.262,195.90823809523823
490.962,212.13585714285725
493.659,202.49442857142864
496.355,175.3723523809524
499.048,127.87194761904766
501.74,97.81063809523819
504.43,97.95736666666674
507.118,92.93914285714295
509.804,140.4779666666668
512.488,193.58160000000012
515.17,229.16250476190487
517.85,258.8477904761906
520.528,256.4066704761906
523.204,186.4183561904763
525.878,120.17632666666672
528.551,98.54532000000007
531.221,75.62806476190481
533.89,68.2891990476191
536.556,81.25008952380952
539.221,43.7084380952381
541.883,19.004638095238143
544.544,34.526719047619075
547.203,41.47172857142862
549.86,69.32246666666671
552.515,98.22823333333339
555.168,107.00493809523816
557.819,100.75388571428574
560.469,115.24292380952389
563.116,114.09663809523818
565.761,143.60619047619056
568.405,139.06253809523812
571.047,132.47064761904767
573.687,76.02595714285718
576.324,72.73307619047625
578.96,77.54858571428579
581.594,120.28638095238102
584.227,117.80730476190483
586.857,154.11474285714291
589.485,126.87893809523814
592.112,104.91240000000008
594.737,110.50374761904769
597.359,104.36997619047625
599.98,83.94184285714293
602.599,97.22150952380957
605.216,100.30616190476198
607.831,97.8162571428572
610.445,74.13419523809524
613.056,54.21335714285716
615.666,39.19747142857146
618.274,37.801528571428626
620.88,82.07366190476198
623.484,101.10915238095245
626.086,138.66957142857154
628.686,159.9929238095239
631.284,190.12614285714298
633.881,199.49704761904775
636.476,207.72380952380962
639.068,187.99562857142868
641.659,178.2629857142858
644.249,134.23862857142865
646.836,106.72990000000004
649.421,91.30609047619053
652.005,83.25057142857148
654.587,80.75120952380956
657.166,73.23363714285718
659.745,49.69479904761906
662.321,50.65539333333338
664.895,55.06424857142861
667.468,69.29870761904768
670.038,73.97407047619053
672.607,81.84834190476194
675.174,64.20319047619051
677.739,68.70123809523814
680.303,62.24280000000003
682.864,56.53775714285717
685.424,47.58162380952385
687.982,46.46506190476193
690.538,51.326266666666704
693.092,50.68431904761908
695.645,60.91539333333337
698.195,49.34803857142859
700.744,23.120315238095237
703.291,9.560732857142867
705.836,18.807324761904788
708.38,24.712457619047647
710.921,43.22378857142859
713.461,47.38422857142858
715.999,22.4272285714286
718.535,52.72902380952388
721.069,88.9994571428572
723.602,90.51976190476196
726.133,87.99963809523814
728.662,105.33950952380958
731.189,70.48756190476196
733.714,103.43958571428578
736.238,117.38176190476194
738.759,120.21505714285725
741.279,118.60181904761912
743.798,127.49061428571434
746.314,83.06829523809529
748.829,81.99778571428575
751.342,72.2279190476191
753.853,75.13665238095243
756.362,67.72055238095241
758.869,69.5956285714286
761.375,36.94946666666668
763.879,37.017257142857176
766.381,24.796590476190485
768.882,34.80908571428576
771.38,55.05237619047625
773.877,89.00073333333339
776.372,102.27122380952387
778.866,108.00530000000003
781.357,95.05869523809528
783.847,99.04938571428576
786.335,101.50000952380958
788.821,102.21916190476198
791.306,111.34876666666673
793.789,91.69800000000005
796.27,70.45692857142862
798.749,75.5775333333334
801.227,108.44100476190486
803.702,142.3328333333334
806.176,159.2055952380953
808.649,145.58343809523814
811.119,111.46682380952387
813.588,106.52307619047626
816.055,113.84826666666672
818.521,109.4906428571429
820.984,78.30835238095243
823.446,76.20720476190482
825.906,64.42652857142862
828.365,84.72970000000007
830.821,114.26091428571435
833.276,147.30730476190485
835.729,141.01340476190484
838.181,157.6664571428572
840.631,137.41125238095245
843.079,111.58304285714291
845.525,81.42196190476194
847.97,81.26324761904766
850.412,56.5852285714286
852.854,55.86617142857147
855.293,52.77511428571431
857.731,55.028642857142884
860.167,50.43866190476194
862.601,65.1504047619048
865.034,52.071114285714316
867.465,54.58432380952385
869.894,62.45447142857148
872.321,64.54130952380956
874.747,70.08562857142861
877.171,58.090071428571456
879.594,63.60484285714293
882.014,87.8710476190477
884.433,128.22448095238104
886.851,166.1919666666668
889.266,189.1572761904763
891.68,185.3134285714287
894.092,178.94890476190488
896.503,176.49538095238105
898.912,140.38388095238102
901.319,113.28428571428577
903.724,114.24666190476198
906.128,116.46428095238103
908.53,110.41625238095247
910.931,154.10532857142866
913.329,135.72457619047626
915.726,123.4672238095239
918.122,114.52610952380957
920.516,103.47571428571436
922.908,98.2231571428572
925.298,118.24718095238102
927.687,109.64542857142862
930.074,124.37282857142863
932.459,97.05067619047625
934.843,91.44337619047623
937.225,72.79105714285716
939.605,47.76268190476192
941.984,23.97940142857145
944.361,19.871964285714288
946.736,5.394573809523822
949.11,7.787210952380959
951.482,11.670709047619061
953.853,19.2372861904762
956.222,15.86949952380953
958.589,13.283174285714296
960.954,14.336893809523831
963.318,31.365288571428614
965.68,65.27441571428577
968.041,70.73214666666668
970.4,62.78720952380954
972.757,36.01213333333334
975.113,14.97932380952383
977.467,8.785014285714311
979.819,37.430000000000035
982.17,55.77241428571434
984.519,74.00355238095243
986.866,87.41001904761912
989.212,116.80183809523818
991.556,146.75134761904775
993.899,192.9733047619049
996.24,203.51597142857153
998.579,201.04661904761917
1000.92,194.56580952380963
1003.25,183.21690476190486
1005.59,170.52428571428584
1007.92,174.2975714285715
1010.25,140.96583333333342
1012.58,128.00552380952388
1014.91,121.36941428571434
1017.24,104.86750952380959
1019.56,93.11885238095245
1021.88,109.59980476190484
1024.2,100.02488095238103
1026.52,98.3939476190477
1028.84,117.04048095238102
1031.16,134.86950476190486
1033.48,139.07128571428578
1035.79,139.64587619047626
1038.1,123.8786714285715
1040.41,128.05565714285723
1042.72,166.03347142857154
1045.03,197.43154285714297
1047.33,215.67785714285725
1049.64,208.4862380952382
1051.94,207.18976190476204
1054.24,205.74085714285727
1056.54,225.85319047619066
1058.84,226.05052380952395
1061.13,230.95133333333348
1063.43,225.8883333333335
1065.72,242.3372380952382
1068.01,261.0596666666668
1070.3,309.102761904762
1072.59,315.9420952380954
1074.87,301.57695238095255
1077.16,318.9589523809526
1079.44,346.13495238095265
1081.72,385.7714285714288
1084.0,456.43914285714317
1086.28,509.0418571428575
1088.56,618.34080952381
1090.84,802.6681904761911
1093.11,946.928333333334
1095.38,980.3109523809528
1097.65,901.7676666666671
1099.92,771.1543333333337
1102.19,625.8989047619051
1104.46,535.4285238095241
1106.72,497.0760952380955
1108.98,482.31647619047646
1111.24,504.4822380952385
1113.5,585.8103333333337
1115.76,679.1569047619051
1118.02,770.1396190476195
1120.28,807.7577619047624
1122.53,765.0100000000003
1124.78,695.4192380952385
1127.03,589.888904761905
1129.28,525.8465238095241
1131.53,450.1000952380955
1133.77,392.8391428571431
1136.02,356.2049523809526
1138.26,355.1013333333335
1140.5,329.0029523809526
1142.74,338.4326666666668
1144.98,306.05576190476205
1147.22,308.15642857142876
1149.45,342.06652380952397
1151.69,365.9278571428573
1153.92,341.4054761904764
1156.15,289.45038095238107
1158.38,202.9184285714287
1160.61,144.0937333333334
1162.83,119.49867142857151
1165.06,113.22710952380959
1167.28,101.75367619047624
1169.5,57.02915238095239
1171.72,13.195019047619056
1173.94,21.72598095238099
1176.16,36.382319047619085
1178.37,60.210142857142905
1180.58,73.73166380952382
1182.8,56.32622476190477
1185.01,19.03987142857144
1187.22,10.442383809523813
1189.42,6.579732380952396
1191.63,12.545493333333347
1193.84,12.671252380952396
1196.04,19.47917714285717
1198.24,46.68168285714292
1200.44,94.7534238095239
1202.64,122.88309238095243
1204.84,108.06894952380955
1207.03,70.78545142857145
1209.23,29.17377428571431
1211.42,24.94640380952385
1213.61,39.38757809523811
1215.8,44.876541904761915
1217.99,29.79266380952382
1220.18,26.134399047619063
1222.36,13.947879047619061
1224.55,27.66028000000002
1226.73,31.17498285714288
1228.91,34.53831142857145
1231.09,42.36811904761908
1233.27,63.187052380952416
1235.44,62.755985714285764
1237.62,82.02639047619053
1239.79,84.61644761904766
1241.96,86.81120000000007
1244.13,106.27654761904769
1246.3,108.53591904761909
1248.47,86.20805714285717
1250.64,44.102266666666665
1252.8,11.837533333333358
1254.96,23.84243809523814
1257.13,54.45046233333338
1259.29,58.471663642857166
1261.44,53.525651095238096
1263.6,29.708386595238128
1265.76,39.59196538095245
1267.91,92.79659697619059
1270.06,135.56148138095247
1272.22,169.8879476190477
1274.37,166.5393333333334
1276.51,147.2314761904763
1278.66,126.87076190476196
1280.81,122.4590476190477
1282.95,121.90261904761914
1285.09,162.53709523809536
1287.23,194.60266666666678
1289.37,211.00642857142867
1291.51,190.51266666666675
1293.65,165.69495238095246
1295.78,143.69866666666678
1297.92,125.28831904761911
1300.05,121.0379333333334
1302.18,95.95032380952385
1304.31,68.21864761904769
1306.44,99.70309523809533
1308.57,131.73995238095247
1310.69,153.7605285714287
1312.82,196.4344000000001
1314.94,205.526761904762
1317.06,218.99319047619062
1319.18,235.45585714285724
1321.3,211.9657142857144
1323.41,193.95428571428585
1325.53,215.71052380952395
1327.64,254.1424285714288
1329.75,313.11061904761925
1331.87,369.7135238095241
1333.98,386.668904761905
1336.08,385.78933333333356
1338.19,360.84000000000015
1340.3,348.4431904761907
1342.4,309.03090476190494
1344.5,264.74923809523824
1346.6,223.2207142857144
1348.7,174.16261904761916
1350.8,173.4829047619049
1352.9,197.61333333333343
1354.99,205.22357142857157
1357.09,221.12647619047635
1359.18,250.2298571428573
1361.27,236.15552380952397
1363.36,262.43028571428584
1365.45,284.1045714285716
1367.54,311.13357142857166
1369.62,339.0440000000002
1371.7,372.0287619047621
1373.79,388.9953809523812
1375.87,419.946285714286
1377.95,464.93176190476214
1380.03,454.19200000000023
1382.1,409.91957142857166
1384.18,352.54538095238115
1386.25,300.59528571428586
1388.33,258.73780952380963
1390.4,247.40319047619062
1392.47,211.40252380952393
1394.54,185.97585714285725
1396.6,152.55300000000008
1398.67,128.32595238095246
1400.74,105.48638095238103
1402.8,114.41590476190484
1404.86,120.97266666666675
1406.92,146.0147238095239
1408.98,129.54236666666674
1411.04,139.5085904761906
1413.09,149.72321428571436
1415.15,146.9483142857144
1417.2,137.37410000000008
1419.25,150.00053333333338
1421.3,111.25564761904769
1423.35,109.66270476190482
1425.4,110.5064428571429
1427.45,80.9764285714286
1429.49,74.54745714285718
1431.54,66.45652380952384
1433.58,60.89235238095243
1435.62,65.51998571428577
1437.66,94.05154761904768
1439.7,102.29432857142864
1441.74,104.34123809523815
1443.77,98.09428095238104
1445.81,116.64631428571437
1447.84,118.85127619047627
1449.87,149.4205238095239
1451.9,161.3033238095239
1453.93,158.63928571428582
1455.96,160.90123809523823
1457.98,167.13333333333344
1460.01,154.37933333333345
1462.03,164.96885714285725
1464.05,169.56514285714297
1466.07,196.30676190476203
1468.09,203.76161904761915
1470.11,206.35414285714296
1472.13,185.50890476190486
1474.14,164.8410000000001
1476.16,153.25138095238106
1478.17,163.21161904761914
1480.18,161.09908571428582
1482.19,150.62391428571433
1484.2,129.44863809523815
1486.21,99.42653809523814
1488.21,69.60123333333337
1490.22,58.58770952380955
1492.22,51.76327142857145
1494.22,44.838285714285746
1496.22,38.14239952380954
1498.22,22.862465
1500.22,2.8996871428571507
1502.22,3.060127857142872
1504.21,6.673872857142887
1506.21,44.30893166666671
1508.2,71.34335666666671
1510.19,61.10752857142859
1512.18,67.17005238095241
1514.17,46.48062380952381
1516.16,22.46524761904765
1518.14,29.59752857142859
1520.13,25.82780000000001
1522.11,28.487242857142903
1524.09,54.05010095238097
1526.07,46.27645571428574
1528.05,34.49794952380953
1530.03,17.90350142857144
1532.01,24.11078761904767
1533.98,50.07090333333336
1535.96,60.35411047619051
1537.93,70.10221904761909
1539.9,68.31435238095241
1541.87,50.65633809523815
1543.84,80.03228571428576
1545.81,100.91797619047624
1547.78,105.31276666666673
1549.74,118.40673809523815
1551.7,122.19984285714293
1553.67,134.88213333333343
1555.63,159.59650952380963
1557.59,155.48618095238103
1559.55,124.0273190476191
1561.5,106.02973333333341
1563.46,105.97011904761914
1565.41,127.61042857142866
1567.37,145.47499523809532
1569.32,140.8502190476191
1571.27,117.16552380952389
1573.22,113.85019047619056
1575.17,126.1910476190477
1577.11,143.66466666666676
1579.06,145.79595238095249
1581.0,131.30014285714293
1582.95,117.08314285714295
1584.89,116.336761904762
1586.83,134.01480952380965
1588.77,162.88009523809535
1590.7,174.55304761904773
1592.64,167.4637142857144
1594.58,164.94673809523817
1596.51,162.64680952380968
1598.44,162.23226190476217
