Raman Shift,Processed Intensity
331.095,120.69390937080516
333.909,106.80980771532404
336.721,113.34814188680502
339.531,128.64225727861958
342.339,121.54933292801843
345.145,138.95039357617497
347.949,184.75032172821693
350.751,201.8540601894556
353.55,191.30948126827616
356.348,187.64073216951556
359.144,146.9911041973619
361.937,104.64685433920795
364.729,140.51340780188957
367.518,173.78203673840426
370.306,219.40606278414634
373.091,315.62467864076825
375.874,398.86772204099725
378.656,389.8033068563136
381.435,351.3854542046279
384.212,268.7112473674738
386.988,162.35417718339704
389.761,93.74510648896103
392.532,34.12466313118557
395.301,-11.313890829535922
398.068,-28.281789916524303
400.833,-19.68046746247046
403.596,-8.887258977696092
406.358,7.196986788987033
409.117,-43.566371898965826
411.874,-64.41090756039785
414.629,-76.66511843386024
417.382,-62.84766617451396
420.133,-35.953096856329466
422.882,10.405286531447473
425.629,7.2334969964827
428.374,29.728265929630652
431.117,62.610351305850145
433.858,103.50546567018273
436.597,149.32520412373196
439.334,182.9336865953578
442.069,167.48086678003756
444.802,130.78346012484735
447.533,119.99158610066297
450.262,128.73160095004687
452.989,138.5346447208558
455.714,164.02709306174484
458.438,200.16862806529616
461.159,175.10935673019367
463.878,151.71359609006413
466.595,138.13127738994308
469.31,90.89315978654668
472.024,75.05366309616238
474.735,72.09560530444196
477.444,51.16827340953341
480.152,44.65882759854185
482.857,53.049419709705944
485.561,55.536221717095486
488.262,79.6960779107153
490.962,97.01030541120599
493.659,119.57897660911067
496.355,144.93044769030985
499.048,161.4023157328752
501.74,173.28428056584426
504.43,167.34195900893064
507.118,173.72165149319835
509.804,220.71225153887463
512.488,313.2690599950688
515.17,369.2518849937778
517.85,437.4726657134288
520.528,453.5050009043139
523.204,445.87462979498696
525.878,464.91657966531466
528.551,493.8227896100184
531.221,507.9754485879248
533.89,520.3755715664561
536.556,507.0715756661202
539.221,503.4926182097538
541.883,482.3533633431939
544.544,479.98732008453317
547.203,497.2039898971798
549.86,511.38410950101616
552.515,518.4320365407043
555.168,541.3948019206591
557.819,528.2716383305014
560.469,558.2520801990886
563.116,588.4778731723486
565.761,620.8525026387365
568.405,636.5173889213547
571.047,638.1376062796053
573.687,609.378078101312
576.324,639.8083435234203
578.96,623.426371671746
581.594,608.0395187578724
584.227,570.3121518427047
586.857,529.4799392667055
589.485,484.2069982229814
592.112,487.91923280656874
594.737,477.0424339684737
597.359,491.71656994589966
599.98,458.7957909781953
602.599,434.4198625942181
605.216,466.72845604256145
607.831,500.8135339598739
610.445,536.7669741344171
613.056,567.2043837458145
615.666,586.5031993190896
618.274,610.8503104882188
620.88,693.0515885215914
623.484,785.0557005617607
626.086,837.3350667223267
628.686,905.4572933752934
631.284,988.60898739081
633.881,1030.4052846626287
636.476,1037.1279500621422
639.068,1001.9634773924149
641.659,878.2888083898342
644.249,731.8618136305272
646.836,609.3927258177227
649.421,471.82985878340105
652.005,357.02627887089466
654.587,266.0255239365347
657.166,181.061608065585
659.745,124.36855009770261
662.321,123.18037834287043
664.895,107.06446863066867
667.468,88.11202521668702
670.038,57.699990260366576
672.607,22.872000921883227
675.174,8.433632173326714
677.739,15.619068181307284
680.303,16.37682366607305
682.864,-18.106438618007815
685.424,-26.215422120880703
687.982,-21.572851907174936
690.538,-11.277560583273043
693.092,5.2859943662856494
695.645,15.019163310261774
698.195,-0.12898779601346178
700.744,-8.161673896170669
703.291,-11.462957228645337
705.836,-4.321551831031229
708.38,-16.645105081042402
710.921,-10.388766141983524
713.461,0.9686261010001544
715.999,3.662639088195192
718.535,35.405151088090406
721.069,64.336731988471
723.602,80.31235778855216
726.133,70.90141080540297
728.662,68.67339416608002
731.189,50.055074871199395
733.714,26.52096019183682
736.238,15.11710739975797
738.759,34.46112397383831
741.279,25.694548758860037
743.798,47.19713788621857
746.314,55.44400783749097
748.829,26.910397555616782
751.342,22.78595436561045
753.853,-6.168122961871632
756.362,-26.428607813629696
758.869,-9.853102670355383
761.375,20.224723004551606
763.879,32.899892185737144
766.381,37.88659399236258
768.882,-1.8151521292372763
771.38,-12.967117937183048
773.877,-5.807154592352845
776.372,19.47461438141181
778.866,58.02150489900623
781.357,66.88169840147862
783.847,50.00823937201744
786.335,67.02093761384322
788.821,39.682556242382816
791.306,54.517856820308225
793.789,81.28978734971088
796.27,165.3804321690409
798.749,245.79100946909193
801.227,331.713297380413
803.702,343.62486958453314
806.176,337.6224261632817
808.649,289.85036254334545
811.119,289.88171939320205
813.588,274.6229420438681
816.055,260.21863990963584
818.521,255.90872686120133
820.984,246.02841874163414
823.446,221.0558499299741
825.906,166.8977851429138
828.365,130.55628361744266
830.821,141.0810775792022
833.276,148.71242690132658
835.729,157.69064042993614
838.181,154.113216357262
840.631,124.17293497571018
843.079,121.82452286050648
845.525,135.45131705233916
847.97,122.19859590666056
850.412,116.54500518108625
852.854,102.01684126565374
855.293,86.85471536546788
857.731,63.82307482619672
860.167,26.82924826910221
862.601,12.399633583204377
865.034,8.155885917456771
867.465,25.957772339581425
869.894,35.046026494909256
872.321,28.08996516998377
874.747,17.473200094250615
877.171,9.484111646513384
879.594,14.363465418528904
882.014,7.304409730989391
884.433,-2.1189554219304227
886.851,2.4293715243609313
889.266,6.475862649423334
891.68,-2.405399291283402
894.092,37.31203834214443
896.503,64.20223347307956
898.912,104.83922732314886
901.319,165.55894623654194
903.724,161.79253207575152
906.128,131.39967261731158
908.53,115.33526528086486
910.931,106.74465228680424
913.329,99.39218914724415
915.726,114.1374322046081
918.122,91.22084997974594
920.516,78.59715356766469
922.908,66.84005560469336
925.298,73.99941018802838
927.687,94.74406708099491
930.074,126.17139258497741
932.459,123.8072666018204
934.843,100.5108416010005
937.225,77.2364444439313
939.605,61.12881154160755
941.984,57.80880020271866
944.361,66.89719521986262
946.736,52.15756307479933
949.11,48.92482042942265
951.482,65.29570737863628
953.853,64.17640356037418
956.222,60.615858551338306
958.589,52.1391222627351
960.954,42.175913431247636
963.318,36.29871191953589
965.68,52.460851016739525
968.041,55.091752596120614
970.4,53.477876558421485
972.757,29.429384560938843
975.113,14.994422794211687
977.467,-0.6837380984325137
979.819,11.871389279620416
982.17,15.279031451862238
984.519,23.87258113415237
986.866,38.556739782092336
989.212,64.61704262475268
991.556,98.67224084125837
993.899,97.72192183260904
996.24,66.90841520778258
998.579,37.850127341274856
1000.92,34.641542597293665
1003.25,22.32941503014854
1005.59,18.96038865606556
1007.92,-15.704715608327433
1010.25,-32.476610764931365
1012.58,-19.785157399863238
1014.91,8.17778289140574
1017.24,21.267871506804113
1019.56,34.34067187001028
1021.88,30.394505495436306
1024.2,41.999024493387196
1026.52,61.104736456172986
1028.84,81.75729429761827
1031.16,104.85940514019558
1033.48,125.26607253548309
1035.79,139.83221963701249
1038.1,151.5555504683491
1040.41,135.3384588102283
1042.72,116.70231804006426
1045.03,114.21605668574352
1047.33,135.01997207466025
1049.64,159.34954398275454
1051.94,168.86877209307204
1054.24,168.24160869241382
1056.54,154.56053422513855
1058.84,130.8703709421975
1061.13,147.4540013120768
1063.43,165.92761024126753
1065.72,180.28830824711144
1068.01,217.43794510683483
1070.3,205.8973996970683
1072.59,200.13991745240173
1074.87,180.68635258584914
1077.16,157.48612459502715
1079.44,180.7743652445281
1081.72,213.64335126257856
1084.0,257.2806037043638
1086.28,348.7784158867844
1088.56,427.6576670374973
1090.84,514.6297311820465
1093.11,582.7393384119414
1095.38,562.9836266289346
1097.65,520.6454790035759
1099.92,446.3887661956812
1102.19,406.4964457176575
1104.46,379.44199463116274
1106.72,353.9846517675812
1108.98,357.6932313770719
1111.24,403.708032015709
1113.5,430.4551263850012
1115.76,475.31303212380317
1118.02,491.23176355259693
1120.28,485.9709310368303
1122.53,485.9568879692922
1124.78,493.37797299058957
1127.03,454.08927601914456
1129.28,415.755499519292
1131.53,383.4700102455613
1133.77,296.80246241553505
1136.02,260.03689707318154
1138.26,261.3146033569535
1140.5,291.1103131012203
1142.74,326.70839543769716
1144.98,362.48857520640126
1147.22,357.35450850946745
1149.45,337.0671201697219
1151.69,301.7207983321118
1153.92,288.2672081127523
1156.15,238.37243858131274
1158.38,206.13129260054438
1160.61,196.63871952295312
1162.83,180.2755336017558
1165.06,143.61318002088933
1167.28,135.27088187739741
1169.5,105.62993002095914
1171.72,80.40511575056848
1173.94,69.97806827311297
1176.16,80.34963978100154
1178.37,62.47324291074233
1180.58,31.302473915808378
1182.8,8.648259649033434
1185.01,-10.106852597861462
1187.22,-24.913452873779306
1189.42,-24.24573975138651
1191.63,-25.67294494764269
1193.84,-44.573617741816406
1196.04,-29.516578639477302
1198.24,-12.689494818623189
1200.44,20.529682414123272
1202.64,25.191753201419033
1204.84,10.061970053989398
1207.03,2.239072102743876
1209.23,-1.939966363389658
1211.42,-5.376138722488577
1213.61,14.743962812787913
1215.8,9.567182494931558
1217.99,10.52616911974178
1220.18,34.815555109050365
1222.36,40.153850846567366
1224.55,34.164387695667756
1226.73,23.66102292193682
1228.91,13.60051128238365
1231.09,13.987257567034476
1233.27,17.063783426238615
1235.44,15.453576518188811
1237.62,32.7801315388549
1239.79,53.3812310559299
1241.96,68.45179932260794
1244.13,115.37723228184745
1246.3,148.1619656658661
1248.47,213.90566214325509
1250.64,275.4698746565689
1252.8,370.28756690276987
1254.96,472.7916814327234
1257.13,578.3198982268852
1259.29,646.6860599376589
1261.44,709.3706447507984
1263.6,763.9017154372921
1265.76,798.5215826909591
1267.91,762.9487065612868
1270.06,721.7110264576941
1272.22,634.3840530585537
1274.37,538.0194364106965
1276.51,485.2878197431942
1278.66,420.1455028049659
1280.81,344.54872424998666
1282.95,312.83461068917177
1285.09,291.3402209803446
1287.23,276.7834952801261
1289.37,249.97753742914938
1291.51,232.92584971822453
1293.65,225.8699486068931
1295.78,227.67031377530657
1297.92,236.80638479515778
1300.05,255.85274827679496
1302.18,272.8600869211027
1304.31,284.8313666666147
1306.44,288.57897621759366
1308.57,312.77234276257127
1310.69,318.414119121466
1312.82,356.74494232127654
1314.94,375.86247788605556
1317.06,388.76903555545755
1319.18,403.60966119376167
1321.3,430.4340382227008
1323.41,449.910770006672
1325.53,473.4702336665248
1327.64,463.97124341714994
1329.75,449.6058091431728
1331.87,420.3277044984509
1333.98,382.9477016722369
1336.08,348.51452044105827
1338.19,307.1719676967857
1340.3,286.5398864985161
1342.4,257.0951051244483
1344.5,204.6476242190065
1346.6,163.76918489233685
1348.7,129.26945586742727
1350.8,114.43412538913026
1352.9,91.69156456175892
1354.99,66.85091925811298
1357.09,35.67353536183782
1359.18,31.44438400978197
1361.27,38.73396302483138
1363.36,45.54115429982107
1365.45,30.76941767919493
1367.54,28.70298484067189
1369.62,47.76876746262133
1371.7,73.91731610799525
1373.79,139.4799724812974
1375.87,168.78792644745067
1377.95,181.98174924114574
1380.03,150.24949810475505
1382.1,128.25529711672698
1384.18,78.23458468664126
1386.25,71.32745628836574
1388.33,51.86438814559415
1390.4,36.69957996499875
1392.47,12.496678621768524
1394.54,-8.890260059614548
1396.6,-17.13104761983618
1398.67,-17.371733233439045
1400.74,-25.80602253627626
1402.8,-29.15146018803398
1404.86,-15.554185719217685
1406.92,11.98249831064777
1408.98,24.64574546924632
1411.04,48.81316390438542
1413.09,51.76710173971651
1415.15,36.50417304879602
1417.2,55.25906954342963
1419.25,99.40932464297725
1421.3,110.38007754365572
1423.35,139.21550395450686
1425.4,139.57881826194193
1427.45,94.08560902761474
1429.49,98.82765067677587
1431.54,93.89671518662271
1433.58,94.09885996513299
1435.62,106.24014430132934
1437.66,131.93615533934621
1439.7,137.85010548107311
1441.74,108.31188216974829
1443.77,79.46090719736753
1445.81,71.10328172637287
1447.84,87.23559797801113
1449.87,117.9973223492591
1451.9,142.24222614879432
1453.93,114.34791157106747
1455.96,103.45390909894331
1457.98,103.89025109682052
1460.01,154.32033111803503
1462.03,209.55042987893353
1464.05,284.9582888519924
1466.07,357.44549338274396
1468.09,458.29461771146725
1470.11,577.5501795186856
1472.13,752.3043563754313
1474.14,866.6493688601781
1476.16,974.9631970091007
1478.17,1051.2429158139557
1480.18,1096.6285069104408
1482.19,1074.6409559808353
1484.2,1021.0393977756926
1486.21,872.7258801831458
1488.21,729.554890202977
1490.22,569.8095465873614
1492.22,432.1063639101724
1494.22,291.9190642553392
1496.22,215.0547698575856
1498.22,150.79686240983347
1500.22,98.1430804658462
1502.22,46.51980731906497
1504.21,31.305882690969156
1506.21,28.78498584801173
1508.2,19.955161575700004
1510.19,1.6240604383879145
1512.18,-22.067249532357437
1514.17,-30.83475686367956
1516.16,-19.20388526322813
1518.14,23.823839716392058
1520.13,24.38983500789982
1522.11,8.778454723553295
1524.09,9.750318182696674
1526.07,7.447066510739887
1528.05,10.391358220280154
1530.03,37.53448482329986
1532.01,58.73255862513429
1533.98,38.603653945824135
1535.96,30.337329293847233
1537.93,42.170816206518566
1539.9,41.86520809038598
1541.87,60.46736334734237
1543.84,62.35752278645373
1545.81,33.72549846435868
1547.78,13.380195859004743
1549.74,16.41627890052041
1551.7,30.833215954476145
1553.67,70.67813532895002
1555.63,94.90296649588004
1557.59,103.84062893146552
1559.55,104.87169714703805
1561.5,99.71011333898491
1563.46,102.06985241962343
1565.41,122.04587276236043
1567.37,112.44744789923652
1569.32,100.46483155180363
1571.27,89.09782742390962
1573.22,79.20340661352748
1575.17,82.16237264363576
1577.11,94.30793125499667
1579.06,78.73521257988591
1581.0,56.58698379201019
1582.95,53.05364747071212
1584.89,48.8970494889802
1586.83,42.11714404431609
1588.77,48.90437297531912
1590.7,35.59204507826371
1592.64,23.465858280823795
1594.58,30.525802768173435
1596.51,32.10520696623371
1598.44,16.370735905867377
