Raman Shift,Processed Intensity
331.095,106.47120891094573
333.909,51.45243294613192
336.721,36.058121533527355
339.531,46.62161864814152
342.339,69.04771811975888
345.145,76.71743617938
347.949,91.4404030532587
350.751,88.88344503314329
353.55,101.38011892747227
356.348,104.93072270304174
359.144,140.7737346981089
361.937,136.19534807358696
364.729,169.24376716900906
367.518,176.5863610013521
370.306,195.31919771624007
373.091,240.49086475342847
375.874,307.7691461551576
378.656,317.2029379697469
381.435,290.55559222660895
384.212,221.49540376841605
386.988,143.40514470230255
389.761,102.90588456534988
392.532,67.80938191866107
395.301,27.59428546523077
398.068,-6.7843314988426755
400.833,-20.275912823623003
403.596,-25.3058374350785
406.358,-9.965885578951202
409.117,-23.44280242726927
411.874,-37.304007223527606
414.629,-60.64044632422156
417.382,-61.25706778888252
420.133,-48.672823853397404
422.882,-21.78734693639217
425.629,38.02379594942113
428.374,99.95670045100314
431.117,161.82671975164112
433.858,241.35415853380528
436.597,262.4023478943873
439.334,247.02524406946532
442.069,248.0864557304858
444.802,201.16398556617378
447.533,175.21687662634122
450.262,165.4423348561795
452.989,176.79951829720812
455.714,200.91427866919457
458.438,242.74580771396631
461.159,226.7770930630395
463.878,204.49108839095106
466.595,183.89450261622324
469.31,170.0415891023249
472.024,127.5579348586316
474.735,124.87853545566713
477.444,100.67634613082782
480.152,112.76702337028928
482.857,152.72795220520038
485.561,155.32680766876183
488.262,152.0929848578221
490.962,178.69855280399224
493.659,171.1487321542827
496.355,184.06761094697094
499.048,200.3648127684255
501.74,195.23549824326665
504.43,234.77941414357156
507.118,287.71518059333266
509.804,328.6183877967187
512.488,409.20731181394876
515.17,459.1048208133625
517.85,504.6002813234936
520.528,547.7447978184805
523.204,559.5416903987107
525.878,565.4226867571842
528.551,571.9622093839675
531.221,551.8297580087469
533.89,552.456577757674
536.556,539.1308987387715
539.221,531.6646041987719
541.883,549.4408510609101
544.544,546.128357129372
547.203,587.7290216270903
549.86,616.5303076382879
552.515,635.3909578843682
555.168,673.1695676426457
557.819,698.486490998409
560.469,695.7238423350827
563.116,711.596926395815
565.761,677.6304302498379
568.405,687.4917581159743
571.047,715.9434138051793
573.687,710.0810974488109
576.324,714.6194212745081
578.96,698.2252444296978
581.594,674.2319601860509
584.227,661.1156879058422
586.857,638.0667031035528
589.485,595.6084865550852
592.112,578.4548686450771
594.737,540.6052689523067
597.359,552.2018405970084
599.98,526.0056622072361
602.599,511.111025123324
605.216,498.8978158404402
607.831,506.07913654638196
610.445,503.2727351831818
613.056,548.6200545563311
615.666,601.1195671582923
618.274,683.4839195158197
620.88,783.1399336801378
623.484,851.4190849075953
626.086,904.7479793403159
628.686,955.8864507344679
631.284,974.165657188536
633.881,1039.4880826334957
636.476,1088.708490703938
639.068,1070.6815452758638
641.659,998.5951452901891
644.249,860.4466167191017
646.836,661.5189045324269
649.421,535.2853360925601
652.005,404.8858131208349
654.587,316.79347985435516
657.166,249.48139120283395
659.745,160.3748951911416
662.321,100.66115825900943
664.895,71.1463096083462
667.468,39.96972840770559
670.038,44.1278548062769
672.607,66.71228666216166
675.174,38.62407081051515
677.739,39.43085591576073
680.303,22.319283419040858
682.864,-4.1907128709462995
685.424,-16.293511949009826
687.982,-9.99302755914232
690.538,-34.1503115329956
693.092,-9.57877790928842
695.645,12.860571896876081
698.195,20.02106308992188
700.744,-3.8153585560230567
703.291,-7.223831451458864
705.836,-20.2079972315546
708.38,-16.723801138858107
710.921,-11.67948362204288
713.461,15.683473585165757
715.999,2.6951139470024827
718.535,11.685580940389627
721.069,37.461311917275
723.602,56.82885101459442
726.133,70.40437634995533
728.662,78.70894150302684
731.189,40.73990747312655
733.714,9.637612732045454
736.238,-7.600337675511582
738.759,-24.21430684099778
741.279,-27.254051177296333
743.798,-12.054907508748784
746.314,-17.952077849973193
748.829,2.9098449548446297
751.342,18.862589687893433
753.853,29.85706207082694
756.362,21.034771506426296
758.869,13.537353058362669
761.375,-6.683910569043064
763.879,8.417623425130841
766.381,19.412527537217102
768.882,34.96673070062002
771.38,17.55580217033912
773.877,2.6078068360563975
776.372,15.408065297128132
778.866,60.28962822329322
781.357,81.91898881061888
783.847,92.20084285649318
786.335,71.94475359652802
788.821,67.67467368430925
791.306,80.10513383782586
793.789,138.56981243827
796.27,181.78343846217376
798.749,252.60369441354533
801.227,277.316928779813
803.702,294.40005896395905
806.176,315.8539027880861
808.649,332.7746052350751
811.119,313.1155413807203
813.588,322.5920764687264
816.055,284.15775455712287
818.521,250.1471538313558
820.984,240.99017048879864
823.446,239.49773119469614
825.906,223.19512458572376
828.365,190.41723753546648
830.821,153.35617237227825
833.276,132.48981647808932
835.729,129.43898331578953
838.181,150.110267742328
840.631,132.74366322656783
843.079,99.91256001952615
845.525,86.57136237222994
847.97,67.96024861071555
850.412,68.93850263960167
852.854,89.60355973136984
855.293,97.29100469660216
857.731,105.76504624469953
860.167,73.17089610649805
862.601,46.08238625212812
865.034,-1.4027948435123108
867.465,-20.901199268613254
869.894,5.970664210072982
872.321,44.31061389122783
874.747,43.835552921211274
877.171,85.54813183821193
879.594,53.73674444973108
882.014,13.785047519583713
884.433,6.362432835853497
886.851,12.566880231226833
889.266,25.544001079518694
891.68,72.53465385770915
894.092,96.77970256512822
896.503,112.52001323786953
898.912,103.99645046321098
901.319,68.9736834178459
903.724,37.835420477538264
906.128,36.5367866839249
908.53,76.74717740179585
910.931,136.61215959541596
913.329,180.56299215247373
915.726,167.84043192230297
918.122,146.30425403983054
920.516,129.00467701142088
922.908,122.99188303882124
925.298,118.74458596215345
927.687,140.21764682195362
930.074,100.88968942121551
932.459,79.52500160171735
934.843,73.74496032986463
937.225,82.59945678254053
939.605,93.32879762343055
941.984,114.64941580315872
944.361,113.84910516894479
946.736,101.78701697902284
949.11,95.70318022658216
951.482,62.83754577322975
953.853,46.57284000626919
956.222,32.48218040073675
958.589,23.043357748109656
960.954,37.210261242157685
963.318,64.27001785050788
965.68,77.89060787668677
968.041,112.45419480787223
970.4,121.81902659122102
972.757,80.89086071971542
975.113,68.76581788944554
977.467,31.254188037836457
979.819,21.261379239026155
982.17,14.454580884955703
984.519,7.500855437882365
986.866,4.019518030933568
989.212,31.201184199507225
991.556,42.1411040940136
993.899,70.64868758183093
996.24,71.29512458735962
998.579,55.22291019398244
1000.92,43.431560222212966
1003.25,34.253802998324545
1005.59,17.165104456310246
1007.92,-2.2163305696815314
1010.25,-13.843842767202887
1012.58,4.2814942053905725
1014.91,20.729924135162264
1017.24,34.452533402427434
1019.56,51.0669670451548
1021.88,31.9050516711186
1024.2,28.96518027482216
1026.52,52.67422086392958
1028.84,95.36371079999321
1031.16,137.79367018679204
1033.48,171.2478438301082
1035.79,172.20037176892265
1038.1,189.93484075899983
1040.41,176.97285956599035
1042.72,187.6454914013891
1045.03,163.37897207278297
1047.33,157.8851900388579
1049.64,129.06645217869027
1051.94,140.20596384675446
1054.24,146.1106898803073
1056.54,157.63516798772935
1058.84,175.49103642258115
1061.13,216.19941880050942
1063.43,186.37664224949322
1065.72,183.68662222675312
1068.01,164.84086638327904
1070.3,153.59847842836234
1072.59,163.14711437507663
1074.87,157.91251021433186
1077.16,155.7489619698856
1079.44,179.27266289620047
1081.72,196.29027877154977
1084.0,243.32276128635294
1086.28,286.8910661934244
1088.56,357.99234764869266
1090.84,469.0047239804933
1093.11,532.7825196493363
1095.38,526.1800786362469
1097.65,515.9565302120495
1099.92,472.01388803999544
1102.19,418.39705404028155
1104.46,384.34144130220034
1106.72,338.4634541391388
1108.98,278.6652538578787
1111.24,311.0871435755125
1113.5,352.8218577982673
1115.76,385.24789961937563
1118.02,447.45811601218725
1120.28,478.4977969328004
1122.53,481.4122982322224
1124.78,481.5803788542437
1127.03,432.14277612854494
1129.28,369.8593524923799
1131.53,325.53767078368764
1133.77,282.2710933437295
1136.02,254.05783350067873
1138.26,250.70572133892165
1140.5,241.30839803978665
1142.74,248.00722450798958
1144.98,274.9912852361647
1147.22,323.02120169321347
1149.45,344.00056476026634
1151.69,368.2140338333138
1153.92,362.99400735440054
1156.15,302.0063409618708
1158.38,236.10749421204514
1160.61,169.9159630151844
1162.83,134.52656921430662
1165.06,124.93903587829254
1167.28,150.81989592832042
1169.5,114.26440076429935
1171.72,104.98700031987414
1173.94,62.321346926948536
1176.16,59.410775370682586
1178.37,42.01783056354702
1180.58,59.476652362223604
1182.8,44.97869371784532
1185.01,50.5727245405169
1187.22,28.97435937335831
1189.42,24.51844220941325
1191.63,-13.317140120018166
1193.84,-13.387644557047224
1196.04,-25.976706047912558
1198.24,-21.939192216620768
1200.44,-28.320249917516776
1202.64,-19.54578312741569
1204.84,-13.517695067724162
1207.03,-7.0900857349331545
1209.23,-19.16449911521886
1211.42,-2.594695625326949
1213.61,7.480003281180416
1215.8,28.634701816600227
1217.99,67.2065353412886
1220.18,70.53275279898253
1222.36,54.04594200925612
1224.55,39.70258829331533
1226.73,32.840204528361255
1228.91,23.320175487668394
1231.09,20.57536408542728
1233.27,11.37200333587839
1235.44,10.952543026602598
1237.62,10.36897464945946
1239.79,18.81615748884019
1241.96,60.679431540074575
1244.13,82.82032672375863
1246.3,141.1003692372458
1248.47,232.28584028708428
1250.64,312.4763443452698
1252.8,395.819091691204
1254.96,488.93746666794164
1257.13,555.5024530812962
1259.29,649.7564405513269
1261.44,768.3227451495329
1263.6,819.3008443217677
1265.76,833.9806594301933
1267.91,797.2235049619005
1270.06,727.8430377375323
1272.22,662.6052537389517
1274.37,600.6570563654843
1276.51,524.7167294520582
1278.66,444.9310769540223
1280.81,359.39922929862223
1282.95,296.74406878409604
1285.09,281.493178788294
1287.23,265.22169773920814
1289.37,260.8856492759728
1291.51,267.8219390765348
1293.65,269.17692311389396
1295.78,276.0016425790093
1297.92,274.91848737513646
1300.05,278.549764374063
1302.18,257.8034085295001
1304.31,271.11107494284715
1306.44,315.52337378610696
1308.57,378.6622480819426
1310.69,422.1495419599239
1312.82,455.36890224611034
1314.94,442.4181562431156
1317.06,450.87121331968274
1319.18,466.01615697646184
1321.3,500.95047976892556
1323.41,509.72393727790495
1325.53,522.9099735086975
1327.64,479.1295272425573
1329.75,481.62245743580297
1331.87,441.6284924284532
1333.98,377.196750581423
1336.08,331.8047847232556
1338.19,309.59667421589575
1340.3,256.9068313061821
1342.4,252.9266646201927
1344.5,214.32362360997126
1346.6,136.76500490502372
1348.7,109.10842533047094
1350.8,109.5922949252058
1352.9,90.35962329338008
1354.99,91.88658786064957
1357.09,70.50634022566396
1359.18,34.83757441631292
1361.27,27.736904669788828
1363.36,31.917909879309263
1365.45,42.37970537404749
1367.54,50.88313657785966
1369.62,65.0936425729567
1371.7,93.9145958540521
1373.79,112.10635636822235
1375.87,141.2386588881002
1377.95,153.3096670517334
1380.03,155.12693216435378
1382.1,156.5454948572849
1384.18,146.80122484208823
1386.25,112.65368447423384
1388.33,90.38613517391354
1390.4,18.234115275436807
1392.47,-18.424077361477657
1394.54,-19.591188454686744
1396.6,4.206143849613682
1398.67,8.060252426698298
1400.74,4.063397748119314
1402.8,-20.835084628119603
1404.86,-17.924016682956108
1406.92,10.364866052738535
1408.98,34.5997752882472
1411.04,37.77744312460936
1413.09,53.561220086479125
1415.15,56.94774458255483
1417.2,73.55265998505251
1419.25,95.0391888520387
1421.3,112.3562309592894
1423.35,134.64312799882123
1425.4,144.80109494407793
1427.45,135.68369903417488
1429.49,106.8111482819445
1431.54,102.94172283912962
1433.58,101.73844445681993
1435.62,93.43574594587676
1437.66,98.50614063736089
1439.7,96.80308231915615
1441.74,93.65620612496855
1443.77,88.63323608999872
1445.81,90.30189270660708
1447.84,60.03941952760351
1449.87,65.79449072191233
1451.9,64.89673767785803
1453.93,90.05675179692707
1455.96,106.27084919229424
1457.98,159.29726395877242
1460.01,192.2751985856239
1462.03,227.82006484555768
1464.05,274.30920087419963
1466.07,360.7866358686167
1468.09,474.82023573821766
1470.11,602.2159916128007
1472.13,744.7323083505989
1474.14,890.841912093947
1476.16,1007.1604244916086
1478.17,1120.8749369211046
1480.18,1168.1249656634188
1482.19,1117.0500737443697
1484.2,1031.980349918846
1486.21,912.6268876550357
1488.21,742.4627403091395
1490.22,594.9134001096043
1492.22,443.83299142707256
1494.22,318.5995116633753
1496.22,222.87673880719558
1498.22,159.0428056563967
1500.22,115.80925023082955
1502.22,85.50673285180233
1504.21,50.98980084059849
1506.21,28.017843693186023
1508.2,0.3503339692199461
1510.19,-4.157931818958787
1512.18,5.871741016015903
1514.17,-5.2770994525824335
1516.16,-28.130335081668818
1518.14,-28.023274658794207
1520.13,-5.386365736763082
1522.11,25.683376232164164
1524.09,54.469983380062786
1526.07,53.68615034775485
1528.05,37.42561111398595
1530.03,19.877420586496783
1532.01,24.94499809786339
1533.98,29.86517090133634
1535.96,36.39864823025118
1537.93,41.782400119343265
1539.9,58.34870289273135
1541.87,53.14418465190033
1543.84,52.54887076368527
1545.81,47.99046744349221
1547.78,60.56340724327697
1549.74,65.07646596809923
1551.7,93.14799864029146
1553.67,123.63450879696188
1555.63,130.91636064464137
1557.59,135.46920549964216
1559.55,157.91159870461024
1561.5,167.71928321174414
1563.46,167.36804459458085
1565.41,173.04799463121458
1567.37,145.09214060180307
1569.32,120.69066887178428
1571.27,125.70046657032913
1573.22,131.54988136403836
1575.17,122.57205265920402
1577.11,107.86205232788097
1579.06,99.13402543396433
1581.0,88.81642619735771
1582.95,71.19487300576816
1584.89,63.888336759829144
1586.83,43.37294826584821
1588.77,36.02961515235984
1590.7,40.953543548584776
1592.64,64.14471214384207
1594.58,66.81739386600839
1596.51,54.37634422664041
1598.44,21.321561094670642
