Raman Shift,Processed Intensity
331.095,105.10048323496858
333.909,106.5620032709262
336.721,85.56305303071213
339.531,63.77030968070949
342.339,84.70761424386455
345.145,117.8036011470208
347.949,162.0107563396682
350.751,172.1387611269838
353.55,161.2354550504947
356.348,148.58684638778914
359.144,175.907598842708
361.937,182.1029468069546
364.729,182.64965824076535
367.518,174.21509279167321
370.306,200.03816467517254
373.091,290.88173412682545
375.874,395.36595123531106
378.656,441.5396950135846
381.435,429.1662981843192
384.212,307.9616529177256
386.988,154.21326895032553
389.761,59.73266503705463
392.532,-9.620811025201874
395.301,-44.36854332645771
398.068,-33.698351629604076
400.833,-29.416861823061936
403.596,-21.425690571878476
406.358,-22.911919199950262
409.117,-28.014761116528007
411.874,-38.53985051238624
414.629,-47.864009640473796
417.382,-26.982876203562228
420.133,-14.749011092820638
422.882,-4.4909637707660295
425.629,13.46289754156669
428.374,38.45103030062228
431.117,87.28821874590176
433.858,147.26555258818325
436.597,190.95993337134905
439.334,176.0435808342113
442.069,135.76020593900694
444.802,106.44880294750556
447.533,117.59125102094322
450.262,125.14563010565826
452.989,157.40334634255032
455.714,193.41768604795743
458.438,204.62284588500552
461.159,204.2148677968653
463.878,180.15162155905773
466.595,119.24802542699399
469.31,81.74745725970479
472.024,100.60745135786283
474.735,124.83301434942177
477.444,121.95280666689041
480.152,123.73342944950446
482.857,144.7032352549154
485.561,152.43804353279074
488.262,135.89447514601943
490.962,155.50519165383503
493.659,156.55984888065495
496.355,158.15747905634225
499.048,192.58744438504618
501.74,208.09134299500147
504.43,208.76777203117808
507.118,245.23899550983333
509.804,306.7938026492593
512.488,341.5779852481519
515.17,407.784815063982
517.85,458.1312354770789
520.528,521.2388150594816
523.204,544.1099392390247
525.878,573.3182876777178
528.551,566.8659783167836
531.221,580.1359495169431
533.89,576.4157707701202
536.556,624.469072458764
539.221,617.249832758027
541.883,600.7119026331839
544.544,575.1899594084739
547.203,602.6852222407133
549.86,620.7702152119687
552.515,642.1125780412785
555.168,611.6179244154278
557.819,612.1441288911533
560.469,610.3108518925878
563.116,665.3566837563267
565.761,718.5677173479162
568.405,719.9918349640557
571.047,709.9625190443189
573.687,743.4321866924051
576.324,713.6388575307246
578.96,701.4871072692677
581.594,682.4528307982864
584.227,666.7261005190721
586.857,645.5445008652077
589.485,633.6693199666711
592.112,594.5284079806083
594.737,589.7876068506794
597.359,575.0650372092537
599.98,572.2644328986653
602.599,567.3370469210345
605.216,555.6149859595253
607.831,577.0969258519735
610.445,595.1147794454791
613.056,619.9051263557521
615.666,655.4663570121784
618.274,713.93962622669
620.88,760.5612353340589
623.484,854.0435857607677
626.086,921.8132754510239
628.686,1002.6777667213478
631.284,1072.1111017342091
633.881,1114.2539036859444
636.476,1123.9133779946792
639.068,1100.610932535868
641.659,1008.9631312111687
644.249,880.919790374458
646.836,712.5258847816608
649.421,574.7310725881898
652.005,439.6754108225782
654.587,323.40364228868066
657.166,223.5794824678669
659.745,144.15228737360576
662.321,87.02372140604439
664.895,93.71442520658684
667.468,74.2687787505779
670.038,78.15966443996786
672.607,60.57418257694644
675.174,38.41365255185383
677.739,28.341233078710957
680.303,19.353351954557183
682.864,2.6368540228208985
685.424,25.140437768267475
687.982,26.28895106228265
690.538,2.5072109962675313
693.092,-17.541888007350735
695.645,-41.14783484842519
698.195,-39.64772404572341
700.744,-8.664337048712241
703.291,9.798629075273311
705.836,-2.262480896938996
708.38,11.672533358028886
710.921,-0.20940997724846966
713.461,18.18342531503913
715.999,45.038075785583715
718.535,47.827360594353195
721.069,41.30988759651609
723.602,62.720535618832855
726.133,32.627603402720524
728.662,37.45662521397435
731.189,32.15704359536221
733.714,22.0593583096811
736.238,16.3037038542534
738.759,4.839855546842045
741.279,-21.001335816994924
743.798,-27.174604544651174
746.314,-12.72978777007529
748.829,-0.2403929233423696
751.342,5.3868796478082
753.853,-14.65929070547736
756.362,-16.380558030894917
758.869,-20.397480015575184
761.375,-19.71142156000451
763.879,-12.990267875763266
766.381,-9.758901533602284
768.882,-19.780157675365444
771.38,-6.864350654474038
773.877,-1.4883244859429396
776.372,14.014068132182047
778.866,37.88053441642751
781.357,49.348910095505744
783.847,60.03810896029745
786.335,70.04335812812678
788.821,70.8885761641775
791.306,91.14541786956966
793.789,93.5761285932515
796.27,128.89544616293233
798.749,189.1039313874419
801.227,273.01177474957467
803.702,340.6197459560651
806.176,374.2620482494824
808.649,378.1777441486802
811.119,386.65360976068564
813.588,370.50032242591465
816.055,349.5286483633863
818.521,320.9780112683188
820.984,285.6593466240113
823.446,244.19319410895127
825.906,199.10493286107135
828.365,182.25335007533954
830.821,156.0687334108793
833.276,140.60048720761256
835.729,140.13617727433416
838.181,137.20152805773637
840.631,112.56041981143176
843.079,92.78631433641135
845.525,82.83368072149892
847.97,98.32370679809151
850.412,88.40143916633201
852.854,105.307208935571
855.293,82.32900984578009
857.731,47.231066865158255
860.167,35.825261930594934
862.601,51.494940640517825
865.034,53.671099900113404
867.465,50.97524223322284
869.894,23.457468189475776
872.321,17.69171160856331
874.747,18.156689170225718
877.171,15.473992801383702
879.594,22.26522970231963
882.014,1.6758290395214317
884.433,-0.1963894567047646
886.851,22.174972152993632
889.266,61.93536354666685
891.68,93.70642631736496
894.092,139.7764674827729
896.503,154.14807585199173
898.912,153.8714526780277
901.319,125.99678992932945
903.724,116.38379141846872
906.128,116.22547964510568
908.53,141.38152644847582
910.931,157.14015508845546
913.329,152.98004232662015
915.726,120.76079193587816
918.122,114.72293201962589
920.516,104.53553137852032
922.908,106.15333968677851
925.298,100.3882133827583
927.687,91.90911298812284
930.074,87.95638614128302
932.459,113.67509824989384
934.843,109.82931552429636
937.225,113.8973403919158
939.605,117.07170881642287
941.984,117.78299714070363
944.361,121.36648607268853
946.736,135.538348480703
949.11,111.06231337930035
951.482,93.27347277223134
953.853,69.07827897160905
956.222,38.764065726594254
958.589,33.18952173303501
960.954,40.59421176214937
963.318,64.55095493206886
965.68,80.2991553603324
968.041,70.98289472114743
970.4,68.5556914693168
972.757,74.16145054035542
975.113,64.37255590775317
977.467,67.80891552118851
979.819,47.89986338759945
982.17,35.74129974749303
984.519,35.90521220363803
986.866,51.01110161165411
989.212,46.63074130394648
991.556,34.38341250410576
993.899,26.078758788935602
996.24,43.85964055047066
998.579,63.82117993418706
1000.92,68.9631417357466
1003.25,55.71374286916512
1005.59,13.215366596891727
1007.92,1.276943426548769
1010.25,-12.387953706609323
1012.58,-8.732536713551553
1014.91,9.28986574567125
1017.24,10.725808378847887
1019.56,4.7645856002932305
1021.88,26.690612634671425
1024.2,34.26437915023644
1026.52,57.86530814691878
1028.84,103.96795085602616
1031.16,83.23722925899165
1033.48,83.95701193945229
1035.79,83.8872613639071
1038.1,110.16880020998428
1040.41,110.98998245661664
1042.72,158.87241209326567
1045.03,162.5757094481928
1047.33,162.09751561196595
1049.64,148.9115920990714
1051.94,139.0630633666642
1054.24,130.73984980951445
1056.54,158.36791027875893
1058.84,193.99219888636662
1061.13,189.32428847627125
1063.43,188.45666076217117
1065.72,167.76747265580502
1068.01,173.3491321190386
1070.3,158.00830258737665
1072.59,188.31352644109552
1074.87,203.69046752399322
1077.16,208.3742965192896
1079.44,206.02874299218706
1081.72,208.7937188610033
1084.0,226.42817996354688
1086.28,283.2148923853906
1088.56,361.8651987881517
1090.84,451.89997521395617
1093.11,539.4115402708564
1095.38,590.4922309849178
1097.65,557.8058357951613
1099.92,472.1114085008894
1102.19,397.54898697091403
1104.46,337.4491213765991
1106.72,318.42811671061395
1108.98,338.1023229247314
1111.24,353.4214726866826
1113.5,383.5258286608116
1115.76,455.0795212649307
1118.02,471.50864833192486
1120.28,488.9060414380333
1122.53,486.7931750882733
1124.78,488.7868378066214
1127.03,461.21818417857867
1129.28,416.9898821318254
1131.53,352.3856411692634
1133.77,306.68926441157896
1136.02,268.3275101636182
1138.26,271.48914395695374
1140.5,267.17256202102317
1142.74,280.32865284950685
1144.98,313.81318257622706
1147.22,340.4344184462893
1149.45,351.90551419198187
1151.69,349.22546683724704
1153.92,310.8219782640456
1156.15,260.9324120168235
1158.38,220.84189296411296
1160.61,175.3595021982319
1162.83,147.10399574451048
1165.06,134.74190422289598
1167.28,124.98753727146209
1169.5,98.31727368421093
1171.72,108.35051821553361
1173.94,91.65922981325207
1176.16,74.62506889928136
1178.37,62.67749703124264
1180.58,49.72235275455205
1182.8,40.99899888307982
1185.01,29.508898351236894
1187.22,8.444190066069496
1189.42,-14.288497145415704
1191.63,-30.0680401127363
1193.84,-28.368339858417585
1196.04,-18.853555904615405
1198.24,-36.94953425107019
1200.44,-22.272381220391026
1202.64,-17.723705946377322
1204.84,-14.15729540893426
1207.03,-7.664839438661147
1209.23,-1.3378480585654415
1211.42,7.065667788569044
1213.61,31.549752812479255
1215.8,35.92811142893811
1217.99,51.82409348613487
1220.18,48.004013324390826
1222.36,37.09142121682794
1224.55,43.32899385765654
1226.73,42.62613913617679
1228.91,26.463743767921414
1231.09,14.89415902104156
1233.27,18.779281680783015
1235.44,16.457209101101853
1237.62,32.88508625527402
1239.79,43.06766898514297
1241.96,70.2001746492308
1244.13,92.95399321003197
1246.3,151.81001736892335
1248.47,207.82054412964817
1250.64,289.75212874275667
1252.8,386.3712957929006
1254.96,478.1112026670828
1257.13,586.5002077848078
1259.29,701.9713912091825
1261.44,817.9101704961165
1263.6,872.416202257808
1265.76,885.0176646786133
1267.91,808.6712543166293
1270.06,716.6669448100338
1272.22,646.0089360596235
1274.37,598.6537462684835
1276.51,533.1292563626198
1278.66,480.6775639354007
1280.81,407.5406943348539
1282.95,316.4844069890662
1285.09,277.56009696966794
1287.23,254.6762203648434
1289.37,244.12210060471807
1291.51,269.2345919296072
1293.65,304.2076000011075
1295.78,318.7111263227257
1297.92,310.9865031366903
1300.05,314.7035330826716
1302.18,323.9604859993592
1304.31,339.9031433450866
1306.44,390.8200330946461
1308.57,417.1424265408707
1310.69,395.25385890573693
1312.82,402.72822138003903
1314.94,458.8535674487832
1317.06,482.2987763594383
1319.18,551.6373594473275
1321.3,547.3474569372108
1323.41,497.4785014115432
1325.53,474.60359556444087
1327.64,483.8671280508929
1329.75,448.3181036216831
1331.87,441.91013992497665
1333.98,378.93003573648025
1336.08,336.75967252293617
1338.19,320.018868386569
1340.3,305.2320415333454
1342.4,238.16154040790343
1344.5,185.47430716180452
1346.6,140.40854112179022
1348.7,119.05940987707982
1350.8,93.09333179524538
1352.9,94.22416329999032
1354.99,88.49890995845044
1357.09,98.25010423516142
1359.18,105.52437372221289
1361.27,84.93958079796698
1363.36,54.58958133340593
1365.45,39.758507207998264
1367.54,47.82552501604118
1369.62,82.0267431130037
1371.7,121.55045606526323
1373.79,150.44191774414526
1375.87,163.55573346758274
1377.95,165.60349023701406
1380.03,170.48710125998946
1382.1,168.77500761564352
1384.18,158.94028468206784
1386.25,132.1701771351145
1388.33,83.22325299481622
1390.4,45.477033862284316
1392.47,14.928006108989166
1394.54,6.667822542227441
1396.6,-5.450019738930905
1398.67,-3.0006427950172565
1400.74,-37.5592029794102
1402.8,-32.12944950885412
1404.86,-32.14371192324393
1406.92,-7.653367902165428
1408.98,5.433066338819344
1411.04,45.96898498041469
1413.09,54.23635976835476
1415.15,77.46955060401183
1417.2,115.8076875635802
1419.25,166.10419577440348
1421.3,196.97441552939654
1423.35,216.17655573479897
1425.4,242.94502831030923
1427.45,218.84759211303253
1429.49,214.07106828999463
1431.54,179.611817535427
1433.58,127.37097925280295
1435.62,99.53542500260392
1437.66,91.24442623578511
1439.7,74.827750598678
1441.74,99.42471061884135
1443.77,94.31749810520023
1445.81,97.40737569103658
1447.84,123.1670588531706
1449.87,124.9264312644807
1451.9,114.30111728926909
1453.93,138.62105447863632
1455.96,125.83525654204504
1457.98,141.74990965221787
1460.01,187.3617068452745
1462.03,254.38165861134144
1464.05,337.9017606280197
1466.07,445.68070911289715
1468.09,532.3819971284445
1470.11,675.4786775535767
1472.13,821.7295546266471
1474.14,1002.9887088217695
1476.16,1169.2531169632398
1478.17,1268.5197961494798
1480.18,1304.3096143436467
1482.19,1268.9530057261559
1484.2,1117.9709241424328
1486.21,965.8367489316176
1488.21,780.8334288505155
1490.22,620.4820545689706
1492.22,485.9228121176268
1494.22,369.96260300235053
1496.22,268.59885479484706
1498.22,218.97190315185503
1500.22,152.36499288195296
1502.22,117.34713615523128
1504.21,59.67787547486114
1506.21,16.021570458191263
1508.2,4.709303665464404
1510.19,7.738881666627094
1512.18,-3.034687701386474
1514.17,10.386520491357032
1516.16,12.66716010654659
1518.14,2.3290921348136635
1520.13,5.322815273872266
1522.11,8.12270603046727
1524.09,14.060354295075058
1526.07,-0.5801957875357857
1528.05,-20.371966852512514
1530.03,-23.93552173007356
1532.01,-9.65324644311363
1533.98,30.47350753688056
1535.96,41.58632615573106
1537.93,16.303063226593622
1539.9,-2.0440672152553816
1541.87,3.7819823947515943
1543.84,4.637375981450987
1545.81,32.521200263731544
1547.78,33.67070013908847
1549.74,48.08508596125898
1551.7,46.62076938928453
1553.67,66.08659923658092
1555.63,95.5771925580957
1557.59,122.80626573746963
1559.55,160.67806081229105
1561.5,196.04924798982552
1563.46,186.8241614960798
1565.41,183.09765447248628
1567.37,159.1074776821099
1569.32,113.94856297776414
1571.27,110.19206867488833
1573.22,108.17109159109214
1575.17,95.4092362285603
1577.11,85.00156490883728
1579.06,60.04316695523289
1581.0,54.62915644665577
1582.95,70.42609854287048
1584.89,73.19581676213784
1586.83,73.79539073503815
1588.77,68.6533444344825
1590.7,50.29345345334468
1592.64,31.810933234471122
1594.58,7.420055872122703
1596.51,-0.47442356277269937
1598.44,22.960825969289317
