Raman Shift,Processed Intensity
331.095,187.21569293144466
333.909,64.07421593869776
336.721,51.72391892777932
339.531,100.33148728603283
342.339,137.61126288976948
345.145,157.53954853924643
347.949,134.64034096506293
350.751,121.15201621551432
353.55,146.50353885346385
356.348,200.02876639132546
359.144,232.20456324985025
361.937,255.12700995499517
364.729,272.654279001481
367.518,301.97808214491306
370.306,335.29035578915
373.091,395.2118511355684
375.874,452.26834337996434
378.656,450.22398376659294
381.435,406.60512783267905
384.212,311.5098779386535
386.988,186.03667341742403
389.761,90.33192834269448
392.532,44.16147882109681
395.301,2.0534588557457027
398.068,-25.035014266384678
400.833,-47.47972601565789
403.596,-66.17982188276437
406.358,-62.74826724076274
409.117,-73.65469321720502
411.874,-57.60634501021286
414.629,-51.54808464634198
417.382,-65.0433542402211
420.133,-51.226574085615994
422.882,-2.517451088789585
425.629,9.331372302681757
428.374,74.85333026317858
431.117,139.58218358659997
433.858,216.81388968964484
436.597,279.9875202341568
439.334,264.78046446373764
442.069,214.34648968323472
444.802,167.79189697632182
447.533,158.98501025640553
450.262,167.55614150801966
452.989,227.04041317107385
455.714,241.97296147748466
458.438,240.93652074018428
461.159,192.5137695468875
463.878,152.668248382432
466.595,78.17289629874267
469.31,95.99096853716264
472.024,98.32362081745123
474.735,99.4670253090676
477.444,75.57424850722964
480.152,67.32189101372614
482.857,56.62434636535727
485.561,98.01473427635437
488.262,122.50203134444928
490.962,180.80916010348028
493.659,207.42061180429073
496.355,177.15387871942085
499.048,155.3975531144788
501.74,174.3494262195086
504.43,204.540301486074
507.118,255.2149507014783
509.804,318.2368796267956
512.488,370.1359507777588
515.17,448.9655300151712
517.85,531.8739188495997
520.528,582.1995962698707
523.204,608.2807462858641
525.878,645.8362140427198
528.551,669.679795268391
531.221,688.6250019116642
533.89,638.6755420658847
536.556,600.5015141784161
539.221,605.0584584029443
541.883,644.7778365232189
544.544,671.4717975910762
547.203,669.7617530882685
549.86,659.2688568501994
552.515,661.3282945134661
555.168,698.5607158205471
557.819,754.7293812102057
560.469,759.8354036459891
563.116,747.0701333018656
565.761,763.434208914523
568.405,783.8327996118614
571.047,808.5041800748158
573.687,847.3530676039463
576.324,798.9982449003132
578.96,768.9154209415933
581.594,750.5800918581808
584.227,740.0389732378626
586.857,709.0052419543063
589.485,739.7156827574577
592.112,712.0259301020274
594.737,694.4580909283527
597.359,663.5340817289775
599.98,650.5851560914207
602.599,642.4661941457098
605.216,678.412849154774
607.831,730.8510750572236
610.445,778.2066540101109
613.056,798.4290096460049
615.666,896.1816869967115
618.274,977.3661657503294
620.88,1081.264721127362
623.484,1158.5404276139661
626.086,1199.2847817428187
628.686,1232.2558010644598
631.284,1320.7827897853003
633.881,1399.2425329770517
636.476,1455.6783479290257
639.068,1409.6572307385209
641.659,1280.7460505202644
644.249,1123.7020293301312
646.836,965.6632220888755
649.421,793.4342346010858
652.005,622.6290844312944
654.587,470.0045379705639
657.166,322.07916178879213
659.745,217.60951684415568
662.321,156.63778126398893
664.895,90.63461122089711
667.468,53.49914466601513
670.038,23.32090982417685
672.607,19.90363845097818
675.174,15.336703488635521
677.739,42.661797217290314
680.303,26.491992407786256
682.864,20.63080505582957
685.424,18.453161878044284
687.982,30.095894299971405
690.538,10.505377396695167
693.092,-6.5624483411288566
695.645,-38.208721907920335
698.195,-56.344019900386684
700.744,-50.069286741494125
703.291,-24.532959452965315
705.836,3.3547586090535333
708.38,-5.554286120483084
710.921,6.92523519933502
713.461,7.121662007223222
715.999,-0.5412708907924753
718.535,37.97938071360204
721.069,83.5838708924648
723.602,63.267863988592126
726.133,65.26529692726626
728.662,51.0007653375319
731.189,13.327623959180073
733.714,1.5756108592636338
736.238,3.693709743850377
738.759,-14.51174963498579
741.279,-5.710419643596197
743.798,-25.38126293119103
746.314,-25.574453488262407
748.829,-29.482801514537186
751.342,-7.632228495232994
753.853,17.07061225735106
756.362,20.00499775851904
758.869,14.598035601112315
761.375,36.277040395905715
763.879,30.136195926299024
766.381,52.93655063634105
768.882,74.82029883303858
771.38,45.45363331723456
773.877,33.21721706211292
776.372,49.444273939317554
778.866,41.89677468317086
781.357,50.28924190251519
783.847,84.95541223541068
786.335,72.18156517049943
788.821,69.63508996360702
791.306,119.88829064958418
793.789,166.13266724462505
796.27,216.03605409143938
798.749,293.1711867758538
801.227,320.0156976148369
803.702,364.2378254302448
806.176,415.36307770351823
808.649,433.4885117780045
811.119,459.6636827279417
813.588,443.22397217983075
816.055,402.07629808618344
818.521,409.5086340230848
820.984,390.5709570591821
823.446,342.5990527675265
825.906,299.78593928502823
828.365,245.41995803858117
830.821,201.64667399499103
833.276,211.46887114900755
835.729,195.07988134468224
838.181,173.6731035729249
840.631,155.77533279286308
843.079,163.43723161035155
845.525,142.13808767075852
847.97,134.07152343270923
850.412,109.09787260849134
852.854,101.31560422351731
855.293,88.34703239006308
857.731,111.05259750958612
860.167,99.00705223694831
862.601,75.59469506368123
865.034,61.62841342506931
867.465,46.11158395008033
869.894,18.42854413987584
872.321,45.34458785583956
874.747,64.05357985523165
877.171,71.93985791661771
879.594,87.53061115576861
882.014,83.97206786537936
884.433,50.648540497643125
886.851,56.99194683730752
889.266,63.14847403187241
891.68,76.35952833607234
894.092,99.7712562849324
896.503,139.67263729539172
898.912,147.01929055364508
901.319,158.14775809295566
903.724,153.0135973952854
906.128,182.90566446911225
908.53,180.96992073677166
910.931,198.5903827789448
913.329,179.62721493628874
915.726,155.46434572058638
918.122,137.91422708304503
920.516,142.979736539736
922.908,126.61607929703496
925.298,106.15935704372714
927.687,105.37418436216421
930.074,111.54892418704503
932.459,135.20997088324157
934.843,144.64555713314803
937.225,142.47717987164515
939.605,109.3262643163091
941.984,102.81416133095104
944.361,82.99071621772555
946.736,96.23902798542736
949.11,90.22782766541513
951.482,85.4829042465783
953.853,70.72043537220634
956.222,67.4184132749574
958.589,95.72140404516404
960.954,108.29768785151191
963.318,87.05354201886621
965.68,76.37133362990403
968.041,66.15713593627038
970.4,58.031201912586994
972.757,79.08986638188662
975.113,52.42935290295031
977.467,12.193390181452742
979.819,-1.6172667569840087
982.17,3.759922701492542
984.519,-9.96024043836951
986.866,15.365494139498878
989.212,33.30882489475812
991.556,63.869896220573764
993.899,94.09634541713353
996.24,88.94044490325155
998.579,69.54481585654776
1000.92,39.33766566314807
1003.25,15.413739653099356
1005.59,18.39146331197412
1007.92,34.12722734961676
1010.25,35.52491242683868
1012.58,40.059701453972366
1014.91,33.53998712751604
1017.24,42.0121366096439
1019.56,47.808113350567965
1021.88,47.87881319662279
1024.2,51.7464481173904
1026.52,16.218834694729367
1028.84,24.72273023085404
1031.16,79.82764504688771
1033.48,119.86489450900535
1035.79,126.21331772124199
1038.1,148.4421390754453
1040.41,124.59668694409015
1042.72,134.24601713499396
1045.03,154.86386967936346
1047.33,153.25724466746942
1049.64,141.56640665573923
1051.94,139.21727002623516
1054.24,130.96902244136322
1056.54,140.7236530604921
1058.84,149.4307188518094
1061.13,170.61115852322473
1063.43,166.40491597708524
1065.72,159.18999233632144
1068.01,181.91578368486967
1070.3,203.8173711890554
1072.59,244.74885883801176
1074.87,267.9929016602964
1077.16,231.87975775002838
1079.44,232.83491172159552
1081.72,255.52193625960376
1084.0,277.1758298593029
1086.28,344.60302123368024
1088.56,410.0385165777004
1090.84,464.09828492778115
1093.11,546.5887863784087
1095.38,589.6498336320935
1097.65,583.4688821207528
1099.92,521.3762725080423
1102.19,443.035711286931
1104.46,368.587132329656
1106.72,338.36098700909974
1108.98,337.78301051064796
1111.24,373.7551786202371
1113.5,416.13190260763395
1115.76,471.3390812525854
1118.02,513.8502957280932
1120.28,555.6153854360869
1122.53,556.1080714621321
1124.78,519.2307228872924
1127.03,466.74293262378865
1129.28,416.1662837268573
1131.53,367.78435380183123
1133.77,340.40462417314416
1136.02,318.1680081009388
1138.26,291.6440932833964
1140.5,282.7359081685895
1142.74,308.9656406472832
1144.98,333.61749960288375
1147.22,378.9281955090032
1149.45,398.5631353127442
1151.69,376.80690303226424
1153.92,338.5156451162509
1156.15,295.49802723196444
1158.38,240.18190533899974
1160.61,205.37623485828226
1162.83,196.41393222201282
1165.06,167.29473642361472
1167.28,153.16140390101236
1169.5,176.29971294372012
1171.72,157.28132524278772
1173.94,95.67807601217032
1176.16,75.39531172915235
1178.37,37.81475168428665
1180.58,15.794492388486788
1182.8,22.66901198012033
1185.01,-1.8936825107559798
1187.22,-27.22538408863511
1189.42,-31.84815757594879
1191.63,-34.66481158855004
1193.84,-26.863659065455977
1196.04,-16.44232875996704
1198.24,4.554133901783189
1200.44,10.557067913002584
1202.64,11.902757979273474
1204.84,0.308615321361458
1207.03,-4.983973789304855
1209.23,-21.542988769551812
1211.42,3.0161226634609193
1213.61,10.459008033087684
1215.8,39.313352333286275
1217.99,53.535534853593845
1220.18,38.891572783661786
1222.36,36.290445770172255
1224.55,44.307896664231066
1226.73,39.56737512590712
1228.91,59.406695514481044
1231.09,49.63993287393873
1233.27,37.27169987084358
1235.44,66.4018999226862
1237.62,47.46381365957018
1239.79,84.03361769803655
1241.96,136.21133198631446
1244.13,193.33510048290464
1246.3,268.6954718351669
1248.47,349.44015624838653
1250.64,431.09782997388334
1252.8,569.6257493209334
1254.96,707.0287932401181
1257.13,850.7880297161976
1259.29,997.051186922881
1261.44,1094.9183624728423
1263.6,1179.918208858213
1265.76,1193.722214129165
1267.91,1171.7637444772602
1270.06,1065.428515390226
1272.22,948.6736342353038
1274.37,797.5037856997376
1276.51,684.6378934217346
1278.66,587.3186387642868
1280.81,533.6457891128034
1282.95,479.24285950607714
1285.09,459.9713933148669
1287.23,414.3595286347713
1289.37,412.316278964812
1291.51,414.5600996003018
1293.65,424.904596882855
1295.78,428.25852316467694
1297.92,430.2448193919065
1300.05,427.0577529260527
1302.18,436.4152934606634
1304.31,470.8448222713382
1306.44,494.96884146573734
1308.57,492.2192546621775
1310.69,488.980219096783
1312.82,545.397664397316
1314.94,571.8078589760471
1317.06,612.9755002321526
1319.18,651.4746618969652
1321.3,668.0221223316089
1323.41,644.1440261579673
1325.53,635.7949268420343
1327.64,586.2625435629816
1329.75,531.8820418917501
1331.87,510.5122192315482
1333.98,495.39264263929954
1336.08,449.23888188518936
1338.19,399.8139329883977
1340.3,356.78535603855016
1342.4,283.5347939695464
1344.5,236.49130085719162
1346.6,181.2741940263536
1348.7,125.35971568192736
1350.8,74.12864692075027
1352.9,55.390112219716684
1354.99,42.14347916198403
1357.09,67.76882959175691
1359.18,73.93172208601027
1361.27,70.24986350858808
1363.36,73.72168532620071
1365.45,59.2501580196672
1367.54,67.54755787610861
1369.62,75.46880520970899
1371.7,114.96385614841438
1373.79,152.3634277539627
1375.87,185.09329457048761
1377.95,172.15048993502205
1380.03,139.29379300228675
1382.1,114.85326338852383
1384.18,115.39691867248052
1386.25,106.68312618209939
1388.33,90.0415662097837
1390.4,75.75419522766083
1392.47,43.67430434094376
1394.54,9.559863455576533
1396.6,-4.497896458881314
1398.67,-19.31256335205171
1400.74,-18.74538497755384
1402.8,-33.324300732627535
1404.86,-24.482023203231165
1406.92,-43.07983601780256
1408.98,-15.788538208588989
1411.04,22.197275438072893
1413.09,68.44492926774251
1415.15,90.71223709127753
1417.2,162.61417004505643
1419.25,202.19428635596
1421.3,225.16282777301944
1423.35,240.42053028477721
1425.4,244.2491015033163
1427.45,219.02550757209497
1429.49,220.3172124547325
1431.54,192.4059886523669
1433.58,188.097442206727
1435.62,162.0543472270108
1437.66,144.0347423215278
1439.7,115.27288417219961
1441.74,93.47924872810677
1443.77,82.17386573237218
1445.81,119.21012943952587
1447.84,105.82241885667077
1449.87,106.76895607989377
1451.9,132.6175217735356
1453.93,135.1740277923168
1455.96,163.62537551775085
1457.98,221.3489808612269
1460.01,272.05563260041845
1462.03,331.9799697633223
1464.05,423.9281018694287
1466.07,544.8490386947108
1468.09,690.2632628937542
1470.11,897.9770169076053
1472.13,1112.1299232049528
1474.14,1312.5283188090195
1476.16,1504.5500183958854
1478.17,1611.3347916785265
1480.18,1653.4986503146554
1482.19,1608.2290871955258
1484.2,1465.3326966871139
1486.21,1267.6637472522516
1488.21,1073.7908493108532
1490.22,829.6636231001519
1492.22,648.6603189158691
1494.22,465.6354373534077
1496.22,326.9197305014143
1498.22,218.74877456392142
1500.22,175.50106629201127
1502.22,136.03135751071864
1504.21,101.62303726497953
1506.21,65.17860920368321
1508.2,19.69588324943811
1510.19,-17.112975588803238
1512.18,-17.05954126026495
1514.17,-2.4791235072470954
1516.16,10.197804949348438
1518.14,29.112274690886125
1520.13,19.119676104803375
1522.11,-3.257859275236342
1524.09,3.454255904149477
1526.07,-2.8883633675886813
1528.05,-12.620502980304764
1530.03,-12.648301679183305
1532.01,-5.734965238914583
1533.98,5.5468514015310575
1535.96,30.957898803820626
1537.93,20.116139493563878
1539.9,4.401507360799997
1541.87,5.955905155723258
1543.84,0.1117734129800283
1545.81,6.201612197590748
1547.78,26.224645708015032
1549.74,25.9420583190074
1551.7,56.97223062447415
1553.67,92.79073738508941
1555.63,108.25415499971996
1557.59,139.17148802447014
1559.55,168.63750045363122
1561.5,162.3660470006305
1563.46,176.92816628374362
1565.41,185.27588829751858
1567.37,159.6469942651504
1569.32,129.56501458609273
1571.27,93.79160773605622
1573.22,60.32655821462163
1575.17,51.693488778568735
1577.11,77.17795362758443
1579.06,84.1131506375923
1581.0,71.26087168931917
1582.95,64.24007204448458
1584.89,57.193534960081706
1586.83,65.40691725503962
1588.77,68.92779487688654
1590.7,75.518041801746
1592.64,45.653827981953555
1594.58,10.692283960336454
1596.51,-4.628501182164882
1598.44,20.524803835395687
