Raman Shift,Processed Intensity
331.095,191.62575698859519
333.909,165.97715342709262
336.721,161.4590959573893
339.531,174.0716037285788
342.339,211.33854371174175
345.145,236.47431651570832
347.949,241.4791136313761
350.751,257.01988896175544
353.55,292.57323511391087
356.348,309.61587873853205
359.144,339.8151758695003
361.937,342.74341678727205
364.729,331.44927373939436
367.518,335.36258199437043
370.306,359.7705494669426
373.091,414.1034901529092
375.874,470.0300813734639
378.656,494.36214482906416
381.435,487.43561812948656
384.212,391.9200977524629
386.988,276.0093343832468
389.761,160.61172825419544
392.532,81.01701496054238
395.301,22.705808419023924
398.068,-1.364665697295095
400.833,-44.474836524198054
403.596,-46.95229266673641
406.358,-64.6955727123609
409.117,-66.1265318722626
411.874,-83.80938026866261
414.629,-99.92687106318954
417.382,-65.80411479205213
420.133,-42.38478389181773
422.882,-13.183518901285424
425.629,53.14261055574798
428.374,113.69883073967003
431.117,188.73357786741235
433.858,273.8765550419571
436.597,253.51964632470208
439.334,256.9597355697383
442.069,247.68438240097385
444.802,231.56226009402553
447.533,217.89073631524752
450.262,224.1577395750478
452.989,208.99410187167314
455.714,251.3639965731004
458.438,261.37442391796094
461.159,243.08469651646828
463.878,172.60163913706765
466.595,126.74621706450398
469.31,55.672545410280236
472.024,24.43927937548142
474.735,38.58100451360997
477.444,48.679632717405184
480.152,68.45961032406649
482.857,98.54979694373515
485.561,86.81677794749703
488.262,112.93627924344719
490.962,150.86935386185996
493.659,174.95762500788305
496.355,197.73281482852008
499.048,197.1548446081788
501.74,201.08803020231744
504.43,238.58680128061224
507.118,283.08618247488266
509.804,355.4017983365534
512.488,411.25368781790667
515.17,486.74249970572646
517.85,562.5875928168462
520.528,626.0318028603742
523.204,660.0795426332393
525.878,670.496806977656
528.551,644.7635586909769
531.221,662.4546858641061
533.89,669.9066735056281
536.556,656.408084689745
539.221,657.1043274184849
541.883,665.7119452934503
544.544,674.0900510446936
547.203,729.2403314881753
549.86,753.0689572451315
552.515,732.5294448423838
555.168,716.2893283364597
557.819,742.111116652
560.469,766.8046794915972
563.116,821.465347531333
565.761,893.6167745210819
568.405,900.4014184324365
571.047,865.8186416542503
573.687,856.4390016643679
576.324,871.1661607489723
578.96,865.1416528648028
581.594,877.2210790727845
584.227,836.8788744002491
586.857,808.0654556555187
589.485,799.2548454329776
592.112,831.2065818324227
594.737,795.4895329403253
597.359,759.7676160729961
599.98,708.4188503530809
602.599,703.1544092860581
605.216,750.9710066700718
607.831,822.6270920295783
610.445,866.1190460489838
613.056,915.4430902920035
615.666,971.6905302543478
618.274,1010.5715698449931
620.88,1106.6057925341029
623.484,1235.3126425009696
626.086,1366.4495248295607
628.686,1488.8689533231036
631.284,1586.9471268901057
633.881,1590.0601249779988
636.476,1552.3934363401067
639.068,1501.227678278813
641.659,1411.5100301744333
644.249,1291.282809871238
646.836,1120.016811968234
649.421,916.0398842051891
652.005,700.8702657534054
654.587,512.6451636017377
657.166,346.64456703784344
659.745,218.91030022467294
662.321,151.76983668172034
664.895,102.8839232900882
667.468,91.00849001184588
670.038,50.85179770462537
672.607,2.074443079075536
675.174,-30.377303010345713
677.739,-21.033390269953543
680.303,-4.566645359244376
682.864,20.06437797719309
685.424,26.520165591594832
687.982,26.08024723380413
690.538,28.547964797396617
693.092,10.488576573224691
695.645,9.46736412697146
698.195,-12.474162726540271
700.744,-23.10396464565838
703.291,1.8100675712648808
705.836,31.404890126156715
708.38,-4.420538090190348
710.921,-30.719528197260388
713.461,-15.783362595371727
715.999,-5.617472876265765
718.535,27.86809335709404
721.069,69.38248976846626
723.602,57.49217371143823
726.133,23.620913414431925
728.662,38.621223737139644
731.189,31.1077066888638
733.714,32.50467766113752
736.238,52.99855356511034
738.759,30.63309811178806
741.279,-12.690571002965498
743.798,-37.73778443724268
746.314,-30.94031401808479
748.829,-20.301128743581103
751.342,-8.537249923772379
753.853,3.1583428819567416
756.362,23.59289910132202
758.869,31.95484543163093
761.375,67.33759126513542
763.879,59.26333411437781
766.381,56.254484085160584
768.882,58.595564539990846
771.38,75.38082704723865
773.877,61.70472347315899
776.372,85.51904474058574
778.866,92.53767863523899
781.357,112.80803427870387
783.847,112.28246660141303
786.335,136.0087484346709
788.821,130.2253045074442
791.306,174.45644544314086
793.789,214.03617318497345
796.27,275.67960546893255
798.749,345.3401145824773
801.227,398.39979945656046
803.702,469.43138632907676
806.176,507.4363198845101
808.649,533.9876162983369
811.119,557.3727162814348
813.588,556.2125286006722
816.055,496.4614259804614
818.521,469.454860051942
820.984,418.7665001116859
823.446,391.11299092801437
825.906,367.9253772139814
828.365,333.2538614336934
830.821,273.4820854181471
833.276,250.13665007630493
835.729,240.02996843951405
838.181,223.9745472773384
840.631,212.06869728483366
843.079,176.12510041267433
845.525,140.8136629115677
847.97,141.3281779004824
850.412,144.48155936344097
852.854,148.51536186060412
855.293,128.38549071554348
857.731,112.66695982155989
860.167,77.22055420991319
862.601,60.95473071328274
865.034,60.73037577209129
867.465,94.31318228844157
869.894,64.6117407657739
872.321,85.48705901994867
874.747,73.94303427127898
877.171,78.03121095084907
879.594,102.66030041159547
882.014,150.45331968700498
884.433,128.31901596410034
886.851,121.97567200880235
889.266,94.52253063891817
891.68,65.15407633998507
894.092,93.35050735730283
896.503,130.25868397844533
898.912,169.8349815776694
901.319,193.46433413652517
903.724,198.24594443112755
906.128,172.13613707657373
908.53,182.61502109516732
910.931,168.35315248464144
913.329,153.16391107209915
915.726,145.0987345108058
918.122,140.25663799127392
920.516,133.45087680948745
922.908,138.1613232208481
925.298,139.91541472268614
927.687,122.52624519391748
930.074,130.80684651088927
932.459,153.9035177822675
934.843,154.81963077440832
937.225,141.6061020033933
939.605,131.21853149373214
941.984,104.27910344182487
944.361,86.36229640323677
946.736,96.13773633711298
949.11,89.60828774582933
951.482,100.68147814797976
953.853,95.31235112278341
956.222,90.12250983069316
958.589,78.59058910542558
960.954,80.33796564123372
963.318,57.12875389445935
965.68,51.01265912793542
968.041,49.75354474110736
970.4,60.87704721920659
972.757,47.956286320513755
975.113,64.32614669219538
977.467,28.892797581377636
979.819,0.7051173081299567
982.17,-3.616739404410737
984.519,1.8329431012266468
986.866,7.483535544875394
989.212,22.85949079475722
991.556,37.72319971402976
993.899,54.36070491751161
996.24,79.29598826585288
998.579,94.24335359779548
1000.92,97.29790470053786
1003.25,61.3164994705719
1005.59,33.870132645947706
1007.92,8.482032824251519
1010.25,14.48480709963178
1012.58,-4.312890490650489
1014.91,1.3260246277243368
1017.24,-2.980547377879475
1019.56,9.766112914041287
1021.88,28.18364321354352
1024.2,69.08003158212591
1026.52,54.64409710101586
1028.84,38.969303872786895
1031.16,46.815670261071546
1033.48,49.46691622551566
1035.79,72.44475351387246
1038.1,117.98508061600342
1040.41,125.99036819407047
1042.72,119.45823498891923
1045.03,129.3385951550365
1047.33,103.58128178597485
1049.64,118.32652758263839
1051.94,125.47639790252242
1054.24,148.59955714228704
1056.54,145.97889226318898
1058.84,152.13532679270475
1061.13,146.16115863567643
1063.43,159.5772074092697
1065.72,171.2851998731628
1068.01,204.71063155021398
1070.3,209.94562834712792
1072.59,190.65371293703788
1074.87,173.30790447541517
1077.16,156.0002468874061
1079.44,184.20371810754773
1081.72,234.43890122424477
1084.0,288.797798481389
1086.28,313.0866928990247
1088.56,406.8737717987767
1090.84,467.7272265197521
1093.11,562.2152568963556
1095.38,602.8584566884758
1097.65,567.9393418688228
1099.92,485.97854557692517
1102.19,410.1633940255101
1104.46,358.15743478782997
1106.72,341.0528222278542
1108.98,344.08460769235853
1111.24,364.3450297030208
1113.5,389.0692327199356
1115.76,440.34955733371066
1118.02,512.8498304575653
1120.28,537.138703138475
1122.53,560.5944169397405
1124.78,536.2619512759472
1127.03,462.8054088431527
1129.28,409.41278200146076
1131.53,367.1769096337853
1133.77,297.90500543318444
1136.02,301.78532904734107
1138.26,287.19671436589647
1140.5,286.4704787601647
1142.74,320.128522799032
1144.98,363.1690490124795
1147.22,375.0665663693874
1149.45,403.6290376124873
1151.69,378.85502659331314
1153.92,334.31465513095327
1156.15,309.8638932041456
1158.38,294.5493253338391
1160.61,281.08434553719053
1162.83,250.42059037679087
1165.06,203.98603867656357
1167.28,171.1135874281308
1169.5,150.08867531623196
1171.72,161.91119195842634
1173.94,139.20024428765214
1176.16,96.47987531574313
1178.37,53.65525908741779
1180.58,29.536514681885137
1182.8,4.886329738264294
1185.01,0.08663160005153259
1187.22,-18.337598683274337
1189.42,-32.33736900383042
1191.63,-22.91109978649024
1193.84,-27.295097098625547
1196.04,-28.106410111828154
1198.24,-34.43807190848679
1200.44,-22.24005744156989
1202.64,-23.795482550564657
1204.84,13.707955270701405
1207.03,7.225581385249598
1209.23,7.474774582967029
1211.42,13.98257048061123
1213.61,41.418979952255086
1215.8,41.16840356974262
1217.99,77.85342843405351
1220.18,79.90624821854408
1222.36,82.09246831373798
1224.55,102.93967287687792
1226.73,101.16599188147757
1228.91,81.63247769068244
1231.09,80.2954816306351
1233.27,76.30188770669315
1235.44,81.51291774821584
1237.62,128.26603179144536
1239.79,150.1368284623918
1241.96,187.60570726447372
1244.13,228.10548324711863
1246.3,259.78328738864093
1248.47,338.02437174102306
1250.64,444.9759145747016
1252.8,578.1660636185857
1254.96,752.503931681035
1257.13,926.660544651782
1259.29,1076.2593133133864
1261.44,1218.9236480098316
1263.6,1290.5626685532088
1265.76,1311.609295082794
1267.91,1285.3059579717312
1270.06,1190.3236410670606
1272.22,1070.3809249297465
1274.37,945.243982455655
1276.51,814.5360983060636
1278.66,704.3567121476854
1280.81,620.9956999879296
1282.95,535.7428936054105
1285.09,488.5547428375826
1287.23,486.72097786838344
1289.37,491.38841437302267
1291.51,523.5133300913376
1293.65,538.290031877345
1295.78,525.5794227487893
1297.92,513.19471179383
1300.05,517.4728383634524
1302.18,535.226848644817
1304.31,568.4125579489073
1306.44,603.4618796648435
1308.57,633.3780589760963
1310.69,640.1642399100401
1312.82,674.6329847684497
1314.94,714.8824602246677
1317.06,743.8202424683864
1319.18,742.3537890170978
1321.3,756.4380533846859
1323.41,724.408814035728
1325.53,721.5064795302749
1327.64,707.114179382912
1329.75,701.4720453980106
1331.87,641.6772072907031
1333.98,599.5409311649921
1336.08,513.4933770394841
1338.19,463.44073732550396
1340.3,425.2890419718767
1342.4,371.4203445620876
1344.5,307.83557507810474
1346.6,236.6783450451528
1348.7,138.3778002955362
1350.8,108.83909278007604
1352.9,90.5862333319335
1354.99,56.19065871614248
1357.09,63.6045605839015
1359.18,79.3989763316315
1361.27,98.71617139170917
1363.36,117.17440889422096
1365.45,107.24890980491068
1367.54,73.79567020597915
1369.62,83.81337381498815
1371.7,124.87197117042501
1373.79,173.77935405536527
1375.87,211.67660134970652
1377.95,217.56179631097825
1380.03,187.3852724265737
1382.1,168.33533545646378
1384.18,122.36208071400324
1386.25,81.17740082292721
1388.33,54.159755379100716
1390.4,29.401797755137068
1392.47,3.0913352383363417
1394.54,1.1303844067283535
1396.6,-37.62672287964347
1398.67,-32.13523316507849
1400.74,-35.01710306184759
1402.8,-18.227658787962127
1404.86,-12.722259155376378
1406.92,7.829418628030453
1408.98,17.42432932308634
1411.04,33.535580114402364
1413.09,42.921951872859154
1415.15,75.86599362635297
1417.2,98.79307278385954
1419.25,140.12852059758984
1421.3,192.4404919108622
1423.35,245.29711062025876
1425.4,284.79028180444993
1427.45,318.15474194825833
1429.49,293.1013948810046
1431.54,225.67445723866308
1433.58,175.3466991641103
1435.62,125.97182786451731
1437.66,101.78449021635652
1439.7,110.30503727517726
1441.74,124.86333640441876
1443.77,107.26544054709143
1445.81,122.36501940220774
1447.84,100.25383822026765
1449.87,72.30937945588289
1451.9,85.76627394421052
1453.93,104.09725588691344
1455.96,120.5845940285883
1457.98,173.36771330939314
1460.01,253.34795937481204
1462.03,327.1886011806639
1464.05,444.5053097885816
1466.07,564.6756847805416
1468.09,727.8868759114932
1470.11,896.8022523810321
1472.13,1143.4185482955513
1474.14,1383.3991986065819
1476.16,1621.2648179062753
1478.17,1804.7265363657493
1480.18,1905.8764785305684
1482.19,1849.7591944971807
1484.2,1713.276424422688
1486.21,1466.568053510801
1488.21,1206.8692574739994
1490.22,949.4628860909165
1492.22,723.0604181923075
1494.22,552.8972023612876
1496.22,403.82769763358556
1498.22,307.0873808644585
1500.22,227.48322552417812
1502.22,155.7746566839985
1504.21,82.38783933545005
1506.21,42.891871471542345
1508.2,-0.0488323558488446
1510.19,19.80165204522359
1512.18,18.107903968929804
1514.17,-3.32255387400528
1516.16,-31.063062280062013
1518.14,-28.782108667167222
1520.13,-15.100467670016542
1522.11,12.456416927344208
1524.09,8.410809167716025
1526.07,11.6183896789546
1528.05,0.792060917257686
1530.03,-6.974246744912989
1532.01,-0.6817677682413432
1533.98,3.9540487411784397
1535.96,3.551155177112605
1537.93,23.584711985763306
1539.9,6.148989854018737
1541.87,-3.4712039357798403
1543.84,15.485186563216985
1545.81,29.255464361694294
1547.78,62.648415678112315
1549.74,88.71097465407752
1551.7,94.2044118792362
1553.67,141.3186181542601
1555.63,152.81495968240847
1557.59,161.6929427848986
1559.55,180.61878337817961
1561.5,194.63969073692056
1563.46,197.8029131617659
1565.41,243.1557360280367
1567.37,213.55500364396084
1569.32,200.66711729937515
1571.27,184.110890457285
1573.22,171.17183251685606
1575.17,160.08786114782947
1577.11,160.95406224398698
1579.06,132.86554511470763
1581.0,109.20315481938178
1582.95,102.82394640658913
1584.89,95.9659448675659
1586.83,80.10528604204887
1588.77,75.67050038126217
1590.7,75.80441575852387
1592.64,85.12606027985248
1594.58,107.23066033266923
1596.51,95.30868625354151
1598.44,19.52680275783223
