Raman Shift,Processed Intensity
331.095,153.2717227711796
333.909,130.8201521200658
336.721,118.50307950360866
339.531,113.48718691370323
342.339,111.96299651650452
345.145,115.59726693002813
347.949,123.96157997792852
350.751,138.62759410994795
353.55,124.97658353665702
356.348,110.1518345070458
359.144,120.96342253850435
361.937,150.26918012298484
364.729,217.73661681412614
367.518,274.22388693343373
370.306,308.0655191812102
373.091,376.6914795808293
375.874,440.62718680397074
378.656,440.2078132101342
381.435,395.86401445758474
384.212,307.2171829238205
386.988,173.03184398318217
389.761,78.07281418923048
392.532,19.914740409494698
395.301,-38.72455151596478
398.068,-30.50785097312928
400.833,-16.859499629750644
403.596,-1.1558563382232023
406.358,2.798520513906624
409.117,-22.80054916827976
411.874,-79.94733709502589
414.629,-94.73096193191213
417.382,-87.66871844280513
420.133,-47.99179649239932
422.882,7.44994156380244
425.629,62.473649757988824
428.374,112.03965836531006
431.117,182.01334880815602
433.858,247.68893332232983
436.597,287.12275843275256
439.334,273.51422747676907
442.069,249.87243741317843
444.802,201.5875775360173
447.533,183.62137580739045
450.262,185.55468804744442
452.989,225.01603950529488
455.714,225.7292140489958
458.438,240.22751002218547
461.159,207.09180562453457
463.878,164.71243381601425
466.595,149.57486674496704
469.31,124.59301922379109
472.024,89.06159982367853
474.735,105.37036673125976
477.444,96.76600265286152
480.152,70.87589448067729
482.857,86.327151054164
485.561,94.65133520716154
488.262,95.66539359060471
490.962,135.56688097631968
493.659,154.79109887633103
496.355,141.2491962185727
499.048,156.13769859402737
501.74,179.93851369433332
504.43,219.08560341605107
507.118,269.107846441123
509.804,336.10523415066837
512.488,364.3203046340195
515.17,420.0905290786991
517.85,456.6578410175507
520.528,492.45435605205785
523.204,519.6738058613678
525.878,551.1286864970361
528.551,526.1550257253912
531.221,549.5647694175086
533.89,556.3600727010971
536.556,557.8761625409547
539.221,599.3051527003763
541.883,608.1246206073256
544.544,593.7642794587
547.203,611.9869360388807
549.86,596.7932580620868
552.515,592.7551129433286
555.168,638.8727160931494
557.819,655.7651125457228
560.469,684.7654204916944
563.116,688.8732176681797
565.761,691.3735944154178
568.405,711.1704924477135
571.047,724.2629007672349
573.687,714.2686706254381
576.324,686.186425722578
578.96,653.4908057405619
581.594,666.418186066272
584.227,662.680968943464
586.857,661.9913984341911
589.485,653.25204204689
592.112,606.0319866501923
594.737,588.9477962914798
597.359,598.8539938249783
599.98,595.6049711112682
602.599,610.8645182644241
605.216,623.5820195658221
607.831,636.0400779493662
610.445,671.4735680581443
613.056,729.2601178725122
615.666,742.0629712905502
618.274,757.1167078513827
620.88,792.6082005537401
623.484,880.6290022459457
626.086,985.0801129682791
628.686,1079.5767472953453
631.284,1128.1626254879602
633.881,1173.5956932164695
636.476,1164.6338412840714
639.068,1117.2253872548963
641.659,1016.3186047011363
644.249,890.5283953073163
646.836,772.3267704983755
649.421,663.8047616391768
652.005,532.3867111864051
654.587,410.06837336427543
657.166,294.65501484023935
659.745,235.4280868292626
662.321,176.43094481715298
664.895,143.56409209340927
667.468,92.10899471264747
670.038,64.53761074173099
672.607,7.845729030712846
675.174,-19.39940630193496
677.739,-26.582899955515586
680.303,-14.56600870758757
682.864,-4.828994391707965
685.424,26.624115473730853
687.982,10.408384547265996
690.538,0.09130020759994295
693.092,20.907061178640106
695.645,-3.3862766305569494
698.195,0.5408219141258996
700.744,3.017947708716747
703.291,-5.530009736547527
705.836,5.321904420296505
708.38,8.998715474832352
710.921,-3.9792381770835163
713.461,23.908461957906184
715.999,32.03946332921532
718.535,37.07721936539065
721.069,62.39956649718397
723.602,38.19396784729679
726.133,31.362280729642862
728.662,42.13980986289789
731.189,6.952455822150114
733.714,-8.821374604695393
736.238,3.720665749019645
738.759,-5.995129976798125
741.279,8.314815366134098
743.798,26.219939064825212
746.314,1.5755426434848232
748.829,0.09422453342676818
751.342,-17.130306304651185
753.853,-19.28989294886287
756.362,-28.38573594147283
758.869,-12.085533785369535
761.375,33.56223174189381
763.879,73.556864504033
766.381,66.65973599049221
768.882,83.58475777709236
771.38,28.045996843829016
773.877,7.6624337498030854
776.372,25.81510176054053
778.866,33.83755930863799
781.357,34.87302912107475
783.847,73.58868020367026
786.335,79.74705268268008
788.821,109.2060540749635
791.306,154.06181270100546
793.789,188.60105490746378
796.27,207.06300609924097
798.749,214.4965298667969
801.227,268.5696480658489
803.702,327.617156135155
806.176,390.2120479381201
808.649,415.451226318673
811.119,414.050737466672
813.588,375.48862433092404
816.055,348.1953990798345
818.521,295.4588012763304
820.984,251.85236557660164
823.446,221.33065609549317
825.906,215.37211981951918
828.365,221.64574954367663
830.821,213.86822299873597
833.276,177.99437531186913
835.729,137.83624289584805
838.181,98.87258352871572
840.631,87.77268214774722
843.079,81.6820614053081
845.525,93.74628746281564
847.97,98.01572816565022
850.412,106.3503112180615
852.854,92.32428235807583
855.293,77.17858258001934
857.731,52.29703488085147
860.167,52.63491195888196
862.601,40.90940867438644
865.034,28.932971653086952
867.465,19.184724127722802
869.894,30.334271732002435
872.321,44.09884162789194
874.747,87.57661210908691
877.171,103.29432791877616
879.594,88.3025346150198
882.014,45.93747960279438
884.433,29.678251261277182
886.851,13.765822833033326
889.266,40.25066774177776
891.68,68.3737082434734
894.092,84.61393212717257
896.503,87.25981893966696
898.912,111.74267097204915
901.319,109.87470615102825
903.724,113.65857950168538
906.128,124.66833318165345
908.53,120.71606080101583
910.931,127.51857174220208
913.329,118.07834119416907
915.726,65.44541256753496
918.122,60.05072848113832
920.516,84.75374746288617
922.908,101.55672731726895
925.298,115.4618656357311
927.687,122.09034506894727
930.074,100.11090240862154
932.459,119.33506433594903
934.843,138.19333555103321
937.225,160.87805356897366
939.605,157.29576732547253
941.984,130.2577110205316
944.361,99.76551605739814
946.736,91.48739917198213
949.11,76.32958865751016
951.482,90.72203630347212
953.853,68.18984362027527
956.222,7.115164254379806
958.589,6.689582593913428
960.954,5.342682850476422
963.318,14.122999813768274
965.68,23.12658933146031
968.041,37.830361235795635
970.4,53.853985117307275
972.757,102.43608181282184
975.113,78.0532720363185
977.467,52.94398691455058
979.819,14.965611855998759
982.17,-21.072179103983444
984.519,8.592577708643148
986.866,38.43604288186725
989.212,31.839050419967634
991.556,46.89663273325846
993.899,38.418021818310535
996.24,18.16474567626551
998.579,38.46967711210732
1000.92,23.14179681963992
1003.25,16.60905352127247
1005.59,14.156462203042565
1007.92,-25.692940507504318
1010.25,-27.74952025132484
1012.58,-15.96656266321338
1014.91,-10.916460464339025
1017.24,13.780715569084123
1019.56,17.219120167233314
1021.88,4.6357026658647555
1024.2,13.124491777544335
1026.52,37.1127868505132
1028.84,57.932587694035874
1031.16,82.20154953490965
1033.48,96.68012845016165
1035.79,83.03348870450782
1038.1,74.26007675447795
1040.41,90.12019525253322
1042.72,100.85029133690705
1045.03,109.21057825477124
1047.33,145.62789508063588
1049.64,157.00523310142034
1051.94,155.81697648723343
1054.24,150.72795248596685
1056.54,142.1648625702651
1058.84,104.88771358450026
1061.13,89.89458222508028
1063.43,97.80256999694438
1065.72,123.6097105510114
1068.01,143.98068654543795
1070.3,172.72302269735155
1072.59,168.35851692982874
1074.87,149.8851477093458
1077.16,148.49136233561012
1079.44,169.07988904091644
1081.72,176.50583480378896
1084.0,220.05287840071605
1086.28,276.7189872674119
1088.56,369.8354676934093
1090.84,472.40030073094545
1093.11,579.3162400086023
1095.38,607.3431952592393
1097.65,587.4315682288748
1099.92,513.4365409665222
1102.19,439.73712601878697
1104.46,363.2361690054206
1106.72,326.78892262343857
1108.98,313.25066827029445
1111.24,325.09576623848284
1113.5,366.70337257680876
1115.76,426.69077499927744
1118.02,465.9610145082736
1120.28,489.9886022558335
1122.53,517.6766649763433
1124.78,504.07123327638374
1127.03,458.5993394483796
1129.28,393.44997242711156
1131.53,329.66931846050943
1133.77,267.92266844712026
1136.02,245.39918241642204
1138.26,245.09760639009573
1140.5,240.68341781472554
1142.74,250.39359004211497
1144.98,302.2270710953235
1147.22,331.4209767204143
1149.45,362.5458310572501
1151.69,368.0293787388589
1153.92,316.82325413365425
1156.15,240.26012677812855
1158.38,210.43465633335813
1160.61,205.4892094462673
1162.83,209.80433851565772
1165.06,187.90354617252092
1167.28,156.3580497603516
1169.5,96.12011724403328
1171.72,56.856403118724074
1173.94,32.66223669969736
1176.16,14.299719935986104
1178.37,3.578682366892963
1180.58,15.213826554688694
1182.8,20.72949256493098
1185.01,3.126327568357283
1187.22,-15.02347312865163
1189.42,-23.29044886312886
1191.63,-17.959298936364576
1193.84,-18.552690435611566
1196.04,-2.2122113389987135
1198.24,2.8254364221688775
1200.44,9.609384830508588
1202.64,9.331737899813561
1204.84,13.660900556018532
1207.03,-11.115567700206839
1209.23,-15.4719077087002
1211.42,-21.73939989870223
1213.61,-16.29684279022854
1215.8,-0.9038902601514565
1217.99,42.48941841595797
1220.18,38.933126805031634
1222.36,58.620210416280315
1224.55,56.88656865811504
1226.73,48.30625489030945
1228.91,30.1676588571122
1231.09,49.14016531083348
1233.27,28.03605073067365
1235.44,59.715240250063744
1237.62,98.65673125067497
1239.79,113.76811506442232
1241.96,132.24271772309248
1244.13,184.8929311841555
1246.3,192.48354455657682
1248.47,246.731741993299
1250.64,298.2594815361015
1252.8,378.64111205570566
1254.96,506.73670447759105
1257.13,640.0730020554306
1259.29,786.2243706445247
1261.44,945.6223204038113
1263.6,996.2697894026335
1265.76,1006.9792367513164
1267.91,957.8488309698375
1270.06,843.4053050231703
1272.22,767.5563351661488
1274.37,685.3048245502387
1276.51,597.0822344493602
1278.66,525.4628678666586
1280.81,457.11624837937165
1282.95,404.66426088845924
1285.09,363.58591141585566
1287.23,344.64589642553597
1289.37,341.2755530969632
1291.51,327.43000007472506
1293.65,343.3976591705541
1295.78,363.84787230344045
1297.92,361.73566129689107
1300.05,388.3493448190409
1302.18,397.7391077037187
1304.31,367.9074750334205
1306.44,403.0474052698969
1308.57,431.92324052761046
1310.69,457.7754663709925
1312.82,482.1778525640889
1314.94,490.37078429639655
1317.06,496.26126007536254
1319.18,523.5657467617464
1321.3,531.7625584145012
1323.41,554.0918541832798
1325.53,559.0794457247439
1327.64,540.6320331903055
1329.75,523.7038697852986
1331.87,479.8205691852884
1333.98,437.55529390476727
1336.08,382.957324618229
1338.19,361.45681995744076
1340.3,340.0552905944262
1342.4,294.0398828482562
1344.5,249.45956705375465
1346.6,198.4108497397208
1348.7,144.75205723573322
1350.8,122.8652383265619
1352.9,123.65616214468605
1354.99,117.9828874913701
1357.09,115.70337977679287
1359.18,110.58027081731166
1361.27,120.42371387083404
1363.36,122.71042914836585
1365.45,144.82179694461524
1367.54,160.75814124478666
1369.62,144.28158475994542
1371.7,179.24938015285966
1373.79,184.37581269240945
1375.87,208.51791243181287
1377.95,231.24688067256557
1380.03,237.8480878569576
1382.1,200.7972619367738
1384.18,171.9509624562777
1386.25,126.21324511139323
1388.33,84.10708821365074
1390.4,43.96486677317853
1392.47,22.83311229598735
1394.54,13.32965353362647
1396.6,-6.594476330244106
1398.67,-22.750272944862672
1400.74,-27.805992640689738
1402.8,-11.001432612139979
1404.86,15.471119724626305
1406.92,33.990696200978164
1408.98,76.88859902940499
1411.04,56.25792499125373
1413.09,61.57261692616089
1415.15,54.78270569766664
1417.2,81.74288549216726
1419.25,122.0220414988105
1421.3,174.14134901796479
1423.35,200.81237256968598
1425.4,201.22278404980352
1427.45,162.41731898124203
1429.49,167.5834946701059
1431.54,149.71828074271957
1433.58,128.8185792064712
1435.62,127.02408546304264
1437.66,95.85538741688038
1439.7,91.3092074408139
1441.74,99.76316815119526
1443.77,87.83293913541956
1445.81,88.65795510801922
1447.84,104.4252293048512
1449.87,97.32173830585702
1451.9,116.53442590544682
1453.93,137.5359212685962
1455.96,161.2273999440854
1457.98,170.55763535393157
1460.01,211.9515740923439
1462.03,266.548435034201
1464.05,338.01123701496203
1466.07,455.7172788915352
1468.09,570.2819529364745
1470.11,689.2730344226543
1472.13,826.5916378746115
1474.14,1002.4246018913177
1476.16,1142.0540168261045
1478.17,1273.8572286570486
1480.18,1316.925890476418
1482.19,1296.2564425515372
1484.2,1180.0358304808894
1486.21,1036.0224614454567
1488.21,836.5462080791065
1490.22,654.4131742437469
1492.22,493.57236556638304
1494.22,377.21093140473954
1496.22,256.8970258605141
1498.22,177.7702878402324
1500.22,116.1132734970663
1502.22,84.73241248217323
1504.21,61.100868957940065
1506.21,48.40616451598953
1508.2,43.35970585709151
1510.19,30.911074375831276
1512.18,33.486125269093236
1514.17,29.510800930259165
1516.16,3.363515771973425
1518.14,-20.386744665374408
1520.13,-17.028038890881817
1522.11,-17.5149890583441
1524.09,-8.706874130171627
1526.07,-2.9390581548611863
1528.05,22.26272248114742
1530.03,41.84902328136536
1532.01,52.056212707865825
1533.98,46.02551705942119
1535.96,26.13635106392394
1537.93,21.76821989938412
1539.9,55.58643073872554
1541.87,67.01828048507082
1543.84,69.77686255464027
1545.81,57.575349850135126
1547.78,39.412706305544134
1549.74,55.430827002375736
1551.7,84.91453542875502
1553.67,122.62491407184302
1555.63,131.4659683435973
1557.59,119.34176669700582
1559.55,101.39453312327578
1561.5,106.81416822044594
1563.46,111.69538930961721
1565.41,134.79963245595104
1567.37,112.74552591823226
1569.32,98.15174455081728
1571.27,108.92272134843665
1573.22,104.15340661004893
1575.17,91.79593186459056
1577.11,74.75484522530292
1579.06,42.22044198214371
1581.0,50.52590471801409
1582.95,91.57587199641262
1584.89,109.17976895385277
1586.83,104.90894741608872
1588.77,91.43001649052871
1590.7,57.55245887294018
1592.64,39.13339001129384
1594.58,34.268031555323205
1596.51,32.02780385370488
1598.44,27.41270416552129
