Raman Shift,Processed Intensity
331.095,116.26961412604305
333.909,11.270906386018396
336.721,-36.08727031789658
339.531,-31.3049043689507
342.339,51.546610511648396
345.145,112.6102011672192
347.949,112.83836471756058
350.751,143.42175160424904
353.55,164.69393911215502
356.348,185.60763346236763
359.144,259.87753857180996
361.937,307.2184629080739
364.729,298.4881882490299
367.518,313.2112908233921
370.306,360.0077243560545
373.091,421.9261650181834
375.874,487.348784948741
378.656,526.9912638712558
381.435,439.9980388058066
384.212,297.799458542946
386.988,163.87370002235912
389.761,48.50868471153535
392.532,-29.340766920315218
395.301,-46.05292378550803
398.068,-46.95818018015143
400.833,-16.5295233869374
403.596,0.6650889898937749
406.358,13.153203646811562
409.117,-9.870703205543577
411.874,-53.11665769985757
414.629,-77.96109493109907
417.382,-42.542100040116566
420.133,-21.902274947255137
422.882,62.48743228387866
425.629,154.96579739631397
428.374,235.82414900627373
431.117,378.0682525363836
433.858,516.2278293922973
436.597,631.4994094726667
439.334,691.3177551076642
442.069,706.7844278546586
444.802,678.8582600557852
447.533,676.4029692526692
450.262,652.6157249821117
452.989,700.8842870003314
455.714,724.0250958881643
458.438,737.3785065133957
461.159,717.0468786359547
463.878,698.275524655955
466.595,636.8812764093559
469.31,608.681051963637
472.024,586.1585176515441
474.735,600.4164643905592
477.444,607.7006125737926
480.152,589.8757979132524
482.857,624.2831096640653
485.561,638.6446478963203
488.262,695.4920902907261
490.962,781.4047827437967
493.659,845.9144966397034
496.355,860.5054242173655
499.048,933.2808406042091
501.74,972.4392896594563
504.43,1045.8460079126553
507.118,1144.8424437402978
509.804,1279.1510146376804
512.488,1425.2084359193218
515.17,1549.1180970384435
517.85,1687.983390287396
520.528,1787.8600871171207
523.204,1910.0420477899465
525.878,2011.0135976990623
528.551,2069.92571321179
531.221,2085.310302750966
533.89,2120.461154542982
536.556,2082.672027222974
539.221,2088.998549963825
541.883,2028.4486940337315
544.544,1993.6018157823632
547.203,2003.3229377222424
549.86,2032.2389343720497
552.515,2059.690908576109
555.168,2110.972282109578
557.819,2159.328791045549
560.469,2266.7203858840653
563.116,2356.9164650144476
565.761,2477.686346272884
568.405,2576.037357547615
571.047,2651.7862607174734
573.687,2733.8449613046955
576.324,2783.0300276515504
578.96,2807.4436386683933
581.594,2841.5688172959944
584.227,2799.9837115869354
586.857,2733.1711138822216
589.485,2645.756551416474
592.112,2545.6511388278877
594.737,2484.3372878110335
597.359,2376.7734643887175
599.98,2276.9656128505108
602.599,2172.633817786506
605.216,2126.7361089782253
607.831,2121.5636948609526
610.445,2137.7885769384534
613.056,2190.7016403881626
615.666,2307.545982761612
618.274,2467.040718875341
620.88,2742.571452368458
623.484,3022.285509164971
626.086,3296.4728852218345
628.686,3555.994813324596
631.284,3755.9980441687785
633.881,3860.819603631722
636.476,3856.462978615862
639.068,3672.1695409872514
641.659,3381.7518762759946
644.249,2976.927112376666
646.836,2554.3169149154046
649.421,2100.3522445217723
652.005,1663.0352569577435
654.587,1254.9392984847964
657.166,961.9231869452901
659.745,746.4169214152603
662.321,601.5169156667544
664.895,480.27170782064013
667.468,365.63433666608444
670.038,257.4147179800407
672.607,223.08916370386623
675.174,201.46704397708618
677.739,185.73840155210837
680.303,177.90251858989814
682.864,136.86315012231125
685.424,100.90470989538835
687.982,75.31131335549162
690.538,35.890582540209834
693.092,10.735556585573704
695.645,-11.299104144295143
698.195,-4.120910005595761
700.744,24.55285765049348
703.291,64.52849730252774
705.836,71.75495191240452
708.38,90.27620949612492
710.921,92.08846559929498
713.461,130.28300005835172
715.999,153.9509585236883
718.535,172.7548006494444
721.069,151.59498637853721
723.602,145.51475746578262
726.133,131.22396662006395
728.662,107.14671617031081
731.189,87.46899673148482
733.714,64.94823063246668
736.238,25.627577248705165
738.759,-2.830714046090179
741.279,-6.9071890234981765
743.798,-31.55850231535851
746.314,-44.07454065256161
748.829,-72.07840324669496
751.342,-106.66923931453766
753.853,-110.89841893589482
756.362,-60.150465816195265
758.869,-28.04781067754857
761.375,3.025396188993909
763.879,10.685186656891801
766.381,-9.880799692903565
768.882,7.753348066273702
771.38,44.632761559314076
773.877,57.80274246184217
776.372,57.784949947972564
778.866,41.81549289996292
781.357,33.13064116548185
783.847,88.96682252917435
786.335,136.22728635088515
788.821,181.291624346738
791.306,227.06338660831352
793.789,322.7319833361157
796.27,461.0583960968561
798.749,642.3275557473976
801.227,785.2531013110806
803.702,913.1678531397615
806.176,1000.9761908377504
808.649,1062.1064311857622
811.119,1042.606063207716
813.588,987.4274594280146
816.055,895.5707299859705
818.521,812.9884815121363
820.984,740.062004576062
823.446,658.5536516102388
825.906,568.1306434054718
828.365,499.8888756062638
830.821,453.5433918728513
833.276,425.61885704324686
835.729,428.49717315242106
838.181,386.2746192610098
840.631,353.47613414116177
843.079,302.1981703909578
845.525,247.87059616787474
847.97,187.68526358891813
850.412,167.2150533212307
852.854,144.79482393460557
855.293,168.47378982544615
857.731,170.1107562835714
860.167,160.04078313045966
862.601,142.21803883365965
865.034,114.35865462121774
867.465,89.1788166913284
869.894,84.82333461247072
872.321,71.57992400925286
874.747,90.64110829587253
877.171,120.00897755243659
879.594,117.0666140679491
882.014,116.10189883567455
884.433,107.16465138183639
886.851,87.9713886419363
889.266,119.38151240849584
891.68,175.58778249308807
894.092,208.73536131694254
896.503,238.44562040630717
898.912,232.38756593543394
901.319,216.13497855527794
903.724,215.975934174573
906.128,217.38899140758258
908.53,204.6146171170867
910.931,218.89327862403752
913.329,190.46544067912373
915.726,185.66680052957054
918.122,194.69018965261102
920.516,224.91890406038783
922.908,231.06955841437866
925.298,236.0968449017255
927.687,198.71733973060873
930.074,192.0285477208613
932.459,193.79461356124602
934.843,233.3034616381692
937.225,249.8906025310598
939.605,253.320082364884
941.984,244.16543216266655
944.361,219.52395053134205
946.736,208.87384349046215
949.11,203.31231668186092
951.482,197.7460485316883
953.853,192.74833007911502
956.222,185.22572861456
958.589,161.08475131792238
960.954,152.27946127776295
963.318,162.19242684382561
965.68,170.01567097955103
968.041,186.79828728125767
970.4,183.494055997322
972.757,147.43763147593017
975.113,116.20168199377758
977.467,82.0254581562067
979.819,60.671932725908846
982.17,56.52303568972684
984.519,26.72250837306501
986.866,8.604471840018505
989.212,19.69342386493645
991.556,36.656616856367236
993.899,53.399293802274315
996.24,104.82659286305034
998.579,90.36735672643044
1000.92,84.16460862907434
1003.25,65.55174266386939
1005.59,49.0525236110343
1007.92,-1.6189132307686123
1010.25,19.680033024763816
1012.58,-4.289095126849588
1014.91,21.663709892176485
1017.24,43.91882714503345
1019.56,58.85653218599464
1021.88,42.76176232960552
1024.2,67.10983430082706
1026.52,80.04263807566622
1028.84,107.27340215036793
1031.16,132.94383976299878
1033.48,154.1955808293119
1035.79,157.59874673575723
1038.1,190.0090965610575
1040.41,195.37755425016894
1042.72,190.36925959777273
1045.03,207.4588097079427
1047.33,213.26359569191936
1049.64,182.7342822230239
1051.94,170.2500489963295
1054.24,144.8090702835707
1056.54,130.50470877376893
1058.84,128.28742369957308
1061.13,134.34572658264733
1063.43,98.72523221715983
1065.72,97.90009060565671
1068.01,126.01108556159897
1070.3,168.00849521665987
1072.59,193.31876205183153
1074.87,219.98735340471967
1077.16,205.77400292922493
1079.44,227.72414253140505
1081.72,256.4546200196319
1084.0,310.5346548499856
1086.28,372.2477462525976
1088.56,470.7821527865708
1090.84,556.8499433234683
1093.11,632.7346194593688
1095.38,648.2911188793123
1097.65,578.898199674115
1099.92,500.7917770381491
1102.19,440.35064091949107
1104.46,375.525030812933
1106.72,377.07473436250666
1108.98,397.42623358306173
1111.24,434.62508917707555
1113.5,525.716896280037
1115.76,622.1282402058268
1118.02,676.4762236206743
1120.28,720.3779937171112
1122.53,729.022174149829
1124.78,714.359344590579
1127.03,664.054425044978
1129.28,610.2009649312158
1131.53,547.6068607301941
1133.77,482.88959744518525
1136.02,468.19053768054073
1138.26,477.9368297680194
1140.5,525.9842682740759
1142.74,621.7601545071434
1144.98,706.7394903582694
1147.22,750.2545054750835
1149.45,744.6851368167186
1151.69,692.0304605896936
1153.92,605.5277432314065
1156.15,532.7953019174452
1158.38,447.1658412593656
1160.61,380.1150280977122
1162.83,305.9281615331306
1165.06,259.6049381955777
1167.28,215.28802703734937
1169.5,185.35831079276613
1171.72,166.9110798188176
1173.94,175.9941306977139
1176.16,146.94110293466701
1178.37,121.03814898901555
1180.58,82.8096519243868
1182.8,45.589657344582065
1185.01,17.569495805650604
1187.22,0.08350046605619355
1189.42,-35.7719419298237
1191.63,-39.662195423562935
1193.84,-58.30008396771609
1196.04,-37.39827116371771
1198.24,12.75930796396051
1200.44,37.269818028479676
1202.64,53.70674729564962
1204.84,94.21513303938582
1207.03,79.13060022484024
1209.23,81.3126912904545
1211.42,129.9543864061975
1213.61,136.2487665889539
1215.8,169.91281967504938
1217.99,224.66362724516011
1220.18,254.98026583493265
1222.36,278.34189862179437
1224.55,294.70396234985037
1226.73,266.5934018738335
1228.91,225.58485708399803
1231.09,216.30065935482753
1233.27,200.31558989850328
1235.44,226.44259049932361
1237.62,299.35180758145316
1239.79,364.237255324294
1241.96,453.3882406826133
1244.13,586.47507412096
1246.3,747.8347803480847
1248.47,938.947285241833
1250.64,1199.0068408692787
1252.8,1485.2553552687605
1254.96,1847.649055565259
1257.13,2224.1918177524303
1259.29,2593.458972665124
1261.44,2912.5973024280997
1263.6,3075.039322619021
1265.76,3098.5032787171626
1267.91,2950.1836187426065
1270.06,2686.846227800198
1272.22,2387.018900718723
1274.37,2128.6103861186825
1276.51,1861.8151447657556
1278.66,1646.4466793528622
1280.81,1408.0327690441081
1282.95,1227.2440373520844
1285.09,1088.4177581103872
1287.23,995.5578519223423
1289.37,971.2872635620984
1291.51,952.0384346138326
1293.65,988.1485380157028
1295.78,1052.8118554609532
1297.92,1123.7940595609248
1300.05,1197.5274483890148
1302.18,1281.3490371674966
1304.31,1314.071983287682
1306.44,1399.6998684729274
1308.57,1500.9028857035473
1310.69,1589.6845023322117
1312.82,1705.286218437434
1314.94,1830.9494680342118
1317.06,1944.4870440941959
1319.18,2013.3783330896495
1321.3,2022.0550257279078
1323.41,1988.5677800667654
1325.53,1896.3957417727433
1327.64,1782.9227310460024
1329.75,1639.0562866881278
1331.87,1466.03718636038
1333.98,1278.05849065147
1336.08,1154.5512538120006
1338.19,973.3273773460551
1340.3,847.5319874123097
1342.4,702.9291455584748
1344.5,568.0923213605042
1346.6,473.4520079189392
1348.7,417.34333735525706
1350.8,353.6251248796357
1352.9,333.2512938111081
1354.99,294.12801488342893
1357.09,246.780369360461
1359.18,226.68567881823174
1361.27,183.08302540317618
1363.36,186.35420066180814
1365.45,183.83322579896867
1367.54,176.6158719360751
1369.62,178.98822798842184
1371.7,203.0933637805806
1373.79,187.59799316179988
1375.87,224.0258037880717
1377.95,232.66221547562236
1380.03,224.60199569726228
1382.1,219.08258936444736
1384.18,207.72221051410133
1386.25,148.09126732876894
1388.33,118.04569191867813
1390.4,66.96503200855477
1392.47,32.22863786254038
1394.54,22.92994444720398
1396.6,7.971712807306176
1398.67,-26.74348703224223
1400.74,-21.932314513555866
1402.8,-25.644934219316383
1404.86,-2.1697707788162006
1406.92,39.58554328277887
1408.98,81.18940728521602
1411.04,140.6862538032633
1413.09,212.7870303070831
1415.15,307.53587127879837
1417.2,443.16724651953473
1419.25,585.0583475516951
1421.3,685.4433787831445
1423.35,753.5564200999588
1425.4,749.2980989829862
1427.45,674.8070245291683
1429.49,609.6502690919183
1431.54,532.2995642072142
1433.58,450.94082985301884
1435.62,404.52179894680194
1437.66,355.7520227954369
1439.7,301.3409717832037
1441.74,296.8075646312068
1443.77,286.7658881329894
1445.81,271.7823454615768
1447.84,294.66137590508424
1449.87,298.4454603166232
1451.9,348.2246503737174
1453.93,402.8032406948728
1455.96,462.41406000375764
1457.98,541.4327622933943
1460.01,648.5683084665279
1462.03,785.4820194045769
1464.05,1020.6447242746731
1466.07,1345.2891469319416
1468.09,1746.6003875598763
1470.11,2222.096880501185
1472.13,2729.487542564832
1474.14,3235.1479689521234
1476.16,3678.4537720399285
1478.17,3969.6377296877185
1480.18,4020.7897906874614
1482.19,3829.761842118275
1484.2,3461.2629528915677
1486.21,2999.38318872475
1488.21,2478.6412366387467
1490.22,1947.9367913602869
1492.22,1464.3124655337028
1494.22,1029.9537951708298
1496.22,749.3321022437606
1498.22,526.0616429918841
1500.22,392.56628003845026
1502.22,305.6032973642825
1504.21,228.97769147196937
1506.21,150.25646255005108
1508.2,138.43528658958712
1510.19,54.70042559596709
1512.18,35.14301875309775
1514.17,33.806706920924626
1516.16,17.449542847242583
1518.14,7.591615665216295
1520.13,1.324580152810313
1522.11,-34.35500448397511
1524.09,-40.1647160202499
1526.07,-18.774358106559703
1528.05,-6.567862335944483
1530.03,20.4043291943824
1532.01,42.758593651147976
1533.98,38.20669465477499
1535.96,49.79387327865652
1537.93,60.75598666748192
1539.9,58.900456179376306
1541.87,72.84435838518016
1543.84,95.966801782012
1545.81,110.78987493540694
1547.78,132.7881660500218
1549.74,153.5792349213025
1551.7,180.01884679191312
1553.67,203.67715858912106
1555.63,263.7910956383703
1557.59,347.21672837685446
1559.55,401.2387919242351
1561.5,436.18972946287795
1563.46,454.6401641895229
1565.41,443.303656981235
1567.37,440.46527358516755
1569.32,404.1244375226099
1571.27,362.09016394541686
1573.22,309.9334363495725
1575.17,258.8919642411354
1577.11,250.1082741355208
1579.06,249.20113389010635
1581.0,228.07507227494443
1582.95,239.53942235298427
1584.89,249.54641247935137
1586.83,225.57211444348286
1588.77,220.5212011350734
1590.7,202.25075182907267
1592.64,168.95120032782688
1594.58,145.86061643655148
1596.51,107.57422553404717
1598.44,42.42535671483279
