Raman Shift,Processed Intensity
331.095,64.32027643738729
333.909,60.41501665297801
336.721,68.73645338715596
339.531,85.95125973497488
342.339,101.10707402921525
345.145,145.8944110306693
347.949,136.78952549937185
350.751,178.03060909916076
353.55,197.85589206414534
356.348,209.4084115318583
359.144,236.5931608287715
361.937,248.60090542249554
364.729,250.43199887396122
367.518,302.1821035515354
370.306,306.04219705939386
373.091,338.2985786659128
375.874,396.7614471606321
378.656,408.7649072826607
381.435,380.07173805382945
384.212,283.73054206423785
386.988,149.07575190064426
389.761,58.77525562247729
392.532,28.020879380712813
395.301,12.52839384626759
398.068,4.013711114592752
400.833,-31.473775532600484
403.596,-29.027375675122585
406.358,-22.502142529511275
409.117,-4.3720126089165205
411.874,6.936860713798978
414.629,-16.763419513191366
417.382,-61.803449621748314
420.133,-22.94224222229377
422.882,21.204197633614513
425.629,103.16285875484573
428.374,204.84180225221235
431.117,290.3872902300236
433.858,359.99330613773145
436.597,432.9491703596909
439.334,436.2109653287066
442.069,464.16343683007744
444.802,454.57237149609455
447.533,447.58459334817417
450.262,436.5374841485009
452.989,440.67326565643725
455.714,430.80566283731605
458.438,490.79609088075586
461.159,494.0774612665964
463.878,456.1779878308348
466.595,428.3402309267949
469.31,386.71157015772724
472.024,353.4870580617876
474.735,365.6713214160659
477.444,380.2690339691776
480.152,392.9515796500532
482.857,420.5332395862315
485.561,421.9711886459809
488.262,414.6512062661136
490.962,429.8162444226732
493.659,482.8997575063813
496.355,559.7637941028338
499.048,596.5561363917564
501.74,619.9960109748267
504.43,633.8978949415937
507.118,696.7905600306408
509.804,803.774212028829
512.488,931.0442968372272
515.17,1039.51054463227
517.85,1105.9874425983621
520.528,1159.1466124223753
523.204,1199.278711597669
525.878,1249.7696204423996
528.551,1257.9575814987797
531.221,1273.7998627418592
533.89,1252.5394207883196
536.556,1264.657278390962
539.221,1249.7296638379607
541.883,1268.1899122568661
544.544,1267.4237002519549
547.203,1268.3880900653826
549.86,1254.1353356431082
552.515,1269.336688700807
555.168,1264.6157285993
557.819,1277.4055017437963
560.469,1303.7580419355309
563.116,1366.8205573900582
565.761,1448.4544748984063
568.405,1512.9021030358504
571.047,1598.2628191801987
573.687,1640.2549708158158
576.324,1664.1682530281068
578.96,1670.5779907599222
581.594,1680.1546591631923
584.227,1627.90197537914
586.857,1611.1568950803762
589.485,1551.9229423463544
592.112,1496.6321109673795
594.737,1424.3353371771973
597.359,1346.6548771474795
599.98,1280.1652559108948
602.599,1231.059930569877
605.216,1175.7703344577903
607.831,1166.8706355857953
610.445,1188.4586855659177
613.056,1241.0131590102978
615.666,1355.5840262637762
618.274,1460.6973118507585
620.88,1598.4979481601827
623.484,1743.8450100828577
626.086,1915.216473458338
628.686,2087.8520687598734
631.284,2212.3723252555706
633.881,2301.3976151695356
636.476,2278.976721652562
639.068,2122.4915972289855
641.659,1917.1335508149796
644.249,1660.7127680701833
646.836,1395.3725936540695
649.421,1161.2561944347285
652.005,903.6970322214315
654.587,672.6474317353004
657.166,483.6785771514051
659.745,369.6947943551363
662.321,280.8383093890643
664.895,253.01305451884036
667.468,204.45609334672054
670.038,175.78523640128105
672.607,126.85618053665576
675.174,79.38155309368676
677.739,49.93090844203971
680.303,52.12120071278332
682.864,38.712018435719074
685.424,31.17701481655604
687.982,26.894390918349472
690.538,-3.8054742977583373
693.092,23.55046645077755
695.645,-8.850625640310682
698.195,-5.964601719068014
700.744,-9.556972943990786
703.291,-0.6314638781736903
705.836,-7.3823760458358265
708.38,28.900666538032965
710.921,30.927971772784986
713.461,52.02884263340957
715.999,79.67540223659853
718.535,83.29213319251676
721.069,82.01779790896853
723.602,96.3721208003144
726.133,114.25580382972794
728.662,111.18863728954057
731.189,58.88094391492359
733.714,7.566927759472492
736.238,-35.281024548259666
738.759,-29.571375881556378
741.279,-28.97437545424191
743.798,-14.826808756484297
746.314,-48.56055701441392
748.829,-44.27401379259254
751.342,-53.11302540601446
753.853,-30.889931553113456
756.362,-24.321658044475953
758.869,-6.1725769049908195
761.375,-22.873556952184117
763.879,-19.283871517403895
766.381,-27.119772833677416
768.882,-15.621161661655151
771.38,16.924600227293467
773.877,36.46840137752224
776.372,35.1517586422151
778.866,52.64014755744529
781.357,53.88490414481976
783.847,64.78988861886592
786.335,80.21148242776917
788.821,110.3871567226729
791.306,128.0783265412647
793.789,195.52272880088321
796.27,258.5772764821072
798.749,346.19424614567333
801.227,452.99270354463215
803.702,564.3537387603146
806.176,624.2776061001946
808.649,661.2884830433841
811.119,630.4344672813568
813.588,586.7637642348759
816.055,537.8008745709112
818.521,480.0704007671811
820.984,440.90656796241274
823.446,402.88179242563956
825.906,350.6162024064497
828.365,311.3966827947661
830.821,255.55782454251948
833.276,217.0533502758085
835.729,185.17039704991475
838.181,171.48189434242204
840.631,160.7513229987144
843.079,138.31366465366273
845.525,109.64682734378584
847.97,92.41926159561308
850.412,83.2042431806999
852.854,99.00367968017827
855.293,105.3909646683419
857.731,83.32049856290496
860.167,80.79435233239792
862.601,63.62416929880783
865.034,75.28830503544805
867.465,63.074681550552214
869.894,40.747450994670544
872.321,26.54699270140054
874.747,26.856576894780574
877.171,9.916647444309547
879.594,35.72958081043862
882.014,17.583492609117457
884.433,29.33794893824006
886.851,43.090630085049725
889.266,61.748756138292265
891.68,81.0290840289531
894.092,121.07695219003108
896.503,126.94246807347281
898.912,163.00907661947485
901.319,159.18403348769925
903.724,166.3269735265808
906.128,168.3451459092912
908.53,157.76483974590565
910.931,165.8266192193728
913.329,164.62817776909924
915.726,148.26719227454123
918.122,141.603224857839
920.516,139.54343421026715
922.908,127.80447739486863
925.298,137.76964974432713
927.687,153.9174533302662
930.074,169.2977844801694
932.459,189.34145462762854
934.843,213.4316159245068
937.225,185.7132820911802
939.605,171.47427783821968
941.984,171.62142638330442
944.361,153.39483220623788
946.736,151.12978285157533
949.11,172.44722215983074
951.482,170.25374730820477
953.853,176.1225582322645
956.222,175.4363118095289
958.589,134.95854747162412
960.954,92.88130329262185
963.318,65.96797017261952
965.68,55.553288878462354
968.041,59.5433470844614
970.4,94.98700498454627
972.757,70.79017804726891
975.113,64.14440548509401
977.467,53.288752057024794
979.819,30.747900347417726
982.17,23.71310018765962
984.519,30.042165696884695
986.866,4.164234227459474
989.212,21.317858643802992
991.556,59.170051982157474
993.899,64.76866588029452
996.24,63.06619971961118
998.579,50.58646691008835
1000.92,18.71030879429236
1003.25,16.3422609323311
1005.59,34.1486479582295
1007.92,32.700442225032475
1010.25,32.04469553197896
1012.58,36.94263751834751
1014.91,44.012535962062884
1017.24,55.72969993544166
1019.56,48.997911532370836
1021.88,33.29228616691262
1024.2,50.08784715762113
1026.52,66.28810031186003
1028.84,96.32027517678398
1031.16,111.61151867127774
1033.48,109.25556490837471
1035.79,135.29845263672087
1038.1,158.0242426820446
1040.41,167.0978782457628
1042.72,158.18423567978016
1045.03,147.7576514517641
1047.33,135.86383006279175
1049.64,176.31032339356807
1051.94,189.3332005268344
1054.24,183.4065747126383
1056.54,174.4330827145527
1058.84,150.88674510828469
1061.13,151.95582658027752
1063.43,170.2571247977512
1065.72,172.40740213588106
1068.01,178.4519602621158
1070.3,187.95988138716893
1072.59,188.78593618267223
1074.87,204.59439646073315
1077.16,209.09713356777547
1079.44,198.5298120164789
1081.72,230.0804640701008
1084.0,276.9371119458492
1086.28,357.3830090658689
1088.56,422.79664321299924
1090.84,526.9850730198568
1093.11,612.7553596960192
1095.38,646.390760659965
1097.65,630.6031136472034
1099.92,540.6280779612694
1102.19,425.4632328675689
1104.46,361.7728426538911
1106.72,362.5069074052053
1108.98,376.0440233022691
1111.24,420.2866238726292
1113.5,456.23241171780046
1115.76,541.3076950023578
1118.02,598.9388191811181
1120.28,636.6950272977547
1122.53,629.574177426271
1124.78,588.0979839219995
1127.03,548.5024967678369
1129.28,521.5952475871418
1131.53,477.2790623233034
1133.77,415.4568263002609
1136.02,359.6981540449308
1138.26,350.6679638715368
1140.5,374.9360048468943
1142.74,420.5006694699807
1144.98,481.26518730388466
1147.22,501.99000908394714
1149.45,511.67376225447924
1151.69,507.83896841023466
1153.92,462.96061788074644
1156.15,422.7518871718064
1158.38,356.4974754545656
1160.61,285.38694105463424
1162.83,236.7051807983205
1165.06,192.40386173982415
1167.28,176.19666241223763
1169.5,155.22594264997792
1171.72,117.53893722073803
1173.94,87.5163304098237
1176.16,49.253211556864926
1178.37,32.36860202110461
1180.58,30.71974405145488
1182.8,19.783056323210758
1185.01,11.416041855723051
1187.22,7.857291168156962
1189.42,-3.1306574218847345
1191.63,-22.832742057144742
1193.84,-27.057562697671074
1196.04,-27.518328714172867
1198.24,-22.97571379389251
1200.44,4.762143228623472
1202.64,33.69677726042346
1204.84,22.353676094227694
1207.03,37.30608386782069
1209.23,47.174994999631735
1211.42,46.58153137098043
1213.61,71.76598617499008
1215.8,109.58782014645294
1217.99,140.90661017264506
1220.18,173.3439502850906
1222.36,176.04535265133381
1224.55,145.48976761432277
1226.73,130.82291325560482
1228.91,114.23822400614108
1231.09,119.78637068569424
1233.27,154.89906625650428
1235.44,163.722395386485
1237.62,193.25966782194746
1239.79,227.79998604603452
1241.96,274.108717699065
1244.13,326.5227299036369
1246.3,433.8075283516373
1248.47,532.1572535341102
1250.64,671.0042007806469
1252.8,852.1616736321107
1254.96,1066.7763610228767
1257.13,1284.6140477964118
1259.29,1492.6310395065566
1261.44,1650.259872933094
1263.6,1721.3616932639902
1265.76,1721.1310122300101
1267.91,1655.7147519536238
1270.06,1555.5455745121913
1272.22,1391.627592453538
1274.37,1241.3935078829559
1276.51,1112.6093705978315
1278.66,946.9936219365445
1280.81,825.5980433892846
1282.95,739.9029909231449
1285.09,631.1031054976947
1287.23,582.1073092948373
1289.37,577.5388019486686
1291.51,567.4017234420021
1293.65,590.0811503362174
1295.78,616.4383300963586
1297.92,634.0011535114627
1300.05,683.6784366386992
1302.18,727.7122979856067
1304.31,774.7257737875698
1306.44,824.913290428156
1308.57,854.1835178118322
1310.69,914.1593655938332
1312.82,966.7970270290616
1314.94,1029.8621656781343
1317.06,1090.8346735419977
1319.18,1157.3848577679723
1321.3,1163.1353416415159
1323.41,1164.8991560541704
1325.53,1105.0606881143776
1327.64,1029.813772615424
1329.75,934.7331168367286
1331.87,848.6790586784582
1333.98,747.9880390818557
1336.08,653.4249792114765
1338.19,577.6594671612343
1340.3,496.0752779937761
1342.4,409.3417985417709
1344.5,351.17592839967256
1346.6,288.6277904392864
1348.7,228.65215561105697
1350.8,207.87034393582962
1352.9,167.71307787756587
1354.99,156.89666904938667
1357.09,149.32777634819013
1359.18,139.38911647022223
1361.27,136.84422204569546
1363.36,139.5993426305472
1365.45,117.37010760296016
1367.54,124.58628429797909
1369.62,112.96320280878899
1371.7,143.78746650228004
1373.79,167.25028158223677
1375.87,198.3998342715713
1377.95,206.28414418503735
1380.03,208.90344151146883
1382.1,175.4006394341136
1384.18,137.72799702715974
1386.25,98.74235358083706
1388.33,56.34798197413511
1390.4,31.1156325237107
1392.47,23.139672070893084
1394.54,17.13331830677862
1396.6,-7.095170372965185
1398.67,-8.642493112508873
1400.74,-3.5103030623427003
1402.8,17.20431918559052
1404.86,28.023153120378083
1406.92,30.89636355175162
1408.98,7.964408554632428
1411.04,17.558042651766755
1413.09,47.579272377309735
1415.15,94.64421742175591
1417.2,164.74978305747663
1419.25,245.79747542140376
1421.3,314.0219787024739
1423.35,366.22925613859616
1425.4,379.8917938707664
1427.45,357.48194003528056
1429.49,308.18619623689665
1431.54,255.5718899743813
1433.58,201.77765658985845
1435.62,162.6086831229254
1437.66,147.82242835523516
1439.7,146.795295236044
1441.74,134.28454140298481
1443.77,141.5711420838138
1445.81,136.0788434743315
1447.84,153.23131135440462
1449.87,158.11880351351397
1451.9,179.4981755096253
1453.93,191.60241023759227
1455.96,231.426337973749
1457.98,293.20283261097734
1460.01,373.02186503663165
1462.03,445.449556510468
1464.05,579.7186606139976
1466.07,729.6333309141291
1468.09,976.5691267220484
1470.11,1278.85397123305
1472.13,1598.6729191901766
1474.14,1909.2110197859554
1476.16,2179.4152271831763
1478.17,2312.137263416628
1480.18,2354.8955289138794
1482.19,2260.4465368255906
1484.2,2035.4515854510585
1486.21,1740.0481925685253
1488.21,1423.040577384536
1490.22,1107.6615710547217
1492.22,832.09643196649
1494.22,601.4352324502811
1496.22,427.10143596701687
1498.22,289.8995219145968
1500.22,211.6340390058201
1502.22,147.63342055106887
1504.21,95.74999021718713
1506.21,62.02663445302346
1508.2,43.839665391166136
1510.19,22.184540892536006
1512.18,26.961584590972052
1514.17,11.404563080679281
1516.16,15.652120246533514
1518.14,26.033497308668302
1520.13,10.020919533729511
1522.11,21.22960199374961
1524.09,30.84632675359171
1526.07,-6.084837084459423
1528.05,-20.853003812294446
1530.03,-25.366179642814814
1532.01,-26.05601947008222
1533.98,-18.21115724433912
1535.96,-4.215300944566479
1537.93,-0.7377112776625836
1539.9,17.409651051619903
1541.87,36.176882406392906
1543.84,43.13327416167863
1545.81,42.99111731512244
1547.78,82.98664995484842
1549.74,127.21338567969633
1551.7,142.95544201946223
1553.67,168.40182123608565
1555.63,186.1225958867442
1557.59,217.21176105361155
1559.55,279.28722943075854
1561.5,317.3479692682006
1563.46,327.250189934992
1565.41,340.8501941489935
1567.37,299.52818258758293
1569.32,261.3787251650333
1571.27,251.78218469084618
1573.22,216.21423576618076
1575.17,227.7696693945677
1577.11,230.3052452116715
1579.06,192.96349609600566
1581.0,179.1251042082199
1582.95,176.31365798276738
1584.89,167.14802816719452
1586.83,175.00902957571657
1588.77,188.18227331898925
1590.7,180.71530474815336
1592.64,169.3699794941274
1594.58,148.74150617355644
1596.51,110.6155843328579
1598.44,49.15887572559927
