Raman Shift,Processed Intensity
331.095,23.639071428571086
333.909,-70.36687857142873
336.721,-86.42957857142862
339.531,-54.77072857142857
342.339,-7.89818571428571
345.145,4.037941904761912
347.949,19.413051428571418
350.751,16.079892380952387
353.55,-5.107226190476178
356.348,28.42161523809528
359.144,43.42795952380955
361.937,55.77008761904767
364.729,57.92669190476194
367.518,73.1874752380953
370.306,111.8435904761906
373.091,202.2352190476192
375.874,274.08462857142877
378.656,339.4969904761906
381.435,292.57889047619057
384.212,209.4384000000001
386.988,136.09007142857146
389.761,76.35933809523814
392.532,41.454100000000025
395.301,17.1080095238095
398.068,-11.467595238095228
400.833,-31.44069523809524
403.596,-7.024971428571407
406.358,-4.670552380952399
409.117,-1.2068142857142914
411.874,-11.556606190476192
414.629,-6.783972857142865
417.382,-13.713138571428544
420.133,21.642715714285742
422.882,47.74843761904769
425.629,104.35581285714295
428.374,157.36087238095251
431.117,214.18516190476205
433.858,264.2034571428573
436.597,275.9826857142859
439.334,226.13887619047628
442.069,168.86018095238103
444.802,107.57398095238105
447.533,123.13756190476204
450.262,150.07554285714298
452.989,205.34230476190487
455.714,227.70304761904774
458.438,222.73258095238106
461.159,173.34024761904772
463.878,154.57906666666676
466.595,141.74094285714298
469.31,149.4036857142858
472.024,174.52746666666675
474.735,156.64384761904768
477.444,110.90434285714292
480.152,103.65154285714296
482.857,109.56167619047628
485.561,125.59698095238107
488.262,160.81517142857152
490.962,179.17971428571437
493.659,166.93971428571436
496.355,172.24914285714294
499.048,152.405581904762
501.74,98.99222238095243
504.43,99.11596857142865
507.118,116.83682047619057
509.804,162.50030190476207
512.488,233.49946047619062
515.17,273.75162952380964
517.85,249.650142857143
520.528,226.4929523809525
523.204,179.1970000000001
525.878,181.67904761904774
528.551,189.9512380952382
531.221,168.40638095238103
533.89,156.58047619047625
536.556,134.77076190476197
539.221,133.70276190476204
541.883,145.2922380952382
544.544,155.97895238095245
547.203,132.77342857142864
549.86,115.35300000000008
552.515,113.489761904762
555.168,140.81204761904775
557.819,178.71023809523825
560.469,233.66971428571446
563.116,266.46109523809537
565.761,265.1877142857144
568.405,224.95295238095247
571.047,203.33533333333347
573.687,194.72276190476202
576.324,181.64595238095248
578.96,174.53942857142866
581.594,155.02766666666676
584.227,143.68738095238106
586.857,155.09442857142867
589.485,174.72947619047628
592.112,183.64404761904774
594.737,221.26957142857157
597.359,238.98947619047635
599.98,259.7585238095239
602.599,228.05414285714295
605.216,167.40190476190483
607.831,146.7069523809525
610.445,141.77914285714294
613.056,145.2366666666668
615.666,189.50771428571443
618.274,206.16200000000015
620.88,207.10238095238114
623.484,261.9457142857145
626.086,286.68895238095257
628.686,339.94800000000026
631.284,402.4332380952383
633.881,433.66447619047636
636.476,417.9223333333336
639.068,391.8210000000002
641.659,319.8783809523811
644.249,302.6127619047621
646.836,261.4937142857144
649.421,238.41948047619056
652.005,167.24006500000004
654.587,112.70996809523814
657.166,39.77406119047623
659.745,47.94829190476196
662.321,59.558065000000056
664.895,87.07111380952385
667.468,84.71709523809528
670.038,97.72542380952383
672.607,73.5160190476191
675.174,71.03243333333337
677.739,95.5513571428572
680.303,93.96881809523813
682.864,73.0377847619048
685.424,63.17791714285717
687.982,52.28518190476194
690.538,53.58894761904767
693.092,66.31848190476192
695.645,62.46551714285715
698.195,16.402694285714276
700.744,-10.687552380952381
703.291,-22.38447238095239
705.836,-26.076551428571435
708.38,-20.247164761904756
710.921,3.001527619047621
713.461,-2.241789047619037
715.999,15.39758190476193
718.535,39.86619476190481
721.069,64.06306285714292
723.602,105.07813380952388
726.133,117.23978857142862
728.662,106.4956571428572
731.189,92.26984761904767
733.714,72.46300000000005
736.238,69.59479047619052
738.759,90.47119047619054
741.279,98.04112380952387
743.798,85.25373809523813
746.314,93.72509047619053
748.829,83.78581428571434
751.342,71.052480952381
753.853,93.80844285714292
756.362,96.52788571428576
758.869,71.58996666666673
761.375,99.32618095238101
763.879,92.87810000000006
766.381,88.53015238095244
768.882,83.23344285714288
771.38,43.27297619047621
773.877,22.21943333333337
776.372,42.07216190476194
778.866,53.402261904761964
781.357,105.7334571428572
783.847,111.49411428571433
786.335,111.39854761904769
788.821,130.73271904761916
791.306,150.30666666666676
793.789,161.16830952380965
796.27,203.6519047619049
798.749,202.61504761904777
801.227,238.43947619047634
803.702,259.93619047619063
806.176,282.439523809524
808.649,299.42700000000013
811.119,296.7096190476192
813.588,261.2886190476192
816.055,255.59404761904773
818.521,223.723142857143
820.984,199.05838095238107
823.446,190.69719047619054
825.906,165.45109523809532
828.365,162.98866666666677
830.821,158.64528571428582
833.276,160.61395238095247
835.729,139.99228571428577
838.181,118.7825714285715
840.631,127.46379047619057
843.079,127.32395714285721
845.525,123.98470476190484
847.97,118.59173809523814
850.412,93.48099523809529
852.854,91.3219095238096
855.293,104.21273333333338
857.731,82.96574761904766
860.167,76.3935190476191
862.601,73.02278571428579
865.034,82.85677142857152
867.465,129.08879523809534
869.894,141.00774761904768
872.321,144.56909523809531
874.747,124.72824761904768
877.171,119.4411238095239
879.594,139.13956190476202
882.014,164.15956190476203
884.433,158.74266666666676
886.851,185.93966666666677
889.266,174.9442380952382
891.68,184.9504761904763
894.092,213.48514285714296
896.503,212.12271428571444
898.912,193.10466666666676
901.319,184.67209523809532
903.724,159.16180952380967
906.128,163.5767142857144
908.53,198.6341904761906
910.931,205.52790476190486
913.329,192.97523809523818
915.726,159.3126190476191
918.122,131.16219047619055
920.516,135.81223809523823
922.908,173.50385714285724
925.298,195.57338095238106
927.687,191.16650476190483
930.074,147.80993333333342
932.459,119.69658095238103
934.843,119.8767238095239
937.225,106.44800000000008
939.605,129.07967619047628
941.984,117.20287142857147
944.361,111.3436476190477
946.736,108.83759047619054
949.11,115.30606666666674
951.482,71.27481904761909
953.853,80.55552380952386
956.222,64.91184761904768
958.589,96.01227619047627
960.954,112.1918333333334
963.318,119.30929523809529
965.68,107.12790000000007
968.041,113.64945714285719
970.4,83.01793238095242
972.757,55.282229047619055
975.113,22.157787619047618
977.467,-4.163908095238072
979.819,9.222680000000027
982.17,28.08052809523811
984.519,20.029355238095256
986.866,35.260413333333375
989.212,49.72636190476196
991.556,89.33276190476198
993.899,115.5559571428572
996.24,116.44380952380956
998.579,106.28203809523815
1000.92,117.9755714285715
1003.25,115.33370476190484
1005.59,138.1184952380953
1007.92,111.75804285714293
1010.25,117.15686666666676
1012.58,120.88576190476198
1014.91,121.18238095238102
1017.24,112.66522857142864
1019.56,127.52398095238101
1021.88,108.472061904762
1024.2,127.93754285714294
1026.52,142.4431142857144
1028.84,154.60676190476204
1031.16,175.0464761904763
1033.48,222.38028571428583
1035.79,238.845142857143
1038.1,234.43985714285728
1040.41,241.54400000000018
1042.72,253.63204761904777
1045.03,277.1788571428573
1047.33,281.84957142857155
1049.64,239.16676190476198
1051.94,191.31914285714296
1054.24,161.1624761904763
1056.54,178.02828571428586
1058.84,198.67690476190486
1061.13,191.77285714285722
1063.43,172.17176190476198
1065.72,160.300142857143
1068.01,172.48952380952394
1070.3,208.26195238095252
1072.59,231.23466666666678
1074.87,224.1200952380954
1077.16,226.20195238095252
1079.44,241.57323809523828
1081.72,286.9461904761907
1084.0,322.69980952380973
1086.28,372.7370952380955
1088.56,429.3417619047622
1090.84,541.7497619047623
1093.11,639.2921428571432
1095.38,687.2525238095242
1097.65,638.5338571428574
1099.92,534.2771428571431
1102.19,442.28957142857166
1104.46,399.9977619047621
1106.72,362.01885714285737
1108.98,364.874285714286
1111.24,395.80066666666687
1113.5,438.84323809523835
1115.76,493.3811428571431
1118.02,524.7930476190479
1120.28,511.31547619047643
1122.53,492.6605714285717
1124.78,460.35071428571456
1127.03,414.47885714285735
1129.28,374.6627142857145
1131.53,337.32838095238117
1133.77,294.66476190476203
1136.02,278.8133333333335
1138.26,274.96266666666685
1140.5,274.82571428571447
1142.74,286.54376190476205
1144.98,282.49600000000015
1147.22,283.06190476190494
1149.45,284.24014285714304
1151.69,300.74333333333357
1153.92,298.2373809523811
1156.15,272.5304285714287
1158.38,232.52597142857155
1160.61,192.74663809523818
1162.83,143.04841904761915
1165.06,125.81131428571436
1167.28,119.89175238095244
1169.5,96.384280952381
1171.72,96.6211428571429
1173.94,81.64950476190481
1176.16,82.27839047619054
1178.37,104.64996190476198
1180.58,95.71616190476193
1182.8,65.1910285714286
1185.01,35.169342857142865
1187.22,13.270219047619076
1189.42,19.636561904761937
1191.63,36.41110000000001
1193.84,32.07019523809525
1196.04,33.23310952380954
1198.24,31.281100000000023
1200.44,28.16686666666669
1202.64,48.414660952380984
1204.84,51.45359904761907
1207.03,34.61762666666668
1209.23,23.288424761904775
1211.42,20.0858742857143
1213.61,10.487075238095269
1215.8,37.06449904761908
1217.99,53.8669285714286
1220.18,42.752738095238136
1222.36,60.38990000000005
1224.55,74.01804761904766
1226.73,74.59111904761909
1228.91,82.87268571428575
1231.09,72.76924761904765
1233.27,50.806400000000046
1235.44,73.65283809523815
1237.62,83.83420476190481
1239.79,93.1622714285715
1241.96,105.44847619047624
1244.13,103.64755238095245
1246.3,92.3806857142858
1248.47,129.22206666666676
1250.64,149.9834285714287
1252.8,191.85785714285728
1254.96,244.8475714285716
1257.13,265.09828571428585
1259.29,292.51723809523827
1261.44,313.2024761904763
1263.6,302.77604761904786
1265.76,302.14542857142874
1267.91,269.45600000000013
1270.06,233.6153809523811
1272.22,218.5311904761906
1274.37,222.8256190476192
1276.51,205.3587142857144
1278.66,195.46700000000007
1280.81,167.2008095238096
1282.95,163.0870476190477
1285.09,131.55723809523818
1287.23,160.6622380952382
1289.37,174.8333809523811
1291.51,186.64523809523823
1293.65,191.8625238095239
1295.78,190.10780952380964
1297.92,152.95538095238106
1300.05,159.31304761904772
1302.18,167.75538095238105
1304.31,162.57090476190484
1306.44,154.57204761904768
1308.57,128.28595238095247
1310.69,135.52514285714295
1312.82,148.76866666666677
1314.94,194.44771428571443
1317.06,214.42233333333348
1319.18,226.88595238095252
1321.3,217.31742857142876
1323.41,248.57690476190493
1325.53,247.23847619047643
1327.64,326.0191428571431
1329.75,356.87380952380977
1331.87,355.1860476190478
1333.98,338.1010476190478
1336.08,318.66885714285735
1338.19,287.9396666666669
1340.3,294.72542857142867
1342.4,273.1710000000001
1344.5,223.6119523809525
1346.6,170.2410476190477
1348.7,134.5840000000001
1350.8,117.83314285714295
1352.9,109.41895238095245
1354.99,116.72400000000007
1357.09,128.55976190476198
1359.18,127.40423809523818
1361.27,133.97280952380962
1363.36,143.45723809523818
1365.45,147.6685714285715
1367.54,139.7508095238096
1369.62,143.22876190476202
1371.7,176.0560952380954
1373.79,208.70928571428587
1375.87,234.09428571428586
1377.95,268.54490476190495
1380.03,253.44276190476205
1382.1,252.74019047619066
1384.18,253.91404761904772
1386.25,213.15471428571436
1388.33,182.22405714285725
1390.4,141.88372380952387
1392.47,113.80004761904769
1394.54,96.21066666666671
1396.6,63.73420000000004
1398.67,54.46507619047624
1400.74,62.30697619047622
1402.8,55.354214285714335
1404.86,60.12918571428574
1406.92,74.96410952380958
1408.98,72.57154761904766
1411.04,97.47347142857147
1413.09,94.71581904761908
1415.15,88.96320000000004
1417.2,77.49934285714293
1419.25,110.17903809523817
1421.3,113.66659047619054
1423.35,132.95923809523816
1425.4,126.05450476190482
1427.45,117.94956666666674
1429.49,99.7844447619048
1431.54,71.50819476190478
1433.58,35.78444190476192
1435.62,24.562000476190494
1437.66,19.551884761904795
1439.7,33.70287571428574
1441.74,56.82090190476194
1443.77,61.09254285714289
1445.81,61.84726666666671
1447.84,78.12880000000004
1449.87,101.79030000000007
1451.9,105.06573333333341
1453.93,121.85573809523815
1455.96,116.63220952380959
1457.98,117.72447619047628
1460.01,127.1284761904763
1462.03,177.93485714285728
1464.05,216.9013809523811
1466.07,261.9760000000002
1468.09,330.39271428571453
1470.11,379.6237142857145
1472.13,399.42676190476215
1474.14,425.03542857142884
1476.16,421.255285714286
1478.17,383.79628571428594
1480.18,381.9880952380954
1482.19,346.4934285714287
1484.2,278.6418095238097
1486.21,232.3816666666668
1488.21,185.8048095238096
1490.22,138.24095238095248
1492.22,134.78185714285723
1494.22,112.7100428571429
1496.22,77.87950952380956
1498.22,70.95376190476195
1500.22,58.40639047619051
1502.22,41.567985714285726
1504.21,21.769147619047608
1506.21,-6.516080952380943
1508.2,4.281519047619076
1510.19,21.636195238095265
1512.18,49.83190952380956
1514.17,64.91471428571431
1516.16,62.645182857142885
1518.14,40.117392380952396
1520.13,34.66365142857144
1522.11,27.806983809523828
1524.09,29.880118095238117
1526.07,42.88254952380956
1528.05,45.76637333333334
1530.03,40.38859047619051
1532.01,35.27296666666669
1533.98,44.08635238095242
1535.96,62.49569047619052
1537.93,63.73944761904765
1539.9,62.81815238095243
1541.87,64.54193333333336
1543.84,71.24500952380959
1545.81,74.45186190476196
1547.78,88.68726190476195
1549.74,95.09505238095247
1551.7,120.2955238095239
1553.67,144.81326190476202
1555.63,161.2212857142858
1557.59,166.09233333333344
1559.55,162.85633333333342
1561.5,164.0388095238096
1563.46,168.59352380952387
1565.41,169.18871428571435
1567.37,155.49266666666676
1569.32,154.4120000000001
1571.27,156.99585714285723
1573.22,153.0560952380953
1575.17,155.73700000000008
1577.11,145.4695714285715
1579.06,131.35076190476198
1581.0,128.09690476190485
1582.95,127.70976190476196
1584.89,131.14414285714295
1586.83,129.97319047619052
1588.77,128.43719047619058
1590.7,117.39585714285722
1592.64,132.37500000000009
1594.58,144.37680952380958
1596.51,163.4034523809525
1598.44,191.6237619047622
