Raman Shift,Processed Intensity
331.095,11.490483571428536
333.909,-35.0593447619048
336.721,-65.14692761904766
339.531,-72.48971333333334
342.339,-32.51995238095236
345.145,16.068886666666696
347.949,55.609191428571435
350.751,34.86339238095237
353.55,5.8336419047619055
356.348,-4.4288457142856945
359.144,15.414520000000028
361.937,27.3704961904762
364.729,28.114019047619067
367.518,23.893114285714343
370.306,96.57636666666681
373.091,207.08125714285734
375.874,311.9938809523811
378.656,360.33019047619064
381.435,307.48848095238105
384.212,168.91645238095242
386.988,86.15845523809527
389.761,30.37934571428574
392.532,-11.06368476190475
395.301,2.7116114285714374
398.068,2.5889933333333195
400.833,-14.641393333333315
403.596,-1.854593809523809
406.358,14.361582857142853
409.117,-2.7697639999999932
411.874,2.4997057619047625
414.629,1.348282476190481
417.382,4.3364909047619165
420.133,12.78808580952384
422.882,27.170761952380996
425.629,88.524807904762
428.374,138.74925714285723
431.117,175.172361904762
433.858,206.21864761904772
436.597,221.83757142857155
439.334,189.97909523809534
442.069,178.49933333333342
444.802,151.49352380952388
447.533,149.8194761904763
450.262,160.52576190476202
452.989,210.4718571428573
455.714,250.66024761904777
458.438,227.9516761904763
461.159,192.0642857142858
463.878,143.76492380952385
466.595,90.58207619047627
469.31,88.14074285714294
472.024,117.68516190476198
474.735,139.5076000000001
477.444,132.51986190476197
480.152,113.63438095238104
482.857,109.71559523809529
485.561,109.72414285714294
488.262,131.09683333333342
490.962,165.8420476190477
493.659,159.5404857142858
496.355,135.58210476190482
499.048,120.11873333333341
501.74,102.87413333333339
504.43,108.1912095238096
507.118,116.41267619047628
509.804,150.78662857142868
512.488,179.46528571428584
515.17,208.31576190476204
517.85,222.06194285714298
520.528,194.3327095238096
523.204,122.89948571428577
525.878,93.8193095238096
528.551,85.33982857142863
531.221,88.70881428571437
533.89,95.3641190476191
536.556,110.60046666666673
539.221,102.85550476190484
541.883,114.70927619047626
544.544,109.50398571428576
547.203,111.6288857142858
549.86,98.2350857142858
552.515,114.09234285714295
555.168,141.63735714285724
557.819,160.25840952380963
560.469,154.6770000000001
563.116,170.13800000000012
565.761,179.02894285714294
568.405,154.73703809523818
571.047,156.07798095238104
573.687,138.81924761904767
576.324,115.29979047619057
578.96,120.19103809523818
581.594,129.06927619047624
584.227,116.79585714285723
586.857,137.2318095238096
589.485,126.71400000000006
592.112,113.53133333333341
594.737,119.06757142857151
597.359,135.56333333333342
599.98,147.92557142857152
602.599,172.7752857142858
605.216,150.20866666666674
607.831,142.4172380952382
610.445,145.83024761904773
613.056,142.54291428571435
615.666,135.93611428571435
618.274,120.86660952380959
620.88,116.57135238095246
623.484,131.66824761904772
626.086,169.91729523809536
628.686,227.31666666666683
631.284,279.3879047619049
633.881,310.84247619047636
636.476,319.2487619047621
639.068,276.5560000000001
641.659,248.33174285714298
644.249,217.33408095238104
646.836,162.46356190476195
649.421,123.38205714285718
652.005,74.13244761904765
654.587,42.852842857142896
657.166,41.918790476190495
659.745,28.991509523809544
662.321,35.73201904761909
664.895,45.705985714285745
667.468,52.95506190476194
670.038,62.7588666666667
672.607,49.77788571428574
675.174,39.672576190476235
677.739,63.05549523809529
680.303,93.4917494285715
682.864,100.30831966666669
685.424,87.49875504761904
687.982,29.675655095238085
690.538,3.4993055238095447
693.092,-3.7986841428571205
695.645,31.44212990476194
698.195,43.739447142857166
700.744,45.65860666666668
703.291,35.14603476190479
705.836,18.434011428571424
708.38,5.421633809523823
710.921,4.151000476190472
713.461,0.18823714285715454
715.999,4.813876666666689
718.535,39.118237142857176
721.069,47.477494761904794
723.602,63.79179238095241
726.133,57.05676666666669
728.662,47.74437619047622
731.189,40.80293809523813
733.714,61.80002380952385
736.238,50.493876190476215
738.759,68.8330952380953
741.279,78.67161428571433
743.798,100.5301476190477
746.314,100.40547142857147
748.829,107.96149523809528
751.342,89.71913428571433
753.853,77.81840761904765
756.362,43.11418476190478
758.869,37.794755238095256
761.375,30.76258571428575
763.879,37.15870000000004
766.381,62.5048885714286
768.882,64.03756380952385
771.38,75.08835238095243
773.877,77.13210952380956
776.372,67.59606190476192
778.866,51.05045331428573
781.357,22.827562885714293
783.847,11.974125771428621
786.335,49.91764673333338
788.821,72.41954481904767
791.306,98.1936962190477
793.789,119.09645807619054
796.27,131.65137142857154
798.749,156.9059238095239
801.227,178.95516190476204
803.702,205.56104761904777
806.176,230.15257142857155
808.649,238.0150476190478
811.119,257.95842857142867
813.588,247.03076190476204
816.055,215.18509523809536
818.521,196.6600476190477
820.984,177.98009523809532
823.446,169.81266666666676
825.906,166.77742857142866
828.365,168.68482857142865
830.821,142.20282857142863
833.276,134.23726666666676
835.729,118.64628095238102
838.181,112.8124476190477
840.631,129.2128142857144
843.079,134.2296904761905
845.525,120.38844285714295
847.97,131.3096333333334
850.412,131.75662857142862
852.854,123.39801428571437
855.293,127.85438095238099
857.731,84.03218571428575
860.167,46.21898571428576
862.601,71.36879523809532
865.034,103.86458571428578
867.465,112.5655371428572
869.894,86.66403476190477
872.321,65.63838380952384
874.747,54.06194619047628
877.171,89.22230761904773
879.594,135.50278238095245
882.014,171.61976095238106
884.433,161.38480952380962
886.851,167.56219047619058
889.266,177.82085714285725
891.68,191.06757142857157
894.092,199.6379523809525
896.503,196.48676190476198
898.912,163.37819047619058
901.319,155.07649523809533
903.724,131.63182857142866
906.128,154.71270476190486
908.53,158.41669523809531
910.931,167.31784761904774
913.329,169.03749523809535
915.726,204.1967523809525
918.122,158.3219476190477
920.516,161.70099047619055
922.908,155.7169571428572
925.298,146.84865714285723
927.687,151.2886142857144
930.074,174.70563809523819
932.459,138.76890476190485
934.843,137.67128571428577
937.225,136.50966666666673
939.605,106.52447619047625
941.984,105.0510476190477
944.361,108.99623809523814
946.736,111.45731428571436
949.11,101.57943333333338
951.482,85.74524761904765
953.853,79.95675714285721
956.222,87.45405714285721
958.589,109.71510000000009
960.954,134.646361904762
963.318,142.67804761904767
965.68,129.57376190476197
968.041,132.28771428571434
970.4,127.39280952380958
972.757,116.98579047619053
975.113,104.06810190476196
977.467,88.1647066666667
979.819,44.65799904761906
982.17,10.26369809523811
984.519,7.458975238095265
986.866,31.054301904761974
989.212,80.24135904761913
991.556,120.35429047619056
993.899,155.72736666666677
996.24,175.21858095238107
998.579,172.3999523809525
1000.92,165.89090476190484
1003.25,158.7872380952382
1005.59,148.56542857142867
1007.92,138.84509523809533
1010.25,136.29347619047627
1012.58,120.48185714285724
1014.91,127.64866666666677
1017.24,141.12690476190485
1019.56,159.9644761904763
1021.88,145.1138095238096
1024.2,139.2890952380953
1026.52,147.06119047619057
1028.84,179.19209523809536
1031.16,194.10942857142874
1033.48,229.86090476190492
1035.79,241.25576190476204
1038.1,246.43623809523825
1040.41,279.78271428571446
1042.72,306.2947142857144
1045.03,304.01866666666683
1047.33,293.62085714285723
1049.64,243.7195238095239
1051.94,208.21852380952393
1054.24,191.68852380952393
1056.54,193.700142857143
1058.84,195.7287142857144
1061.13,196.48752380952394
1063.43,175.92780952380966
1065.72,190.9055238095239
1068.01,206.51457142857157
1070.3,229.75409523809537
1072.59,235.24209523809537
1074.87,249.5484285714287
1077.16,250.0053809523811
1079.44,270.6117619047621
1081.72,297.69942857142877
1084.0,330.2673333333336
1086.28,392.9804285714289
1088.56,508.1228571428576
1090.84,658.5030952380957
1093.11,760.6909523809528
1095.38,783.8756190476195
1097.65,707.5319523809527
1099.92,602.5152380952384
1102.19,477.3000952380955
1104.46,430.6947142857145
1106.72,395.31633333333355
1108.98,400.02061904761933
1111.24,424.8064761904765
1113.5,483.43395238095275
1115.76,515.9013333333337
1118.02,574.7785238095241
1120.28,578.6828571428574
1122.53,544.7554285714288
1124.78,480.23300000000023
1127.03,416.828142857143
1129.28,347.72990476190495
1131.53,326.174761904762
1133.77,279.1134285714287
1136.02,265.63957142857157
1138.26,256.7036190476192
1140.5,270.9232857142859
1142.74,277.7732380952383
1144.98,284.29942857142873
1147.22,280.64347619047635
1149.45,288.37509523809535
1151.69,298.11171428571447
1153.92,300.1850000000001
1156.15,277.02228571428583
1158.38,221.38385714285724
1160.61,173.69709523809533
1162.83,148.10321904761915
1165.06,135.3627476190477
1167.28,135.37874666666673
1169.5,107.72168952380956
1171.72,78.96155523809527
1173.94,55.620972380952416
1176.16,44.12722190476194
1178.37,56.955099047619086
1180.58,57.91304190476191
1182.8,43.190352380952405
1185.01,35.119252380952396
1187.22,29.603442857142873
1189.42,25.641933333333373
1191.63,46.42416190476193
1193.84,38.94939523809527
1196.04,52.31203333333337
1198.24,63.27329523809527
1200.44,56.308771428571454
1202.64,60.46562380952384
1204.84,59.26726666666669
1207.03,26.856338095238108
1209.23,36.37560952380956
1211.42,43.20605238095239
1213.61,40.01455238095241
1215.8,40.420538095238115
1217.99,53.13887142857144
1220.18,16.360766666666677
1222.36,16.5633761904762
1224.55,12.747838095238112
1226.73,24.48693333333336
1228.91,34.258414285714316
1231.09,43.34973809523811
1233.27,41.810461904761944
1235.44,55.071280952380995
1237.62,75.80117142857148
1239.79,77.81204761904768
1241.96,89.72585238095243
1244.13,79.83068095238102
1246.3,99.89130000000009
1248.47,131.86335714285724
1250.64,182.36900000000014
1252.8,196.078142857143
1254.96,232.56552380952397
1257.13,254.7866190476192
1259.29,255.50714285714298
1261.44,253.6829523809525
1263.6,248.22242857142868
1265.76,213.12938095238107
1267.91,188.69295238095248
1270.06,158.91690476190485
1272.22,149.56700000000012
1274.37,156.31327619047627
1276.51,144.7788714285715
1278.66,141.92011428571436
1280.81,132.4549571428572
1282.95,81.72030000000005
1285.09,84.62446190476197
1287.23,89.59972857142863
1289.37,99.79242857142866
1291.51,128.3013095238096
1293.65,136.4155571428572
1295.78,120.56710476190483
1297.92,125.9496333333334
1300.05,118.3285714285715
1302.18,115.23063809523813
1304.31,93.13514761904764
1306.44,63.23562380952386
1308.57,72.1064333333334
1310.69,105.2263095238096
1312.82,122.07473809523816
1314.94,145.7969333333334
1317.06,153.490761904762
1319.18,179.06380952380965
1321.3,217.566142857143
1323.41,227.4761904761906
1325.53,236.84404761904779
1327.64,257.71942857142875
1329.75,300.91380952380973
1331.87,329.4771904761907
1333.98,333.9829523809525
1336.08,290.90933333333345
1338.19,267.01995238095253
1340.3,267.7453714285716
1342.4,258.84870952380965
1344.5,195.66496190476195
1346.6,147.1001952380953
1348.7,84.63227142857146
1350.8,57.88161428571437
1352.9,80.0397952380953
1354.99,114.8222476190477
1357.09,120.13473333333341
1359.18,139.97812380952388
1361.27,136.7341571428572
1363.36,142.40378095238106
1365.45,139.46360476190483
1367.54,145.5333428571429
1369.62,149.94661904761915
1371.7,172.41833333333346
1373.79,205.18666666666684
1375.87,250.1566666666668
1377.95,262.3280952380954
1380.03,233.08219047619062
1382.1,211.65647619047633
1384.18,197.76526666666678
1386.25,168.55106666666674
1388.33,138.48950952380957
1390.4,105.24652857142861
1392.47,68.34558571428576
1394.54,52.5950666666667
1396.6,50.56565714285717
1398.67,48.01822380952384
1400.74,47.38020476190481
1402.8,66.60270952380958
1404.86,67.54156190476195
1406.92,76.14764285714288
1408.98,66.65748571428574
1411.04,58.06936190476194
1413.09,38.048166666666695
1415.15,45.87750000000004
1417.2,57.936476190476256
1419.25,91.36595238095245
1421.3,124.6873095238096
1423.35,132.99369523809528
1425.4,138.37781904761914
1427.45,140.0277952380953
1429.49,129.03658571428576
1431.54,84.54464761904764
1433.58,50.12066666666668
1435.62,15.905138095238126
1437.66,21.466728571428604
1439.7,36.707923809523834
1441.74,51.626085714285736
1443.77,55.123476190476225
1445.81,61.29281428571433
1447.84,73.75059523809527
1449.87,65.0181047619048
1451.9,59.85475238095242
1453.93,58.448461904761956
1455.96,65.796880952381
1457.98,94.08778571428579
1460.01,112.1758714285715
1462.03,129.29675714285725
1464.05,160.11480000000012
1466.07,197.86580952380967
1468.09,253.45200000000017
1470.11,315.9660000000002
1472.13,317.97685714285734
1474.14,343.4822857142859
1476.16,326.6704285714288
1478.17,300.15833333333353
1480.18,288.99095238095254
1482.19,251.11838095238105
1484.2,188.68133333333347
1486.21,177.1062380952382
1488.21,151.10493333333343
1490.22,121.72321428571435
1492.22,109.72067142857148
1494.22,98.95233809523816
1496.22,91.41629047619054
1498.22,79.44380476190481
1500.22,80.93756190476194
1502.22,56.181414285714304
1504.21,31.459142857142883
1506.21,27.24506666666669
1508.2,37.20403619047621
1510.19,25.09617428571431
1512.18,36.110248571428585
1514.17,29.387406666666674
1516.16,25.021243809523824
1518.14,14.486350476190479
1520.13,3.3050028571428554
1522.11,6.856680000000015
1524.09,11.044725238095246
1526.07,14.105874285714307
1528.05,35.37219857142859
1530.03,40.271074285714306
1532.01,47.56328714285719
1533.98,67.58111333333336
1535.96,66.65687619047623
1537.93,55.9800666666667
1539.9,60.83557619047623
1541.87,60.12731428571434
1543.84,94.04517619047625
1545.81,102.68354285714291
1547.78,92.70843333333337
1549.74,88.02406190476196
1551.7,117.53483333333342
1553.67,140.85910952380965
1555.63,172.1395476190477
1557.59,183.3756095238096
1559.55,171.28128571428581
1561.5,164.09461904761918
1563.46,183.24380952380963
1565.41,176.9192857142858
1567.37,146.4068095238096
1569.32,132.46790476190483
1571.27,129.1980476190477
1573.22,136.83533333333344
1575.17,166.23657142857152
1577.11,169.25952380952387
1579.06,160.42809523809532
1581.0,144.31371428571435
1582.95,141.72638095238105
1584.89,148.4759523809525
1586.83,161.94338095238106
1588.77,177.41495238095249
1590.7,198.65309523809535
1592.64,192.32457142857152
1594.58,187.04904761904766
1596.51,191.9222619047621
1598.44,217.61138095238152
