Raman Shift,Processed Intensity
331.095,121.29921224079271
333.909,63.138868225351416
336.721,14.364194291149488
339.531,-19.858130796446858
342.339,-24.26616597944394
345.145,-20.35983866566903
347.949,9.956208196637817
350.751,31.63452843545383
353.55,36.53249716157097
356.348,15.0789828942452
359.144,-11.154218408385532
361.937,-21.97618741413089
364.729,-9.100685481570963
367.518,21.282421086869363
370.306,75.74525828968262
373.091,158.76480264377142
375.874,220.7705013066843
378.656,257.0966541036337
381.435,237.26812888783343
384.212,208.71464832941183
386.988,197.38983860909048
389.761,174.48551620708986
392.532,127.47930802536303
395.301,84.84893817649436
398.068,25.310324296413
400.833,-12.896707095284455
403.596,-17.865562377855895
406.358,-17.26097499289108
409.117,-16.60472004991925
411.874,11.295811963523647
414.629,1.7761824292101664
417.382,10.886327156668358
420.133,3.7715039235608856
422.882,38.053240205255406
425.629,46.210282044127325
428.374,83.24525760757115
431.117,109.92276931743254
433.858,154.05510502706875
436.597,174.45461586506053
439.334,197.60037979322078
442.069,165.06676992650137
444.802,141.19011809099948
447.533,155.3544260010185
450.262,176.4199335789749
452.989,219.29454441817052
455.714,256.5528702931797
458.438,242.53146614643038
461.159,209.1383507890646
463.878,198.80538474465493
466.595,168.82160047387015
469.31,171.99986593247786
472.024,171.20069098649037
474.735,163.80841477969443
477.444,170.30263119641222
480.152,208.11532860998886
482.857,209.488029631274
485.561,216.42416895235056
488.262,198.26051880930936
490.962,202.8576620640706
493.659,198.12379861954196
496.355,195.91950421571755
499.048,195.05772732102605
501.74,216.73235745223656
504.43,225.32774587532413
507.118,246.4187024968046
509.804,272.4371594217346
512.488,271.8626440355288
515.17,296.60322827625396
517.85,332.0431445735876
520.528,334.42373512111317
523.204,324.1291630533751
525.878,310.591171241987
528.551,311.43193632983275
531.221,319.4164465747872
533.89,354.4524987410564
536.556,381.4478378476515
539.221,355.88158263115065
541.883,358.8042224370088
544.544,357.5042807775494
547.203,356.03212174710416
549.86,395.6761373895338
552.515,442.10560173241856
555.168,445.2278105355308
557.819,461.0928400869234
560.469,435.2744964752046
563.116,394.10840771896574
565.761,395.5015444676328
568.405,422.02745498804006
571.047,411.1167382462354
573.687,367.533231274997
576.324,322.27876796991904
578.96,238.7836521712179
581.594,217.43046407887505
584.227,235.12548571539355
586.857,244.2034597218949
589.485,228.61806243991578
592.112,208.13237699322008
594.737,140.50936636960023
597.359,92.22615602649739
599.98,80.18831649661206
602.599,84.72986027923434
605.216,82.04181016014172
607.831,121.02933896006743
610.445,121.69271880697988
613.056,91.98446088455694
615.666,61.333121847320854
618.274,28.69091975958372
620.88,2.0099214629649396
623.484,35.71822994390686
626.086,57.1961746887755
628.686,80.77631178470301
631.284,91.74342765556639
633.881,102.5250189884473
636.476,106.40558218389606
639.068,98.90756947286809
641.659,79.60091646223054
644.249,43.29352206122621
646.836,23.1741093603041
649.421,14.621753176620132
652.005,36.06302664715713
654.587,51.49581684753457
657.166,74.87028478166849
659.745,78.42220632381668
662.321,68.14917030347806
664.895,55.810586114092985
667.468,45.4515008455719
670.038,40.87879736918376
672.607,54.66120194627274
675.174,48.22452993219622
677.739,34.6135981469406
680.303,31.777946769547725
682.864,22.19089456587244
685.424,14.70668935443291
687.982,5.5605156151245865
690.538,-8.631497902069896
693.092,-20.63417533027541
695.645,-11.831380748132233
698.195,-14.03553472169915
700.744,24.417152639282904
703.291,27.952399755888564
705.836,61.9483320706031
708.38,43.449770061723484
710.921,43.1206124958544
713.461,26.910505394692336
715.999,62.34055862085279
718.535,62.07477674941174
721.069,88.44387089182328
723.602,61.921451472217996
726.133,49.028792432269256
728.662,61.3348335313035
731.189,90.74189693211883
733.714,87.96187997728521
736.238,92.13530510829605
738.759,62.97417930852362
741.279,32.00009164142011
743.798,4.734691741086408
746.314,-3.5860221733310027
748.829,-21.72598671182641
751.342,12.21759613017366
753.853,71.05235661854658
756.362,97.20504307450165
758.869,88.76914100194017
761.375,71.93344459576883
763.879,41.505866345449704
766.381,30.865818067123655
768.882,65.53563955478012
771.38,94.41869389810017
773.877,102.41841518124465
776.372,87.10497522927108
778.866,57.95337892597354
781.357,50.438702388866204
783.847,60.84561685846211
786.335,91.2207697303993
788.821,61.515641778051304
791.306,61.872261517989955
793.789,40.242252908784394
796.27,56.529692573602006
798.749,88.06730035615192
801.227,110.42596320995608
803.702,99.65283051619645
806.176,134.50940940155442
808.649,142.80489815129204
811.119,159.68190057473794
813.588,177.66404513267753
816.055,153.98931835045096
818.521,138.18149346915106
820.984,111.09774957301124
823.446,82.97629071678921
825.906,74.72206029124527
828.365,78.52578872194908
830.821,87.721136406195
833.276,109.8323128403872
835.729,99.66931479504592
838.181,73.18506925171914
840.631,60.42781443513422
843.079,50.58871894058302
845.525,71.28759609941517
847.97,69.1443326302333
850.412,77.58841252819002
852.854,91.19225047809186
855.293,97.57595383893567
857.731,93.69303700939872
860.167,86.87804055522975
862.601,54.65605509855004
865.034,68.40938806429449
867.465,47.56803995045493
869.894,31.70494250310003
872.321,7.059768319952127
874.747,-22.0801166888848
877.171,-16.855843697349883
879.594,38.82962650788204
882.014,31.216263811682893
884.433,62.25839389301018
886.851,82.95802810934902
889.266,78.84105052401219
891.68,97.52864302867602
894.092,94.26109141829738
896.503,73.04063908508033
898.912,68.29815023624542
901.319,64.98834454037387
903.724,79.3516984404173
906.128,111.0572988476597
908.53,104.82188731187921
910.931,116.26699942959226
913.329,108.63324710944994
915.726,125.30412464715732
918.122,158.52029099086394
920.516,172.99861391132163
922.908,156.5035951244172
925.298,130.08546208037546
927.687,115.03254546724656
930.074,119.82365671439584
932.459,104.27094168646136
934.843,77.37702009160103
937.225,77.23974393735693
939.605,77.43314646270642
941.984,120.72172440345526
944.361,140.012815495719
946.736,132.83278550321825
949.11,103.94607238743174
951.482,87.78375428727077
953.853,64.20545083208958
956.222,79.16598635945388
958.589,60.42967218053059
960.954,50.85601741689857
963.318,60.066392218315286
965.68,39.44402431381832
968.041,47.18161461044747
970.4,45.04323850624883
972.757,23.697675774707932
975.113,22.00412140156095
977.467,15.345515469224893
979.819,-13.752412673055687
982.17,-17.00210023905538
984.519,-5.25891481868689
986.866,4.43122318748965
989.212,16.0699305758194
991.556,23.706355553506
993.899,13.532410505979897
996.24,26.358958764487625
998.579,56.568191849864206
1000.92,60.73267475812895
1003.25,60.234391246077166
1005.59,61.97902721211972
1007.92,39.34834931520959
1010.25,29.62877406995858
1012.58,31.72565122747119
1014.91,37.16326144189338
1017.24,38.03719488934212
1019.56,17.01434893445162
1021.88,11.856735320732014
1024.2,27.51671593235278
1026.52,67.32747839596504
1028.84,101.71732243898373
1031.16,109.87632996355342
1033.48,98.37541607288745
1035.79,96.11871343094731
1038.1,123.2483375744905
1040.41,133.04915222513068
1042.72,151.99639174424078
1045.03,138.61280739739504
1047.33,121.46867076165427
1049.64,136.08653903762547
1051.94,129.9412584567467
1054.24,133.8885391171466
1056.54,135.49829172426894
1058.84,119.6736786172064
1061.13,122.22254574742033
1063.43,140.09552132412614
1065.72,132.19554303110522
1068.01,128.04452810066323
1070.3,120.68813862567845
1072.59,140.07673734784703
1074.87,162.97015296972836
1077.16,164.46149308583995
1079.44,193.16762378042245
1081.72,203.89583970139006
1084.0,235.40577222951583
1086.28,289.26653574286524
1088.56,343.19006435741403
1090.84,385.0787343819577
1093.11,458.5967962968243
1095.38,484.0751400659226
1097.65,454.9874890202234
1099.92,401.3789746936186
1102.19,314.6756640397293
1104.46,249.73218188682176
1106.72,246.9269524403269
1108.98,254.78125030917954
1111.24,250.81634677024908
1113.5,272.93446555658534
1115.76,296.03783388375746
1118.02,333.36201919048654
1120.28,383.1425992126017
1122.53,417.6151653903305
1124.78,376.82485008511503
1127.03,318.57871093927724
1129.28,240.35049618807284
1131.53,200.6616004479315
1133.77,171.93821098088597
1136.02,168.79702538757283
1138.26,124.9976359668965
1140.5,105.44253312332035
1142.74,90.51044210749137
1144.98,123.19918356638459
1147.22,133.26853409345063
1149.45,164.62118201685553
1151.69,147.7313022353419
1153.92,162.2636072445639
1156.15,158.88287435389975
1158.38,150.25394909374018
1160.61,101.56555814658327
1162.83,81.00650323051627
1165.06,47.432331173168905
1167.28,27.174861128530665
1169.5,24.61361655567066
1171.72,31.461542911750712
1173.94,36.19358248788012
1176.16,33.9990587687912
1178.37,17.972156030599763
1180.58,-3.8404582042803668
1182.8,35.46513214491392
1185.01,26.840573122285377
1187.22,47.2376264966972
1189.42,1.4176983803397434
1191.63,-19.000536914602435
1193.84,-47.731608257383186
1196.04,-11.347052266666424
1198.24,-4.703981842765188
1200.44,9.673958825907448
1202.64,7.644209480494737
1204.84,26.064337089831724
1207.03,20.172984885648248
1209.23,12.589869790008379
1211.42,7.363398890365943
1213.61,-8.838856942518305
1215.8,-3.7301656271361026
1217.99,-4.880826177955441
1220.18,3.138971397120258
1222.36,-7.621809423884997
1224.55,21.362087535567753
1226.73,53.85411258639283
1228.91,65.76066796000487
1231.09,74.27396083253461
1233.27,67.15771349191391
1235.44,44.31858779066283
1237.62,38.663323884396505
1239.79,17.908259922711522
1241.96,7.293613644837251
1244.13,7.297763975285534
1246.3,14.065818333790958
1248.47,30.45722829686747
1250.64,56.18864408790819
1252.8,35.929150019665485
1254.96,40.53835707958319
1257.13,34.447352657991814
1259.29,33.468221704876214
1261.44,42.698805981878195
1263.6,70.90365379049581
1265.76,58.990207795513015
1267.91,62.24689761034551
1270.06,64.24789904904446
1272.22,72.80551242592514
1274.37,54.25587418852456
1276.51,37.506573312459295
1278.66,28.08426769629159
1280.81,69.75372912781654
1282.95,88.1368882503541
1285.09,100.23664143380506
1287.23,82.86541955046869
1289.37,77.02613770324274
1291.51,52.864573525251444
1293.65,62.09793595566248
1295.78,60.30057687264434
1297.92,30.85636939299434
1300.05,24.62537188604938
1302.18,60.9914443685509
1304.31,48.19557918522173
1306.44,55.28827930839725
1308.57,73.70098425669812
1310.69,75.72225791846745
1312.82,103.2596906609183
1314.94,129.45894429642703
1317.06,121.84660657263385
1319.18,117.04447423397528
1321.3,108.8171694165419
1323.41,115.92927985246683
1325.53,142.2882133600251
1327.64,171.42038566706992
1329.75,186.9474082344766
1331.87,200.0146570319646
1333.98,208.38650798057984
1336.08,199.1606200142237
1338.19,197.62507528404763
1340.3,199.7821860295087
1342.4,172.7294443065664
1344.5,135.65951933493102
1346.6,114.7650167500658
1348.7,86.04799975995638
1350.8,70.12951030188651
1352.9,93.48766162777656
1354.99,110.9338261276207
1357.09,100.18406124816192
1359.18,99.6210116020402
1361.27,93.38914441027464
1363.36,90.44236589712636
1365.45,123.4011614944859
1367.54,150.504974141503
1369.62,168.65982067945197
1371.7,177.39067015135447
1373.79,199.84144114922765
1375.87,225.15595154228276
1377.95,229.00172534798412
1380.03,213.6176091269199
1382.1,202.05186456814
1384.18,186.25740393163483
1386.25,195.99654930034558
1388.33,193.6981727845457
1390.4,167.21959863098914
1392.47,137.65612437966706
1394.54,98.9124467824754
1396.6,72.65504010283166
1398.67,79.50262965338811
1400.74,65.07380819089144
1402.8,58.17750945389821
1404.86,45.57491027191645
1406.92,21.074666007881433
1408.98,2.1519555244333333
1411.04,12.51990710257951
1413.09,20.36769314672256
1415.15,40.93195844892921
1417.2,38.68729735380066
1419.25,36.346256777685085
1421.3,32.28791065646601
1423.35,11.700720107630787
1425.4,9.534917401866778
1427.45,5.835842315607124
1429.49,20.26775586554504
1431.54,55.113845494035786
1433.58,77.27623085549658
1435.62,63.32358865043034
1437.66,82.01496793563024
1439.7,60.96646257724751
1441.74,77.60359798956824
1443.77,98.92324168332016
1445.81,76.20789476635787
1447.84,55.0256977300628
1449.87,82.5161505214578
1451.9,70.43773737722836
1453.93,92.54888499107619
1455.96,106.27463496678592
1457.98,103.51617341415022
1460.01,107.93655102108232
1462.03,116.05592693525432
1464.05,123.34681264573169
1466.07,137.28169681698978
1468.09,139.3806701229346
1470.11,168.68762150949215
1472.13,176.0559582667222
1474.14,178.72004038665
1476.16,199.00947206394744
1478.17,185.253869387102
1480.18,144.25905660100716
1482.19,137.9261195124202
1484.2,101.39426841922227
1486.21,78.80274865872889
1488.21,75.24322734647808
1490.22,56.807418210256856
1492.22,49.2061349955552
1494.22,53.38834487102372
1496.22,61.92212659582765
1498.22,35.85181916319243
1500.22,16.79326568204533
1502.22,3.5528667824637523
1504.21,10.31806259255768
1506.21,-26.77123290370355
1508.2,-24.575006672531345
1510.19,-24.191235722069905
1512.18,8.758401846638662
1514.17,56.176146461993085
1516.16,70.15482170608288
1518.14,22.977833150368497
1520.13,-11.642737570542295
1522.11,-1.6613720184484464
1524.09,17.872312455550173
1526.07,50.86117936786309
1528.05,48.16057054048247
1530.03,36.7211606819169
1532.01,19.446097682410254
1533.98,43.42909529011058
1535.96,52.57347816819947
1537.93,56.83027457106232
1539.9,46.10297568713281
1541.87,57.00943783887533
1543.84,35.31045134943588
1545.81,34.90973798071968
1547.78,52.56823408575292
1549.74,57.570754713424094
1551.7,71.91646723703138
1553.67,85.65222212568597
1555.63,66.15826466809835
1557.59,53.291089553510574
1559.55,60.812009738337565
1561.5,87.76810626519114
1563.46,126.58746379618856
1565.41,110.93631090816939
1567.37,118.86187467361992
1569.32,98.8399971463657
1571.27,88.96560899012161
1573.22,96.71463167847469
1575.17,95.61064159962962
1577.11,74.41534368495695
1579.06,99.27142598992714
1581.0,79.08350951313605
1582.95,79.85147896770923
1584.89,85.86095640985104
1586.83,86.01663201025144
1588.77,77.6517853016826
1590.7,71.90923499802398
1592.64,60.122288813286104
1594.58,59.7671218520652
1596.51,51.67705976189768
1598.44,25.685433314184593
