Raman Shift,Processed Intensity
331.095,95.02270333324395
333.909,34.06692120536536
336.721,34.782860432951566
339.531,65.67053051227413
342.339,84.80138850356798
345.145,66.53263424163833
347.949,22.48341030835263
350.751,-7.917569423430905
353.55,-19.051057912604392
356.348,-1.0120273582570007
359.144,22.676053787221008
361.937,0.20408473629140644
364.729,10.382100945004368
367.518,6.496423644104198
370.306,47.73823796200577
373.091,136.25121866680593
375.874,239.17915590830034
378.656,281.71358095999994
381.435,247.56996338971658
384.212,168.46390823014963
386.988,91.25401981613868
389.761,71.037146574291
392.532,66.67219724118377
395.301,56.494433272046535
398.068,8.077380297054788
400.833,-19.052879469985783
403.596,-36.46531958487412
406.358,0.0808000402057587
409.117,-30.173585116049708
411.874,-26.558770974740582
414.629,-44.64294973447022
417.382,-57.94649691762925
420.133,-39.79911830445326
422.882,3.2315698948636964
425.629,-9.469497623136249
428.374,9.95895525504784
431.117,70.52119404315272
433.858,125.50731113886877
436.597,178.30273099070246
439.334,191.29295336009
442.069,147.67305848826254
444.802,72.20959321549753
447.533,64.05007614799706
450.262,79.24678853905561
452.989,110.56627945593982
455.714,151.01315666105347
458.438,152.2586393978654
461.159,120.0214921292195
463.878,103.734672561357
466.595,83.30721776318342
469.31,63.21946361886239
472.024,70.18969285185494
474.735,79.6503068584675
477.444,105.65257535948422
480.152,153.96186931679267
482.857,141.6290923208294
485.561,121.65735007325702
488.262,107.14481034583741
490.962,102.28470579643636
493.659,109.50819392788708
496.355,141.3415027611386
499.048,131.31069555603472
501.74,146.46548315114524
504.43,142.37922677978622
507.118,162.72036945746413
509.804,190.91910546455756
512.488,204.5959545909118
515.17,216.03795542804164
517.85,242.00819199468287
520.528,228.84103464803638
523.204,228.68023813789478
525.878,253.85989680361035
528.551,240.71397119964422
531.221,260.9572432925479
533.89,274.9710335626928
536.556,292.51748953457036
539.221,275.1205409737581
541.883,295.732569369608
544.544,293.59155360840214
547.203,297.4591680274616
549.86,293.8588804692672
552.515,343.028336049852
555.168,339.96697902243795
557.819,361.10272226012194
560.469,357.53004530999124
563.116,358.5338067329517
565.761,357.35115168164566
568.405,374.64770519266176
571.047,339.0413845263515
573.687,283.19764007808135
576.324,247.63898200377253
578.96,226.26879255972244
581.594,213.60942415671752
584.227,220.32601169985674
586.857,205.84552302360908
589.485,159.54723789829995
592.112,138.19132227468617
594.737,94.8235930047158
597.359,63.72790160991144
599.98,65.47375614498742
602.599,70.63060972813582
605.216,81.62501259096962
607.831,59.359668890367175
610.445,40.54677923460713
613.056,-1.3871882190746874
615.666,-28.253869524068705
618.274,-34.00775357183875
620.88,-40.93664514796001
623.484,-39.28070236708527
626.086,-13.565763380534008
628.686,-4.079534521514688
631.284,19.509360294377075
633.881,45.05613829408139
636.476,41.03509234463445
639.068,37.49197027773562
641.659,23.47254469050904
644.249,33.451182746264294
646.836,39.235606451446074
649.421,46.395464811373586
652.005,47.64328693835887
654.587,38.929720874110444
657.166,20.538772412137405
659.745,41.42113915825212
662.321,28.95611601964265
664.895,6.570643551085595
667.468,0.8345467773538076
670.038,33.79386925372273
672.607,55.54230302508722
675.174,55.50690438347738
677.739,44.21000010176749
680.303,14.221569857861596
682.864,9.349723896971682
685.424,12.974037836755542
687.982,5.997935091504587
690.538,-11.484644989393473
693.092,-13.236864697267265
695.645,-4.450414463382003
698.195,42.06401186225776
700.744,47.97195467929123
703.291,55.60566395290516
705.836,66.91647929163855
708.38,49.18911478709924
710.921,43.565467663194795
713.461,66.71128406822345
715.999,54.72092010506094
718.535,51.16496000420784
721.069,30.042596201590186
723.602,29.49591417827014
726.133,67.95274872872642
728.662,71.17430213388889
731.189,69.96942900085378
733.714,69.48034967401645
736.238,45.515982693837486
738.759,41.98051535083323
741.279,63.87340281100296
743.798,18.81317676506751
746.314,-4.676841160390268
748.829,-4.9304450394051855
751.342,7.718597335944651
753.853,25.841305014740556
756.362,46.77062490208891
758.869,60.83952592729429
761.375,42.571474164408755
763.879,39.680431762305034
766.381,36.83276063666199
768.882,13.171030923855596
771.38,-7.114551517533073
773.877,2.7852823947951038
776.372,-4.843993245921411
778.866,11.759298875006607
781.357,57.594942546372295
783.847,70.32939746077955
786.335,79.01008410805798
788.821,77.44633533532806
791.306,72.97130028802212
793.789,79.01337216042657
796.27,124.95333023194053
798.749,124.7433866652409
801.227,126.90718568540024
803.702,103.9683741875815
806.176,75.3077437732959
808.649,74.2108489771399
811.119,65.01086358876728
813.588,75.32667507011229
816.055,109.11050278212042
818.521,102.50504002100752
820.984,110.93869129261702
823.446,103.79223815819978
825.906,53.06550508020155
828.365,37.56783479185242
830.821,49.918087476283745
833.276,47.35416375517025
835.729,94.87586101069837
838.181,115.3877297075419
840.631,100.36573923863989
843.079,59.76203900907285
845.525,32.195433805663924
847.97,4.618049642766437
850.412,2.267713893772907
852.854,34.953668755948456
855.293,28.96133280060485
857.731,21.90944370489069
860.167,31.79767717406594
862.601,19.10188491138888
865.034,27.488380207061255
867.465,30.766318765262895
869.894,1.2686528711942628
872.321,-3.481200156174509
874.747,12.94492953626468
877.171,12.451394821402573
879.594,12.085399820357452
882.014,-1.1058543803387693
884.433,-0.12278466752559325
886.851,30.89134132416075
889.266,62.983743754743045
891.68,90.10642148992338
894.092,62.497109678773995
896.503,68.96499923619012
898.912,72.46217061105835
901.319,85.98836088774851
903.724,85.78144517332248
906.128,71.88887036569395
908.53,39.40575558846331
910.931,38.046325959072874
913.329,31.71534635696662
915.726,90.88907900126833
918.122,118.04386007608582
920.516,131.70372397485835
922.908,121.1546942113714
925.298,97.39716956886741
927.687,70.52688167772885
930.074,64.35394783125139
932.459,21.68859046808757
934.843,38.57923760707581
937.225,56.78871852016118
939.605,89.36569750055878
941.984,118.83515524995983
944.361,87.48410836098037
946.736,46.50447165675223
949.11,57.13592053050843
951.482,35.76113423756033
953.853,55.858182044408295
956.222,42.714814139761984
958.589,20.09513349794088
960.954,-5.712779876772856
963.318,-7.8968637533980655
965.68,-31.263925620372902
968.041,-10.477733300473574
970.4,-25.106630169053005
972.757,-25.90924879441991
975.113,-23.263082775923067
977.467,-4.212108749624349
979.819,-3.657268168345581
982.17,-14.308856203216692
984.519,-27.25795868707928
986.866,-34.26217513924348
989.212,-4.983724187702592
991.556,28.820067282714263
993.899,45.106271481162366
996.24,56.87967608422832
998.579,64.09752918081085
1000.92,32.52666516938052
1003.25,13.838725893335322
1005.59,-0.48509441411488297
1007.92,-4.296923232692734
1010.25,6.884439951731565
1012.58,15.778268543189824
1014.91,3.8180818693840592
1017.24,-4.324562045904258
1019.56,8.831345337213406
1021.88,3.576246707762948
1024.2,4.771906861107254
1026.52,-0.7676508367162569
1028.84,20.057173328709723
1031.16,57.86963558441221
1033.48,82.24520494692615
1035.79,84.33059770089312
1038.1,91.41519283003663
1040.41,86.7881617338544
1042.72,100.88131223002529
1045.03,109.4119325568181
1047.33,72.19230204216547
1049.64,57.272535106073974
1051.94,30.65485383446321
1054.24,27.19833674347683
1056.54,34.28557230569277
1058.84,13.394077466588442
1061.13,2.905814144704891
1063.43,36.202423468329016
1065.72,37.90331852029067
1068.01,103.10377738097759
1070.3,132.27970648850123
1072.59,108.24002686844233
1074.87,110.93620322074185
1077.16,95.84320157802267
1079.44,54.29282791629703
1081.72,115.42611438471249
1084.0,159.1457055353053
1086.28,191.401583338818
1088.56,253.85774458146352
1090.84,307.41602111883003
1093.11,328.69228108216566
1095.38,384.68310627513847
1097.65,395.1943743325064
1099.92,358.9841265930713
1102.19,273.3816264488205
1104.46,227.66832245597925
1106.72,155.07785906510435
1108.98,136.70084925593937
1111.24,147.91345669607472
1113.5,192.2345493281773
1115.76,231.37332914770536
1118.02,270.5150572187158
1120.28,293.8448739277617
1122.53,299.73828590446305
1124.78,276.14212913254846
1127.03,233.24124634660575
1129.28,211.6489739526446
1131.53,171.4547718057995
1133.77,144.98613870231452
1136.02,123.04671834772103
1138.26,118.3925005631072
1140.5,107.39849868187594
1142.74,143.6301888512519
1144.98,169.41494933379317
1147.22,153.03254742794388
1149.45,125.38181686478151
1151.69,114.12352568095662
1153.92,121.68038694877396
1156.15,131.99897426818188
1158.38,107.40687535399366
1160.61,91.99365514691522
1162.83,74.13467606743461
1165.06,64.34825160304331
1167.28,61.77184751450886
1169.5,42.01923542309123
1171.72,6.704313064437201
1173.94,0.6315912091342852
1176.16,-6.8704580679068386
1178.37,-13.997004815278842
1180.58,-9.371607425478487
1182.8,2.6204690115257563
1185.01,-2.501067085012437
1187.22,3.498002602393626
1189.42,-3.671676102610718
1191.63,14.796030339974322
1193.84,8.61227994212004
1196.04,16.107553474423867
1198.24,-16.006426710285268
1200.44,-33.970015079415134
1202.64,-33.1661025627061
1204.84,-13.977244496165895
1207.03,-33.83326825916993
1209.23,-26.40174147031894
1211.42,-30.492727320887298
1213.61,-46.01116243740739
1215.8,-38.3378088768402
1217.99,-17.85306639311193
1220.18,9.205877203540012
1222.36,12.745034597300219
1224.55,41.33741522484593
1226.73,52.3658700747676
1228.91,56.6897460108014
1231.09,40.644873428389474
1233.27,26.28164914933791
1235.44,35.03169074504626
1237.62,25.4697289549772
1239.79,61.31359534321359
1241.96,98.70992424073438
1244.13,85.61509278292101
1246.3,81.46187523278195
1248.47,115.20704968512155
1250.64,80.18852858024206
1252.8,87.83963207478087
1254.96,53.97478998397537
1257.13,25.21810086678761
1259.29,24.527129206259133
1261.44,27.00241687558264
1263.6,44.31604222321607
1265.76,69.66398868180636
1267.91,63.28994194854795
1270.06,76.91384907029533
1272.22,74.44619181439748
1274.37,47.17845051571953
1276.51,17.11642506652288
1278.66,23.646889239682878
1280.81,37.20424501189473
1282.95,58.699083364430635
1285.09,78.37531651246445
1287.23,97.19111965820184
1289.37,72.771301315443
1291.51,93.93110220557446
1293.65,84.24761320117909
1295.78,64.29785993631253
1297.92,53.46831598819972
1300.05,49.240606535126744
1302.18,14.57245010957081
1304.31,26.469076541807
1306.44,28.173692522568672
1308.57,59.69128197208738
1310.69,90.883837639999
1312.82,114.13702410633664
1314.94,109.16969792537702
1317.06,112.60533253139465
1319.18,108.11487171584395
1321.3,123.17863072358568
1323.41,149.03867353960186
1325.53,149.84166636617942
1327.64,142.44839776676918
1329.75,150.33853690507908
1331.87,158.13443940322372
1333.98,156.41066748557864
1336.08,203.027319646445
1338.19,207.65383650819604
1340.3,185.53090191751016
1342.4,156.75615356542585
1344.5,112.42703646452696
1346.6,43.640799283282604
1348.7,52.684966870845074
1350.8,79.6087651628095
1352.9,78.27074094279601
1354.99,67.91019112784397
1357.09,61.57573491095218
1359.18,44.744362094097596
1361.27,56.369052849828904
1363.36,100.68830224476187
1365.45,105.32136353922215
1367.54,116.45872958212271
1369.62,130.1478523010851
1371.7,140.4360050497014
1373.79,147.98933543098406
1375.87,173.99763240653215
1377.95,187.84099816760227
1380.03,203.32794857760132
1382.1,182.12398980505986
1384.18,145.65638543279852
1386.25,137.25701880518204
1388.33,120.30525537538392
1390.4,116.94223362407206
1392.47,131.73753693048434
1394.54,119.49872258634969
1396.6,103.50942223839161
1398.67,82.33887090225494
1400.74,62.65143597643396
1402.8,42.9685272085801
1404.86,63.81145904276218
1406.92,71.89193201434819
1408.98,66.82632366869757
1411.04,54.18331281318433
1413.09,46.912456150174876
1415.15,7.439431576673542
1417.2,13.142233864925174
1419.25,13.922608438252155
1421.3,-4.889180764033426
1423.35,-3.7724392344675834
1425.4,-2.20650938994072
1427.45,-29.766000468256834
1429.49,-21.4541140475892
1431.54,-4.6550174097376384
1433.58,-6.324315218757192
1435.62,11.72523849865047
1437.66,28.58564694631673
1439.7,38.7298622217736
1441.74,49.72607339946285
1443.77,49.38056604251574
1445.81,31.45201028595875
1447.84,36.93717749135112
1449.87,37.26141880617547
1451.9,69.8977151518061
1453.93,92.55715578290551
1455.96,119.52227398967239
1457.98,134.40895422866765
1460.01,136.97595830126124
1462.03,129.12492772255155
1464.05,127.1861003759941
1466.07,123.29926526326904
1468.09,118.318526777957
1470.11,98.38373564588437
1472.13,101.01572938927711
1474.14,104.25919183853352
1476.16,110.7302745487666
1478.17,129.90231345443476
1480.18,113.5344026668347
1482.19,91.00473017635477
1484.2,93.35819926901831
1486.21,70.87785946683039
1488.21,35.03728984907775
1490.22,23.595839516488923
1492.22,0.6938680553896575
1494.22,3.947986001860045
1496.22,2.260581020174186
1498.22,16.724582246223008
1500.22,2.2425107412966554
1502.22,5.716958744291105
1504.21,-16.139883457035694
1506.21,-12.901462334394182
1508.2,-18.188762021033426
1510.19,10.710650291691536
1512.18,-7.538327110673663
1514.17,18.443573364670556
1516.16,13.3214162576553
1518.14,11.903204219636791
1520.13,12.425590606261267
1522.11,6.744353975095237
1524.09,-16.808460750085942
1526.07,5.4802179326218265
1528.05,-10.67646529435865
1530.03,5.148990421711005
1532.01,40.19367802468082
1533.98,28.932850722110516
1535.96,47.36563353213796
1537.93,54.25311578273045
1539.9,35.64215789664854
1541.87,41.91300770021962
1543.84,47.969773874967586
1545.81,23.76423274257536
1547.78,10.914873145088222
1549.74,32.6116556108293
1551.7,56.235057234599026
1553.67,102.16559384377842
1555.63,119.35524692633089
1557.59,119.66079532071399
1559.55,77.74857547721376
1561.5,69.71352743356601
1563.46,38.983955076284246
1565.41,46.0834292591353
1567.37,49.106976635898945
1569.32,49.76869706455864
1571.27,56.40176196387165
1573.22,65.62507933660936
1575.17,65.58138736422438
1577.11,63.79439562056632
1579.06,68.7878310475021
1581.0,64.65686488291635
1582.95,73.44906339823615
1584.89,84.2596243502453
1586.83,92.51708962337239
1588.77,103.26905787197325
1590.7,87.03932573404359
1592.64,74.87550523541267
1594.58,51.51568881297885
1596.51,23.41225719509157
1598.44,-7.101455575215368
