Raman Shift,Processed Intensity
331.095,65.38622537514175
333.909,23.459389460217153
336.721,34.68466591627066
339.531,71.7287279457787
342.339,84.2820713466408
345.145,115.6304496194125
347.949,110.15488050308977
350.751,92.42689060614475
353.55,127.11328384707622
356.348,136.0713860854471
359.144,120.63476594339409
361.937,156.8989556271399
364.729,172.86431460564427
367.518,208.29317900355227
370.306,255.04320147032104
373.091,333.0197386683999
375.874,394.74728638046463
378.656,431.41710509283575
381.435,411.2205598646178
384.212,332.77769829208273
386.988,203.18487609209524
389.761,107.72904935220504
392.532,47.12587630454982
395.301,45.56734290927352
398.068,59.959864628429386
400.833,80.87667391417426
403.596,57.65306483981067
406.358,24.0530663022696
409.117,-29.730551442081378
411.874,-40.60007976543193
414.629,-51.55286513271176
417.382,-52.91940105118101
420.133,-17.315710262312223
422.882,13.309029099232248
425.629,40.14866081570199
428.374,87.96860698200862
431.117,157.3439495747075
433.858,201.51655964002657
436.597,265.72841695809257
439.334,251.60254875477267
442.069,202.80968269923414
444.802,131.11585228245076
447.533,114.04904981475875
450.262,133.5658794234064
452.989,184.38487671677558
455.714,211.7483998771727
458.438,218.3749969440928
461.159,168.2689159546253
463.878,125.1486627029035
466.595,82.44698707098087
469.31,59.882297931136236
472.024,42.03007804817935
474.735,61.56096564841846
477.444,61.383597893393926
480.152,63.977934826808905
482.857,64.44286903574448
485.561,51.92478769282661
488.262,59.04613459839811
490.962,102.85778174649295
493.659,130.21997758084171
496.355,123.94520593526067
499.048,116.41723545023751
501.74,117.16254994189194
504.43,156.04082638998443
507.118,219.4354129259218
509.804,257.49142586838025
512.488,250.1157515208365
515.17,250.40561939767304
517.85,291.4105087836115
520.528,316.9416743407669
523.204,319.5245288585602
525.878,308.1605498131553
528.551,299.8987097364188
531.221,318.6926208705918
533.89,348.3052988705872
536.556,362.023450315799
539.221,336.08604593620066
541.883,319.1605128860606
544.544,335.10464130336686
547.203,353.10944325021046
549.86,370.4134402245909
552.515,410.9217125769883
555.168,436.5392346412182
557.819,435.5042098652875
560.469,412.3880726089142
563.116,383.61929946485543
565.761,377.29293486594725
568.405,405.1229738350012
571.047,424.10903044898896
573.687,412.25062535085044
576.324,348.8329018327122
578.96,302.09329430006073
581.594,279.41200625971624
584.227,293.50248830781356
586.857,284.74477326063106
589.485,257.6616684282826
592.112,242.8711383645964
594.737,223.89583047413407
597.359,243.78212442873246
599.98,298.33822920309785
602.599,337.80085153896334
605.216,360.83519774259
607.831,392.63021357750495
610.445,391.18430034772246
613.056,400.6862690761968
615.666,426.51534230232346
618.274,468.2411558794356
620.88,490.19518934373036
623.484,509.2802915212819
626.086,521.3992537541071
628.686,542.8357640785998
631.284,589.92107568969
633.881,634.653056357377
636.476,674.2676187956395
639.068,713.5244367456321
641.659,698.4688515350763
644.249,624.2890167328824
646.836,523.4111380418735
649.421,400.5947131915018
652.005,325.78967659247564
654.587,268.6125916104352
657.166,199.06093807772368
659.745,132.3226379003977
662.321,92.15700923666918
664.895,67.56143496105278
667.468,71.62850731899334
670.038,55.97460115291915
672.607,34.07320903305617
675.174,12.350181150152821
677.739,-3.244844315609953
680.303,-6.095582254279634
682.864,15.699950066666588
685.424,11.138959541890472
687.982,9.599593596525665
690.538,1.9361819661539812
693.092,-22.61599657051829
695.645,-6.916898854240571
698.195,42.221145812291525
700.744,38.7953439957987
703.291,39.94577430891604
705.836,36.86015215812108
708.38,15.107165920226862
710.921,18.969813118881575
713.461,34.82635564868906
715.999,8.816990797588915
718.535,11.748617507339077
721.069,14.142459776845044
723.602,39.662643334414724
726.133,77.87810681871406
728.662,74.78641772162587
731.189,47.05187404539879
733.714,43.91027262645707
736.238,34.64510603064082
738.759,33.730426115113914
741.279,41.640374256938
743.798,2.4682353911716746
746.314,-36.54974604627364
748.829,-22.89150255672962
751.342,-20.082470245217337
753.853,9.923461542358382
756.362,28.696331517743147
758.869,33.33010470499062
761.375,34.2521945046376
763.879,40.55679428169037
766.381,33.95725657265962
768.882,47.452758006879776
771.38,75.42353565640178
773.877,93.63088529063953
776.372,108.9790643929316
778.866,97.80100470090701
781.357,97.6202152230428
783.847,68.10316144569833
786.335,79.58307311158228
788.821,73.86946628393844
791.306,69.72433207738845
793.789,82.19546824592521
796.27,106.14028696137825
798.749,118.6067654490198
801.227,164.26201567079465
803.702,199.01133019902886
806.176,224.23627570918757
808.649,254.22326266310552
811.119,228.63973403983823
813.588,204.39130644746615
816.055,182.7646255206157
818.521,177.95117369893842
820.984,197.80917324367988
823.446,212.05406068282673
825.906,188.59181839910298
828.365,191.28087764654424
830.821,166.07497394801794
833.276,133.92790725465034
835.729,99.3649687719228
838.181,67.6734154047956
840.631,52.61675372664581
843.079,70.14902394820433
845.525,85.12908388648862
847.97,80.93965483850002
850.412,56.10636745492707
852.854,39.392998090032506
855.293,25.706228961073066
857.731,5.952789260093368
860.167,21.70612007524869
862.601,32.82542026451188
865.034,37.93183518651995
867.465,37.88464543142186
869.894,15.495550789820754
872.321,-6.899902921137937
874.747,2.6052934445069695
877.171,24.91818204475885
879.594,46.4220260770262
882.014,48.16678378113738
884.433,28.96434434711682
886.851,14.293287632485772
889.266,-10.796356120443079
891.68,8.602605813684477
894.092,24.302145503419297
896.503,47.4475824908659
898.912,66.0413900172723
901.319,73.1812869629091
903.724,72.2507107393194
906.128,91.44262351491261
908.53,110.1880803453164
910.931,130.91813063706672
913.329,132.5400053255853
915.726,113.86568500554108
918.122,79.18332520406784
920.516,49.25725308255028
922.908,24.232726043170942
925.298,18.207357002121853
927.687,22.469206329488998
930.074,25.830111884364896
932.459,37.57806666901456
934.843,45.33435838780224
937.225,33.196423291832616
939.605,29.11879526168036
941.984,33.770245366317795
944.361,34.29568332679651
946.736,40.792344694224084
949.11,35.547882789642244
951.482,23.230841596290702
953.853,3.033509604246319
956.222,8.529059369346896
958.589,16.004877548304876
960.954,34.12922857669514
963.318,54.04649063844181
965.68,59.09143925434728
968.041,47.26543563253222
970.4,52.1411864474444
972.757,25.67226552362854
975.113,30.097873614737182
977.467,25.94283627778077
979.819,9.779506509282328
982.17,2.513476905244943
984.519,23.81214896397637
986.866,34.24758910173273
989.212,71.62986111905934
991.556,91.14988247665269
993.899,101.8556139045545
996.24,118.1758680589644
998.579,108.8250705600019
1000.92,75.66040198185988
1003.25,53.0151303191401
1005.59,22.650991072242505
1007.92,5.66294828513378
1010.25,3.288717487874692
1012.58,-4.376947160974169
1014.91,-6.096536568797774
1017.24,0.6054537516647542
1019.56,19.633001771558384
1021.88,37.604274477714625
1024.2,55.899248230507965
1026.52,81.23114066073595
1028.84,80.40831875697268
1031.16,74.19144504816359
1033.48,79.3887190243106
1035.79,85.57016617620866
1038.1,123.97240322565494
1040.41,129.49864145090214
1042.72,112.1948804883034
1045.03,121.86895927680939
1047.33,118.42389271675529
1049.64,131.38168451911838
1051.94,158.26428291192178
1054.24,156.45072682282648
1056.54,156.36762539505958
1058.84,140.29868512238954
1061.13,126.47995126981209
1063.43,140.71885881805247
1065.72,145.96566436044077
1068.01,152.17059228550806
1070.3,165.7124095310071
1072.59,146.20795271888687
1074.87,159.84546481407847
1077.16,174.90840797375836
1079.44,197.39451449184412
1081.72,229.1586472673057
1084.0,280.76994598675924
1086.28,322.27373521182176
1088.56,381.0962896093215
1090.84,453.18769441960285
1093.11,548.6885154486413
1095.38,616.3583738220552
1097.65,626.2426159772158
1099.92,567.148507464881
1102.19,452.6928553222508
1104.46,383.15915425554795
1106.72,342.30711377497414
1108.98,316.65837580585503
1111.24,324.1631846807443
1113.5,367.20039046485294
1115.76,390.72030942434526
1118.02,440.33996544700767
1120.28,481.1526171772082
1122.53,476.82299943656744
1124.78,448.68256464463434
1127.03,412.06281947764796
1129.28,333.34294724158894
1131.53,270.52123976904
1133.77,231.6912912208054
1136.02,225.85152522086923
1138.26,207.5718648484958
1140.5,214.94611691604246
1142.74,210.59197529439166
1144.98,222.03197661933473
1147.22,219.64588456938827
1149.45,247.33735985789212
1151.69,261.72443974891917
1153.92,273.5204937636606
1156.15,272.86756033919437
1158.38,270.05063586819983
1160.61,229.35482088153253
1162.83,180.3034186117518
1165.06,127.37222403284181
1167.28,97.22762242373733
1169.5,87.86944983660783
1171.72,82.10718689847658
1173.94,82.32186689855553
1176.16,79.03750768510781
1178.37,40.444924514691365
1180.58,33.54459052044854
1182.8,12.384735275635876
1185.01,-28.17674711903669
1187.22,-34.47229470996376
1189.42,-40.54848264434122
1191.63,-32.11840259026894
1193.84,-3.371188771574225
1196.04,4.980356291919634
1198.24,7.22356112742591
1200.44,1.074446208548352
1202.64,-10.465143209208009
1204.84,6.701977433202728
1207.03,17.38737043990386
1209.23,22.497917966042223
1211.42,33.988193377945436
1213.61,23.717596258434014
1215.8,7.736058840702526
1217.99,21.331657204108296
1220.18,15.030603422336526
1222.36,31.597238502335813
1224.55,36.17688246610055
1226.73,31.81963833444911
1228.91,13.14705325366117
1231.09,21.494970098305657
1233.27,8.627807645500752
1235.44,51.59569923480103
1237.62,53.63925264312252
1239.79,51.76097751742668
1241.96,58.72528423597305
1244.13,68.62991134100048
1246.3,88.23925773331621
1248.47,141.98438153355073
1250.64,163.2487132291301
1252.8,186.70138786886832
1254.96,238.05914868613104
1257.13,312.8958697696164
1259.29,396.83303111509076
1261.44,478.2540032009306
1263.6,517.5897601350953
1265.76,524.176021373532
1267.91,514.3961077242932
1270.06,489.8237973516498
1272.22,440.5090389230668
1274.37,400.3589028514125
1276.51,338.6137706324041
1278.66,297.22828608681925
1280.81,273.5380208884219
1282.95,257.11661628236857
1285.09,225.01387718456863
1287.23,213.75577104294075
1289.37,207.20156955581956
1291.51,235.82956181892337
1293.65,275.16562461518924
1295.78,290.354649847465
1297.92,280.25578149500507
1300.05,256.490033522354
1302.18,224.20219350251432
1304.31,208.20367862106946
1306.44,227.8296773945956
1308.57,240.748672341447
1310.69,249.4386293192174
1312.82,235.8536630526678
1314.94,237.3764169473725
1317.06,203.00853814145557
1319.18,215.03734303352394
1321.3,240.7977209058356
1323.41,258.5292756427016
1325.53,289.0906103060406
1327.64,318.8164688537772
1329.75,318.279639763015
1331.87,322.7195263198728
1333.98,293.756431195038
1336.08,288.43917435265234
1338.19,277.4831871496797
1340.3,230.8419397686041
1342.4,225.56408293583945
1344.5,207.7458277353819
1346.6,178.14999208912582
1348.7,180.25361866574917
1350.8,153.34321183721818
1352.9,98.18140320672228
1354.99,89.62599808899108
1357.09,95.10616484775187
1359.18,120.76529089985434
1361.27,154.03241014796617
1363.36,175.14601136564352
1365.45,166.86832277288227
1367.54,144.24721565928576
1369.62,131.80667943580943
1371.7,147.21348716269586
1373.79,190.46767060121078
1375.87,220.56918574157658
1377.95,234.75600690232886
1380.03,233.4565065439624
1382.1,226.14659698734
1384.18,203.96877689400003
1386.25,181.4940348893249
1388.33,143.43613413809135
1390.4,112.98494453906028
1392.47,90.85406063385904
1394.54,65.56651475394892
1396.6,11.073823500928029
1398.67,-2.482108630306584
1400.74,23.27862865731504
1402.8,44.45014197854107
1404.86,55.79311498758989
1406.92,33.97290580266872
1408.98,-17.202355569501606
1411.04,-28.305574571070792
1413.09,-1.0049721743584996
1415.15,23.174014085178896
1417.2,61.134444934559724
1419.25,80.4459750334363
1421.3,85.440093882474
1423.35,101.40060482696686
1425.4,107.42077072712186
1427.45,117.06998343786245
1429.49,119.44138566958509
1431.54,110.24711189653408
1433.58,104.43733878898479
1435.62,88.96219278828084
1437.66,48.05746720568732
1439.7,62.673196464095554
1441.74,62.902230339730295
1443.77,61.17071296576137
1445.81,79.47618088353875
1447.84,86.19708966525582
1449.87,86.75948339375645
1451.9,115.35128318995862
1453.93,111.44609954980979
1455.96,107.42228277647382
1457.98,118.22959246014238
1460.01,164.15110505308257
1462.03,200.4698833494415
1464.05,221.5165983460049
1466.07,240.4790558648533
1468.09,267.6879136522116
1470.11,325.3309699058718
1472.13,412.97697561213454
1474.14,524.0042087875154
1476.16,625.2195249109257
1478.17,698.1916930701445
1480.18,775.5847321082877
1482.19,758.2055324845649
1484.2,679.7181448016968
1486.21,606.2152111904754
1488.21,498.9798728847977
1490.22,361.58101113003613
1492.22,296.3970595199787
1494.22,204.61600680996253
1496.22,142.0449235395315
1498.22,113.7290124646222
1500.22,88.71351613260026
1502.22,29.805624457303793
1504.21,15.479239436935814
1506.21,-2.1726410804192255
1508.2,-19.05696820270714
1510.19,9.919360819230633
1512.18,25.51617184892598
1514.17,23.112395398830813
1516.16,29.610830110766756
1518.14,9.009572903039498
1520.13,-6.121788977682854
1522.11,-3.404081142590485
1524.09,-11.74377767893543
1526.07,-2.809189777486381
1528.05,17.874297673461115
1530.03,32.01946446901002
1532.01,27.291540801513293
1533.98,8.68915964109351
1535.96,-9.646119455268035
1537.93,-7.096477010829858
1539.9,-3.615452677143594
1541.87,16.748244250415837
1543.84,22.612637877164616
1545.81,42.11962648157805
1547.78,46.50640900204348
1549.74,46.534054380756515
1551.7,53.439880431426445
1553.67,83.31840413555028
1555.63,93.93086336725673
1557.59,107.27664338005457
1559.55,104.68851281739671
1561.5,81.73738353276053
1563.46,104.23230850497089
1565.41,127.1728607059049
1567.37,108.93960720628866
1569.32,91.29410709101967
1571.27,67.23605223163327
1573.22,53.146122344481455
1575.17,79.54788766796423
1577.11,97.39352116356258
1579.06,85.63522500259046
1581.0,64.41570467199199
1582.95,49.02054784204506
1584.89,23.640127043588564
1586.83,14.702930916676678
1588.77,9.970800221138234
1590.7,-3.699169486195615
1592.64,-8.8784394599802
1594.58,4.76630348229628
1596.51,21.258858789035912
1598.44,33.59922310176762
