Raman Shift,Processed Intensity
331.095,73.68482967067303
333.909,6.342388503166603
336.721,-0.5352952085672769
339.531,31.885119235778348
342.339,71.62746346093263
345.145,129.85844833539886
347.949,153.00671895746473
350.751,122.88190964121668
353.55,112.7698893787433
356.348,86.670864445201
359.144,100.01367148007148
361.937,153.5605467588939
364.729,206.26427641737837
367.518,248.26820381839207
370.306,288.43004644273924
373.091,334.5599984942369
375.874,426.51597636193856
378.656,503.2512450347358
381.435,467.6715683254811
384.212,391.30188290465094
386.988,264.57201995303467
389.761,170.5786172906237
392.532,75.22798388644696
395.301,26.188488177943782
398.068,-16.585625038253966
400.833,-5.092322477422385
403.596,28.242034524042083
406.358,35.32460041375816
409.117,-8.270616121111289
411.874,-34.921794650713764
414.629,-66.7212026422153
417.382,-54.76090547989406
420.133,-23.799432645449997
422.882,3.9763104003422995
425.629,47.99864800077239
428.374,57.08102324815491
431.117,110.46560162415926
433.858,169.6327794020376
436.597,229.3964063345652
439.334,234.14186548483622
442.069,202.73081972372756
444.802,133.50119632260612
447.533,137.36240964126773
450.262,140.0810600063537
452.989,182.99520401833843
455.714,214.58576771565413
458.438,211.00034069120784
461.159,188.62458925651936
463.878,143.89176484395557
466.595,68.75887907562856
469.31,24.23049787990749
472.024,33.07301179840715
474.735,40.957477721550276
477.444,56.60246318191275
480.152,68.53594172175826
482.857,94.85719250131115
485.561,134.47489612191475
488.262,153.7261828301439
490.962,159.04329976953386
493.659,142.81075442278143
496.355,116.07960091109226
499.048,122.90077391257546
501.74,144.99175591397807
504.43,136.16514922431088
507.118,141.2810575123017
509.804,165.48518162954224
512.488,214.06596305269068
515.17,305.16887018282796
517.85,356.9392560733736
520.528,385.189025681826
523.204,352.87282693101224
525.878,326.7547179608209
528.551,302.2176915227851
531.221,324.12081842229463
533.89,303.46591477032416
536.556,316.4927806637452
539.221,330.6792007703989
541.883,340.45523062845314
544.544,330.2031972314662
547.203,343.4481758039342
549.86,363.7151332435028
552.515,393.81464299175104
555.168,432.4619332383104
557.819,431.8483160773735
560.469,414.78404523561585
563.116,399.9840309429901
565.761,410.2106976606592
568.405,414.75017514226374
571.047,401.9361085427995
573.687,360.3401351941766
576.324,335.009980428385
578.96,311.08850578162446
581.594,301.9565667222346
584.227,313.8520608548174
586.857,292.6794523148351
589.485,267.0573914013071
592.112,273.03300087617663
594.737,271.4152098827185
597.359,279.7271354829977
599.98,319.7775118143818
602.599,348.47021448413625
605.216,395.8042611544997
607.831,418.9214311753767
610.445,437.10626616940954
613.056,419.30988014086824
615.666,418.9118648226204
618.274,458.1012426421662
620.88,490.2098006400397
623.484,512.0930434358279
626.086,572.5111461942038
628.686,623.2718123528534
631.284,649.7064646837371
633.881,717.8131030210166
636.476,727.0658286556436
639.068,728.2243687299529
641.659,704.7150292036822
644.249,654.6306954390343
646.836,537.9213089762238
649.421,464.6319633566254
652.005,383.28385708878614
654.587,323.9219132810981
657.166,255.21001832208776
659.745,183.14530817975583
662.321,103.58197851043587
664.895,58.89795191051053
667.468,33.37583088241945
670.038,25.917184133993487
672.607,44.280642401598016
675.174,39.22475952794912
677.739,35.22230473539548
680.303,25.507888232541973
682.864,9.79225348753289
685.424,18.92895045372643
687.982,25.581011351342568
690.538,22.220960785266016
693.092,12.654637293003361
695.645,-6.9787946311780615
698.195,-20.77826108353156
700.744,-26.033146401481645
703.291,-25.366137729446336
705.836,-15.542738450855722
708.38,7.957310845489246
710.921,34.08289442030036
713.461,44.78295324531041
715.999,24.911250997236266
718.535,31.464473385079373
721.069,13.486994144090431
723.602,-6.833882779788155
726.133,-16.977442950239265
728.662,-1.3276525894643783
731.189,2.8744638632256283
733.714,14.48320634491165
736.238,29.4005816289623
738.759,16.576304832547976
741.279,28.150658067012046
743.798,38.073539564430575
746.314,33.43779851845579
748.829,8.57447468706232
751.342,-5.947200099939209
753.853,-15.224562338155692
756.362,3.4546751350867453
758.869,11.802900240737927
761.375,12.86593434868837
763.879,41.68969830176661
766.381,47.93925939212113
768.882,73.51787833759613
771.38,83.1384372104892
773.877,74.79962927107158
776.372,36.02405356301142
778.866,38.66773808023186
781.357,42.58680579090196
783.847,79.54223589952812
786.335,98.86652987094726
788.821,108.89228221622466
791.306,116.90456080236595
793.789,115.37900144773607
796.27,120.50561680320493
798.749,134.04593856662063
801.227,166.28539779252515
803.702,197.60475282091352
806.176,249.86104101552678
808.649,260.5304352640471
811.119,256.4225290497259
813.588,245.10890723729608
816.055,241.25647876364064
818.521,227.9608093284687
820.984,222.26993027546473
823.446,208.94624271153884
825.906,171.3712787689326
828.365,136.4980819149423
830.821,100.37501583307676
833.276,108.14576378041033
835.729,112.95408984969572
838.181,132.46764785053188
840.631,117.16369495244021
843.079,114.1386148517472
845.525,106.34601236703793
847.97,118.40623660603956
850.412,106.2730469896469
852.854,103.13837451404743
855.293,67.57517825094055
857.731,57.96601613347252
860.167,53.83637764693549
862.601,39.61658794803952
865.034,4.784664365130766
867.465,-3.6574937682480595
869.894,-24.565058136951393
872.321,4.397346960756977
874.747,29.660405504992468
877.171,62.178677599712046
879.594,44.04964394863964
882.014,35.180369378817886
884.433,0.9541663641541618
886.851,33.94487759659046
889.266,69.72639665250153
891.68,108.34885542188886
894.092,111.05290677566245
896.503,113.74591199483052
898.912,105.04955677111889
901.319,116.87127673139821
903.724,142.5471115335431
906.128,149.74646372419602
908.53,143.567333787003
910.931,123.9648885241902
913.329,90.56098181908692
915.726,72.45367539865424
918.122,88.45533102458103
920.516,119.94975030342425
922.908,133.51121925865777
925.298,120.71402909319704
927.687,65.18009219001738
930.074,54.05512954134542
932.459,49.199143892131815
934.843,79.51975002638324
937.225,103.21026695824935
939.605,103.84495298025831
941.984,93.37900261630512
944.361,92.0533054794123
946.736,83.63253846281782
949.11,89.21468650249267
951.482,94.94532524441547
953.853,79.1128560928048
956.222,80.76755078215479
958.589,79.81678642546763
960.954,103.35837580057682
963.318,98.91865954123182
965.68,81.97631261389847
968.041,73.39091269931555
970.4,53.97436571690969
972.757,42.681378968255785
975.113,41.56183904244108
977.467,27.665570673809725
979.819,-1.4338567812428664
982.17,-8.686751438905503
984.519,-10.47206383972707
986.866,-15.121199668170902
989.212,-4.775166718119635
991.556,30.567800846237333
993.899,28.86175947713241
996.24,48.489239395642244
998.579,72.45171345838935
1000.92,69.32197078615309
1003.25,75.81553801152404
1005.59,71.0287671932249
1007.92,31.676923730432463
1010.25,19.37989332472148
1012.58,11.32884132295385
1014.91,-4.2376009452368635
1017.24,-2.1761954591654558
1019.56,20.70375866689733
1021.88,40.06899519041849
1024.2,68.63370765781929
1026.52,98.96907369696146
1028.84,99.40802142595521
1031.16,118.90237681434655
1033.48,115.88001104430464
1035.79,98.6257973956192
1038.1,80.99590146403511
1040.41,92.22730947481091
1042.72,89.93783278676551
1045.03,114.22135049156077
1047.33,117.98114725107621
1049.64,113.40610827764158
1051.94,129.97072383808177
1054.24,166.53033185299591
1056.54,168.79731287699315
1058.84,167.769666031302
1061.13,163.25482303162562
1063.43,134.8220336445661
1065.72,144.27856066785967
1068.01,158.19349395822383
1070.3,185.99299303064117
1072.59,189.96029156239842
1074.87,185.52141618284304
1077.16,180.1499528821846
1079.44,185.74800389649067
1081.72,222.21762078316056
1084.0,274.2703327344948
1086.28,325.189055843641
1088.56,419.2090499895878
1090.84,533.6131614364456
1093.11,600.5889701946242
1095.38,640.1811754772516
1097.65,591.815409728028
1099.92,522.8696716966899
1102.19,459.05528332401377
1104.46,394.9407037696642
1106.72,339.856295821005
1108.98,346.2752827781021
1111.24,360.8613720053877
1113.5,401.2306641976204
1115.76,468.66594359822057
1118.02,466.6881110747486
1120.28,470.86571243248864
1122.53,489.38637148992734
1124.78,478.4853660113854
1127.03,445.3503941158292
1129.28,431.50253116187673
1131.53,338.0819485375662
1133.77,266.51458483107126
1136.02,224.70262652522933
1138.26,218.35784583492864
1140.5,207.38255759211143
1142.74,226.2981951783961
1144.98,238.05483883864804
1147.22,260.4121725659843
1149.45,272.36806003439597
1151.69,281.92045386470636
1153.92,289.68644774767085
1156.15,289.0451380908862
1158.38,275.04239042760514
1160.61,253.34322487316558
1162.83,198.2794396766617
1165.06,138.70675858213986
1167.28,132.3857877135997
1169.5,90.02963912666428
1171.72,68.06584007453512
1173.94,69.01728989299045
1176.16,52.54988355205455
1178.37,34.853468540999074
1180.58,29.498992229540136
1182.8,-17.46625553287049
1185.01,-40.566256960614055
1187.22,-17.84864278023315
1189.42,-13.027546727620347
1191.63,4.183059294635314
1193.84,2.7360281629480596
1196.04,-10.034681847183265
1198.24,-9.366392678719421
1200.44,14.122765313331001
1202.64,7.290990783870711
1204.84,5.806138316116176
1207.03,-9.187619902656252
1209.23,-14.117417376782441
1211.42,2.7802078045288
1213.61,25.792641685077797
1215.8,18.112140720127172
1217.99,12.692968816378198
1220.18,4.584724848133419
1222.36,-1.1152803911058982
1224.55,-8.64297928609244
1226.73,-5.519930598687097
1228.91,6.875249598816708
1231.09,26.64021798941235
1233.27,60.34890016765212
1235.44,74.67053511950189
1237.62,62.322053035526324
1239.79,30.49664360026577
1241.96,47.72089571018773
1244.13,71.37860385829663
1246.3,118.6631459473183
1248.47,162.14890872192586
1250.64,173.36271320096944
1252.8,196.64095439541825
1254.96,261.27245531201993
1257.13,338.7841780998117
1259.29,424.6078875775879
1261.44,532.2706242851782
1263.6,579.1089870585365
1265.76,613.0786537000627
1267.91,605.6591397441664
1270.06,561.7585572228352
1272.22,483.1421829550052
1274.37,447.6705506454641
1276.51,402.53754298374906
1278.66,356.07991231446886
1280.81,305.6820394028696
1282.95,250.252120771828
1285.09,214.1745465150325
1287.23,238.40513525302458
1289.37,255.42351194637308
1291.51,275.99500951838513
1293.65,272.6468561920833
1295.78,271.43007711292034
1297.92,269.72901501909814
1300.05,273.07085091189606
1302.18,251.41131520218278
1304.31,249.7061131426483
1306.44,247.81568359336939
1308.57,255.6480530254703
1310.69,260.9207371438267
1312.82,260.4464520335787
1314.94,278.2283491161686
1317.06,284.31715486727785
1319.18,305.85878672525064
1321.3,297.189588047127
1323.41,274.64584877897073
1325.53,252.56380231666662
1327.64,253.08914617624828
1329.75,262.46275314041304
1331.87,323.1159062145646
1333.98,348.14648596380584
1336.08,335.6999197546977
1338.19,313.0644167113046
1340.3,260.575726480761
1342.4,236.42665990360365
1344.5,215.23851444600928
1346.6,177.82297582250885
1348.7,140.13449580917563
1350.8,108.79409862824309
1352.9,60.327473047013655
1354.99,60.403064476766986
1357.09,58.070167071669175
1359.18,70.42558725625281
1361.27,84.99459296718555
1363.36,75.63567241884516
1365.45,78.01672144032773
1367.54,89.18646890768628
1369.62,126.1459021761732
1371.7,151.7054067981985
1373.79,163.9609538603379
1375.87,170.24647779652946
1377.95,206.18149229651135
1380.03,215.05203954759327
1382.1,230.62021090499343
1384.18,200.12414375265985
1386.25,153.5161136021809
1388.33,124.79586428693756
1390.4,91.0582238705399
1392.47,71.06453007907726
1394.54,49.62357954288973
1396.6,21.4963865621512
1398.67,-0.27048669897612854
1400.74,9.988399981813473
1402.8,7.604983001596338
1404.86,7.815789210631237
1406.92,9.285745517714986
1408.98,19.48913214714935
1411.04,-2.1475585274370133
1413.09,12.373428291436312
1415.15,31.287781136736385
1417.2,38.4024600288476
1419.25,46.809987881737925
1421.3,51.317027623410695
1423.35,30.777721221112643
1425.4,63.855600135114855
1427.45,70.64263862964071
1429.49,66.65925946474454
1431.54,45.568625302473265
1433.58,33.367120589220804
1435.62,36.71769058093787
1437.66,66.56889465405766
1439.7,51.34538818784608
1441.74,52.04316635152236
1443.77,41.03909360565763
1445.81,46.23376653691162
1447.84,61.19437669276863
1449.87,64.82138294008269
1451.9,55.2056600140977
1453.93,60.6285042103234
1455.96,65.13306764783988
1457.98,81.23864967545637
1460.01,106.89308351597197
1462.03,149.2346467199552
1464.05,181.2111144766668
1466.07,240.00833673451007
1468.09,306.9073867500481
1470.11,398.66551916083336
1472.13,500.2780804391937
1474.14,611.0261336317244
1476.16,691.571702146412
1478.17,764.7196802064118
1480.18,786.1797433038332
1482.19,808.9473062725679
1484.2,770.1606718373112
1486.21,695.6724648768618
1488.21,585.2401143064787
1490.22,477.09728734118085
1492.22,362.90627614000664
1494.22,260.94847968836234
1496.22,161.74345710894818
1498.22,70.57274287744144
1500.22,50.2417572762763
1502.22,45.984573991282105
1504.21,43.654401994037016
1506.21,9.961686471845269
1508.2,21.14078118628595
1510.19,-1.9071886920503403
1512.18,-0.13813041549360605
1514.17,-10.4602160626564
1516.16,-18.543400849057434
1518.14,-35.628941451674336
1520.13,-7.100820167473103
1522.11,12.847590908700795
1524.09,15.070671434438054
1526.07,6.327693646500393
1528.05,4.3304393780292685
1530.03,-16.256801971867844
1532.01,-3.5315211828146857
1533.98,4.313675856355303
1535.96,12.229160109433906
1537.93,-2.7393432886315168
1539.9,11.501622718247518
1541.87,20.71229152395017
1543.84,49.79585985697986
1545.81,49.36991287254159
1547.78,44.24261114938008
1549.74,47.88887768661425
1551.7,67.35515632914553
1553.67,89.44988447877927
1555.63,83.88634675773301
1557.59,65.23505248166316
1559.55,56.49516075174529
1561.5,67.18971507056222
1563.46,94.79421129132515
1565.41,117.40326080518912
1567.37,104.3496346809477
1569.32,97.87092685234416
1571.27,112.63336016252879
1573.22,126.7794019323253
1575.17,109.54680809992601
1577.11,69.41147688439514
1579.06,31.84935006821911
1581.0,21.907838089384313
1582.95,36.34867370488246
1584.89,69.79076565421792
1586.83,63.8530523229133
1588.77,36.67830778696657
1590.7,30.552185952543596
1592.64,7.04607421948208
1594.58,-8.506719521874402
1596.51,-0.7728751319323237
1598.44,44.24760296546037
