Raman Shift,Processed Intensity
331.095,79.89709465226679
333.909,43.26100799080541
336.721,51.17946802759161
339.531,81.48581608349332
342.339,92.70388564491213
345.145,118.59562939893885
347.949,136.16112722087155
350.751,121.06716559031247
353.55,137.98057891202552
356.348,128.6158765510845
359.144,141.30667939183058
361.937,166.43429925396367
364.729,183.18965164198698
367.518,216.6685018279727
370.306,295.6333776010074
373.091,392.22786296900676
375.874,493.4051775748362
378.656,541.451994207664
381.435,512.3217801238311
384.212,435.8252812248734
386.988,324.6781490926792
389.761,193.50094897702274
392.532,73.86678683072932
395.301,20.53941253531093
398.068,8.997037412322697
400.833,0.47996125852205296
403.596,-3.6284672856254474
406.358,-9.039937086436112
409.117,-31.98973700926217
411.874,-38.379604495981766
414.629,-36.92057507565414
417.382,-38.99012101884273
420.133,-49.72738939211513
422.882,-19.557015541552573
425.629,-10.712940821789743
428.374,24.618716537892396
431.117,80.9663123049454
433.858,133.19170694592822
436.597,139.3950106145894
439.334,146.0098043304315
442.069,116.23169449059833
444.802,91.87543881033571
447.533,72.3273103586971
450.262,56.21174730852772
452.989,93.67705030549132
455.714,135.10965126568
458.438,175.8483821732134
461.159,180.85112483021885
463.878,153.5995558449108
466.595,82.71817733394619
469.31,57.5457285771713
472.024,30.658978624743213
474.735,31.444137951862103
477.444,62.38255582780221
480.152,84.28880179653333
482.857,110.31065516678882
485.561,95.1671897402125
488.262,77.19638234904096
490.962,61.83129282234813
493.659,61.12386299991476
496.355,74.3163347937134
499.048,87.93648398768073
501.74,77.46428878078314
504.43,80.71288404436882
507.118,101.25713462713611
509.804,144.86220866010262
512.488,221.62643657586887
515.17,268.93369393739295
517.85,307.54864140962945
520.528,330.7595837787885
523.204,332.99751944777745
525.878,310.2170946935489
528.551,294.4680341149301
531.221,306.8475234613966
533.89,305.45259246183923
536.556,351.7134500342909
539.221,338.7268194956464
541.883,302.11308329519306
544.544,286.1591420338582
547.203,307.3422258644068
549.86,317.23465827259815
552.515,368.0276674773895
555.168,369.48376925970297
557.819,376.60343550547805
560.469,385.19652465348327
563.116,416.78704547646475
565.761,428.13696848134396
568.405,431.7700373094135
571.047,412.5908182317812
573.687,382.12279726384986
576.324,349.4131439464668
578.96,327.9850941746922
581.594,306.5522377884813
584.227,240.7804252109754
586.857,215.85919789633317
589.485,205.5494092537465
592.112,238.80227414289402
594.737,262.61651360747965
597.359,289.37169008496585
599.98,280.92344737820713
602.599,284.7939887223233
605.216,308.4577929468105
607.831,359.96066397098593
610.445,402.5387802994296
613.056,443.14250642219304
615.666,497.484013738816
618.274,499.1325205299695
620.88,535.3238176433797
623.484,577.3412227511812
626.086,627.3727250834618
628.686,652.6062253999053
631.284,708.2295378661947
633.881,724.9542014542262
636.476,744.5392913423207
639.068,737.6485636487705
641.659,710.1837906415767
644.249,622.475238805328
646.836,534.1864326223686
649.421,440.790346925397
652.005,359.5217897262578
654.587,280.32978504472794
657.166,248.7347176420799
659.745,182.78071584987765
662.321,135.98803439876838
664.895,99.06734200919209
667.468,69.53877088684067
670.038,39.493823360979604
672.607,35.26204042753807
675.174,-19.35090113637625
677.739,-32.7774686473349
680.303,-14.116835555041234
682.864,6.341316305009059
685.424,19.735847949164963
687.982,47.015117723402454
690.538,23.31793644051595
693.092,4.592619757668217
695.645,2.596992934901664
698.195,1.8507788834249368
700.744,-1.4596323608193416
703.291,26.80453848483694
705.836,36.92494416684849
708.38,41.421356866809674
710.921,32.09929512519784
713.461,19.383365050829525
715.999,19.745839625552662
718.535,12.468571342272753
721.069,4.643000081071477
723.602,-9.734600919434115
726.133,-2.382164805012053
728.662,8.030081997424759
731.189,27.451055696428966
733.714,23.067869859745997
736.238,11.924890138043793
738.759,0.39993184578520413
741.279,10.013790875429777
743.798,-3.093558721693398
746.314,-6.59152905927408
748.829,1.1839458315189404
751.342,3.0875596541843606
753.853,-4.93059811623516
756.362,-15.110750386751533
758.869,-31.07390250479193
761.375,-41.964693762274464
763.879,-4.2132980544279235
766.381,23.369338890297968
768.882,35.35340069036238
771.38,43.73781577697878
773.877,58.521682383767484
776.372,60.03759829831597
778.866,75.80880013755336
781.357,55.73963595645296
783.847,54.82984738055279
786.335,48.6031374527613
788.821,83.15478609920228
791.306,117.05640845221319
793.789,124.73690364953018
796.27,109.95864172871711
798.749,126.48412671206302
801.227,148.79027873910422
803.702,193.49700191342504
806.176,224.17670453041274
808.649,241.30667644787263
811.119,235.4119426471143
813.588,239.35097393689512
816.055,243.79187384784723
818.521,221.54570838404516
820.984,204.18555006028805
823.446,193.66552193938446
825.906,171.6541273837181
828.365,156.867579806815
830.821,146.1174181391957
833.276,125.12002705613963
835.729,113.16330006258954
838.181,95.20187400662621
840.631,59.85712549770574
843.079,66.89335780107763
845.525,64.97970201792191
847.97,79.69011350358437
850.412,71.50336828580521
852.854,73.9459166258157
855.293,57.5918794365698
857.731,77.0630447009778
860.167,71.69553055681013
862.601,53.492162667311504
865.034,22.931994448960722
867.465,32.77982729922792
869.894,54.13382606243067
872.321,52.80646782892177
874.747,44.75310978189668
877.171,43.071985615633366
879.594,45.81372576324952
882.014,30.933734767324268
884.433,18.673140079087943
886.851,7.654026571902477
889.266,18.831813911879863
891.68,41.4952529761199
894.092,81.36166113418653
896.503,118.19596705338745
898.912,110.66785074215272
901.319,141.7803121648417
903.724,133.48871604702458
906.128,101.27221763313923
908.53,114.22899796796287
910.931,120.79054679712885
913.329,96.91213594383657
915.726,96.07281649508445
918.122,86.60874932123988
920.516,86.80844035751261
922.908,101.48416636161778
925.298,80.5910197190608
927.687,67.70309610556637
930.074,35.346825006648714
932.459,21.572395475276153
934.843,17.28708665144245
937.225,38.20764590078511
939.605,55.76504790558374
941.984,91.15211089861828
944.361,94.99016051606918
946.736,68.66236031708854
949.11,42.74228039860759
951.482,38.27960886728806
953.853,35.32395854957031
956.222,29.305816558860215
958.589,2.227017672243619
960.954,4.089312945289521
963.318,31.98960499352461
965.68,39.4532787396347
968.041,68.19610400612896
970.4,77.21947144133833
972.757,54.524676064466576
975.113,60.065296048730715
977.467,50.22338102831418
979.819,10.523735643414739
982.17,9.872012609105468
984.519,22.649948641328365
986.866,28.524887162555387
989.212,44.687873436912014
991.556,53.282225895780584
993.899,50.35591698721373
996.24,38.33776354916017
998.579,31.7993314684054
1000.92,18.45493557760892
1003.25,7.399734790439197
1005.59,26.06211295098774
1007.92,-3.1296527491219877
1010.25,-13.652151168262435
1012.58,-8.505882326607662
1014.91,-3.405731415261698
1017.24,19.695222414782165
1019.56,52.22475351215553
1021.88,41.086727305402974
1024.2,49.13729224631766
1026.52,35.422976515175606
1028.84,18.180689487879135
1031.16,38.123437488818354
1033.48,48.67842049611477
1035.79,78.6537021148174
1038.1,127.9524985977173
1040.41,139.62080119949337
1042.72,136.32356995942973
1045.03,132.48759415079348
1047.33,124.7776860635463
1049.64,136.81097002515503
1051.94,177.53783808806747
1054.24,192.24195333623834
1056.54,186.20691985831786
1058.84,173.66866700655737
1061.13,172.29164317952927
1063.43,155.3592953191271
1065.72,153.53597697899977
1068.01,166.15266591679415
1070.3,156.96887216258483
1072.59,190.41073656349135
1074.87,217.38055789972827
1077.16,211.97108190541053
1079.44,229.13217124174707
1081.72,243.1946183273758
1084.0,264.29872007345966
1086.28,317.06094785688083
1088.56,402.7168079696264
1090.84,509.7398925443558
1093.11,628.9847400037875
1095.38,667.9249336053119
1097.65,646.0816761760834
1099.92,551.8333172290597
1102.19,463.89154674571637
1104.46,406.30139848256385
1106.72,388.29839613481454
1108.98,345.8323661667125
1111.24,354.09125064186856
1113.5,384.4058724345448
1115.76,434.86898615522364
1118.02,482.85909098094044
1120.28,547.6594815808505
1122.53,507.31539427989173
1124.78,497.8721056033992
1127.03,446.0892212979095
1129.28,368.34544154244804
1131.53,305.6861833026644
1133.77,272.8712026849753
1136.02,235.1365030049899
1138.26,246.19433809402835
1140.5,248.18559655802255
1142.74,244.9179003221334
1144.98,285.4846555563206
1147.22,282.36029407710475
1149.45,305.20980046361524
1151.69,298.93633441172483
1153.92,292.9669483262917
1156.15,263.10973348482435
1158.38,269.5538233440059
1160.61,215.86939684621757
1162.83,169.62672934510624
1165.06,131.49143400734465
1167.28,118.93875083343914
1169.5,79.63450234520178
1171.72,91.91128736846531
1173.94,91.53038910150622
1176.16,73.25320699299618
1178.37,59.60316481042764
1180.58,49.913332994249686
1182.8,20.945479583437873
1185.01,24.175787807726238
1187.22,30.366287965561696
1189.42,22.041053302078808
1191.63,-11.942366017685345
1193.84,-26.821508935577413
1196.04,-27.976617146163335
1198.24,-22.16872619127298
1200.44,-12.872997543416659
1202.64,12.102232001318498
1204.84,-12.24169668172226
1207.03,-9.427103885282122
1209.23,-1.3571182062721618
1211.42,-7.077586877416707
1213.61,-12.158034707745173
1215.8,2.403567312410587
1217.99,-1.9620625724332967
1220.18,14.985426773718928
1222.36,20.343629949620208
1224.55,46.543566812692234
1226.73,46.54015150605551
1228.91,38.7645682902853
1231.09,47.64807594659442
1233.27,41.81247884668528
1235.44,20.8320265940215
1237.62,33.18578985557724
1239.79,41.82908381263269
1241.96,40.57441752035447
1244.13,85.99625279118982
1246.3,128.05004879254307
1248.47,157.5960685492173
1250.64,212.3517568744278
1252.8,270.08221353890644
1254.96,317.8382854876229
1257.13,392.43275429459914
1259.29,446.91652361773004
1261.44,493.1024257012175
1263.6,549.5175993065766
1265.76,598.1177724055487
1267.91,589.7634496349165
1270.06,591.3627664179869
1272.22,519.9191049908413
1274.37,445.43585328572385
1276.51,384.6306876239587
1278.66,342.3641411231524
1280.81,295.59198162820826
1282.95,297.55568488042604
1285.09,274.4967172104159
1287.23,267.9898658500456
1289.37,259.0384740063039
1291.51,256.31253307801603
1293.65,262.29153677732097
1295.78,284.5501923940085
1297.92,297.85365586937655
1300.05,303.7289573462856
1302.18,288.036426719211
1304.31,281.2077858509642
1306.44,258.0556693608462
1308.57,225.82124065089124
1310.69,238.5075222178241
1312.82,223.92701167930772
1314.94,238.8921549430504
1317.06,257.92962889972046
1319.18,269.23271935395564
1321.3,273.7565560982314
1323.41,299.122871796249
1325.53,275.66761800918334
1327.64,290.4885812219286
1329.75,293.35014172648675
1331.87,314.73088964821864
1333.98,335.5379076387542
1336.08,325.53533928319894
1338.19,300.8205765549492
1340.3,265.20520917527733
1342.4,243.26264063957342
1344.5,211.18522805312182
1346.6,184.92713625258125
1348.7,153.5852871655684
1350.8,116.82792821785551
1352.9,73.5612959786697
1354.99,63.786755996468855
1357.09,40.83889501567228
1359.18,66.62361319339107
1361.27,79.18954964949285
1363.36,100.3947502121855
1365.45,131.09714468741095
1367.54,176.2497860330002
1369.62,190.94847048520796
1371.7,208.66983387572645
1373.79,197.4618289010789
1375.87,197.94372620153536
1377.95,220.44897258288233
1380.03,244.1204301905791
1382.1,235.3865680648621
1384.18,199.58051083870828
1386.25,160.08289695961025
1388.33,133.5123559589681
1390.4,88.63027143576505
1392.47,39.86459165929091
1394.54,-0.6425503043278695
1396.6,-33.93959741797562
1398.67,-22.503662832728878
1400.74,13.09280445675222
1402.8,28.22963590768518
1404.86,24.143700134225128
1406.92,-2.356815234036958
1408.98,-11.082880772819408
1411.04,2.7258523269690613
1413.09,17.353434364044006
1415.15,36.98856948248317
1417.2,45.10556831053282
1419.25,18.79768331067112
1421.3,32.158063177302665
1423.35,54.70832628206358
1425.4,67.0652312533341
1427.45,84.60734755574845
1429.49,103.61791654589865
1431.54,93.23723633756344
1433.58,80.74838000026716
1435.62,77.05338994832096
1437.66,51.48280566319272
1439.7,44.700429511118045
1441.74,29.750949703568267
1443.77,35.964706114861656
1445.81,30.9576941950088
1447.84,40.86966412065544
1449.87,38.88793423173365
1451.9,49.91406161097507
1453.93,59.8495602824712
1455.96,85.35780988642887
1457.98,89.9116786396387
1460.01,112.17447962927827
1462.03,144.47616520194902
1464.05,185.718092781289
1466.07,251.89683830462855
1468.09,328.4851525167878
1470.11,406.76529821626264
1472.13,530.0195303585504
1474.14,644.1491475880491
1476.16,722.9125913890041
1478.17,783.3064023793124
1480.18,829.374748032893
1482.19,822.6856170687283
1484.2,796.6165376494214
1486.21,732.8783908178546
1488.21,594.84874774337
1490.22,464.5242545869976
1492.22,363.6158745095347
1494.22,265.5012725367742
1496.22,187.60577185329794
1498.22,131.83092914388908
1500.22,62.316443268280636
1502.22,32.05920679304381
1504.21,15.246643237758917
1506.21,-7.267098535957075
1508.2,-2.0563785068547986
1510.19,-15.647869579946246
1512.18,-4.425314806748474
1514.17,21.989524706884595
1516.16,31.83211072549466
1518.14,19.671320733202947
1520.13,29.218974116223308
1522.11,26.853644059664703
1524.09,28.668278968141976
1526.07,41.27972864829121
1528.05,17.2573181103362
1530.03,-14.82953101130056
1532.01,-25.83986951357292
1533.98,-10.632646823245523
1535.96,14.64757553761251
1537.93,47.570622018874474
1539.9,58.32546190899984
1541.87,51.9583015350147
1543.84,63.658295510110065
1545.81,73.18611512409939
1547.78,88.4929929243508
1549.74,87.29214824910196
1551.7,96.77306990363195
1553.67,106.88722740786193
1555.63,124.91949652967196
1557.59,142.53577529440804
1559.55,148.92583808963127
1561.5,135.32714215081182
1563.46,116.31053880893114
1565.41,111.82788949998803
1567.37,121.11682463165084
1569.32,125.12931197371563
1571.27,132.91260600095075
1573.22,130.70448295022175
1575.17,132.3141901633337
1577.11,125.93196685843918
1579.06,123.4623744252649
1581.0,111.57191243462012
1582.95,99.73663464790684
1584.89,87.14690788377334
1586.83,81.65978993238741
1588.77,74.37045508875599
1590.7,62.85028635271351
1592.64,57.242110486053434
1594.58,44.78400449822993
1596.51,34.49976879873407
1598.44,30.389400349458356
