Raman Shift,Processed Intensity
331.095,53.49932789361037
333.909,-31.2983509759747
336.721,-53.96920614839746
339.531,-40.513232275150585
342.339,-38.88279426309873
345.145,-10.88738383072996
347.949,-1.7650427310909436
350.751,20.484309263379146
353.55,5.3845939950665525
356.348,-0.3021340160307773
359.144,-5.861396509507358
361.937,29.84990434014935
364.729,34.11777698635433
367.518,57.70447919226808
370.306,67.70566623645072
373.091,109.55039626137841
375.874,244.8582784791056
378.656,341.9632880435943
381.435,344.5328190182804
384.212,282.61530877221594
386.988,142.97357666191328
389.761,27.03721033224383
392.532,-0.5736194112264457
395.301,-11.000534206101293
398.068,-0.8136094512888121
400.833,18.702916698326135
403.596,-16.877923934331193
406.358,-17.459158802444563
409.117,-22.372251508277714
411.874,-21.662813802433902
414.629,-26.328700408429995
417.382,-39.700963429215335
420.133,-13.443856753597629
422.882,32.635632787618306
425.629,66.8258687505022
428.374,117.70102785834752
431.117,190.69251860186387
433.858,231.46993041132373
436.597,316.8934114001395
439.334,329.63271277510967
442.069,302.59575705619454
444.802,284.5476824867633
447.533,288.44417315813007
450.262,297.4314558007518
452.989,341.4653441944838
455.714,354.5017121502642
458.438,350.40125220608206
461.159,312.4056628943713
463.878,272.80431219987804
466.595,243.45804387466433
469.31,213.1801266102675
472.024,185.59339368603196
474.735,197.55881118887964
477.444,221.36595099498163
480.152,264.399654227625
482.857,305.09240900078385
485.561,291.543394829368
488.262,290.42324132517024
490.962,299.2597392737712
493.659,280.43783742573123
496.355,268.7234488115937
499.048,288.59678086640497
501.74,257.96661793519706
504.43,296.59888949274546
507.118,373.54523836333465
509.804,431.5239698928972
512.488,496.96766778781966
515.17,544.4517623347069
517.85,520.1230986201413
520.528,507.033266655209
523.204,539.4243124524078
525.878,577.6334967216003
528.551,601.5694821374027
531.221,636.2361396541846
533.89,636.2563548210674
536.556,599.8720245731129
539.221,616.5631016415514
541.883,640.190448487825
544.544,644.8053579042935
547.203,660.2685974244669
549.86,665.2980251618101
552.515,670.420967553307
555.168,702.4980256744425
557.819,752.2945006018122
560.469,784.2422949661932
563.116,784.2018145056186
565.761,784.3191077136889
568.405,812.1687197735982
571.047,815.8489274445292
573.687,798.5531644242492
576.324,789.1414467117024
578.96,758.4260836838903
581.594,738.3145320298986
584.227,728.9522496849168
586.857,679.103645002368
589.485,611.5806449736506
592.112,552.1474539240708
594.737,501.52055030401425
597.359,419.0353501467839
599.98,360.0271562407265
602.599,309.7835358727866
605.216,262.92527000062455
607.831,247.64444528188596
610.445,255.75206991299592
613.056,240.86854661080315
615.666,280.51890749898575
618.274,345.94233470875406
620.88,371.99691907478245
623.484,421.3977521644815
626.086,451.7169230691675
628.686,479.478753290477
631.284,513.4931268648697
633.881,525.6650109643228
636.476,507.8992145922616
639.068,472.57657585091556
641.659,406.98253016106037
644.249,333.49758324366167
646.836,268.83540314914217
649.421,201.51900752474376
652.005,165.3093318342685
654.587,155.34808329210455
657.166,132.53869003535146
659.745,79.11772648641318
662.321,65.70252919178347
664.895,34.52928885131087
667.468,0.4054280617438053
670.038,11.185795163350576
672.607,13.629814059260752
675.174,-6.7889849688062895
677.739,22.78370959910626
680.303,22.106809669060567
682.864,12.843836427844508
685.424,-1.3894493852226333
687.982,-15.786938767644642
690.538,-14.92358823668701
693.092,-3.9458813758474207
695.645,-14.476577762557554
698.195,5.337679396055137
700.744,7.445421888918645
703.291,17.509413624967692
705.836,36.763803530579935
708.38,39.871278447018085
710.921,31.01831126596562
713.461,30.677075731731748
715.999,45.034027910120585
718.535,73.13277337158388
721.069,91.82645818389801
723.602,86.96825514293187
726.133,104.26851667008532
728.662,94.34240390019932
731.189,92.09084910279444
733.714,95.79580381759342
736.238,83.02501079956664
738.759,60.58439501159455
741.279,46.137121283803026
743.798,27.013128163360307
746.314,5.399614145231681
748.829,-32.32561895421168
751.342,-51.97510833786873
753.853,-37.456482092388796
756.362,-2.91530954920745
758.869,36.07442391786117
761.375,61.60555257941587
763.879,66.39010889440578
766.381,31.90217824454203
768.882,13.187420335380466
771.38,24.91068583549577
773.877,37.070299682325185
776.372,58.85520153086736
778.866,72.31161001190048
781.357,44.8192107997379
783.847,61.09115420377657
786.335,73.12643371243666
788.821,75.63845501328524
791.306,89.43598596554148
793.789,114.04220181068058
796.27,150.88515895446244
798.749,203.82160208229743
801.227,226.66077127460994
803.702,229.21201864601653
806.176,206.47528212735324
808.649,177.87917829532262
811.119,164.75719044023117
813.588,171.0619518718172
816.055,196.31762446317907
818.521,212.28656290899016
820.984,192.20740755514362
823.446,173.89032008553613
825.906,149.47888587551301
828.365,113.49773063101702
830.821,114.37632750392731
833.276,81.82994706453542
835.729,65.90727394068267
838.181,68.46659488547289
840.631,74.8900820830811
843.079,50.798076454570946
845.525,78.19194239227613
847.97,83.88263677989812
850.412,91.01451610784534
852.854,92.16057216000331
855.293,84.75100103383465
857.731,55.216057874769376
860.167,72.1765306582065
862.601,83.58659492390666
865.034,77.87666851036875
867.465,68.09626628922092
869.894,50.10447394722587
872.321,21.33185033971199
874.747,30.018520320197013
877.171,60.40464852238961
879.594,87.11138933267534
882.014,76.04564638640886
884.433,99.40007015944752
886.851,58.748293654917916
889.266,57.283025232846285
891.68,84.67318905883099
894.092,92.5877322193885
896.503,92.83847945633693
898.912,155.76108313928194
901.319,156.16740180951865
903.724,174.6788311048963
906.128,181.15487277991406
908.53,132.88360848772504
910.931,99.48645927642133
913.329,103.72770699008038
915.726,106.37163471743042
918.122,132.94442914527713
920.516,160.5437019595588
922.908,149.3146779130641
925.298,152.16447813123864
927.687,163.57164151324469
930.074,176.82421756157828
932.459,170.82928778312316
934.843,142.20820137591818
937.225,122.86800139211073
939.605,112.47761280566738
941.984,129.2773639134241
944.361,139.9837458313657
946.736,109.74179103853248
949.11,74.22030906377631
951.482,74.80236026776151
953.853,82.25192010115347
956.222,80.80911479137603
958.589,71.76164750555995
960.954,66.20670070396159
963.318,58.33664801719715
965.68,56.96286136157164
968.041,83.51570853059366
970.4,51.18740792935182
972.757,5.789169023175873
975.113,-8.153571975607292
977.467,-24.54401165901345
979.819,-29.618743135041314
982.17,0.7665270144773331
984.519,9.708401963845972
986.866,6.208167007016755
989.212,29.981304858709336
991.556,42.74320243835814
993.899,53.63771544439669
996.24,85.95145023712871
998.579,97.87566476921643
1000.92,71.50626475425838
1003.25,62.12951412108464
1005.59,28.412507372809614
1007.92,2.68888004112614
1010.25,40.530233426317636
1012.58,64.65089555840086
1014.91,64.19363482319568
1017.24,77.63442526154677
1019.56,71.73483091616208
1021.88,71.39915208321986
1024.2,96.00776204015096
1026.52,103.94091996390625
1028.84,137.4359171825488
1031.16,147.92041390304394
1033.48,145.53625212952352
1035.79,150.5204114386877
1038.1,155.3002504694964
1040.41,164.11255793666692
1042.72,220.00355602512036
1045.03,221.44795140348697
1047.33,205.77751004712604
1049.64,186.84772729924794
1051.94,161.84735507488722
1054.24,178.06031001726137
1056.54,195.8180578446047
1058.84,206.49961674462588
1061.13,191.10298934039088
1063.43,184.95945179907085
1065.72,185.30498579782397
1068.01,216.2802819182516
1070.3,215.21645732656998
1072.59,209.58744012044667
1074.87,188.6766393901239
1077.16,199.14837718430636
1079.44,219.80979666652388
1081.72,247.42038931911338
1084.0,277.4062840519666
1086.28,324.71739345412925
1088.56,407.2083695692104
1090.84,521.5909882422216
1093.11,576.6722477521357
1095.38,606.8305626825334
1097.65,582.3491006493955
1099.92,516.3681666479476
1102.19,451.50425406616773
1104.46,408.99290522210345
1106.72,369.3553814250108
1108.98,354.25580922695167
1111.24,347.7392790553522
1113.5,365.8508962265198
1115.76,395.44530814961854
1118.02,442.7105172449453
1120.28,496.9774081479052
1122.53,478.43403681776067
1124.78,417.64944345590357
1127.03,362.71651304316856
1129.28,332.2043596866788
1131.53,314.3011871571571
1133.77,303.0523875214883
1136.02,260.8843540609846
1138.26,227.31877038013613
1140.5,203.54404237250742
1142.74,241.46292066282513
1144.98,272.8353611443049
1147.22,300.8499569445444
1149.45,300.12394181998934
1151.69,285.6555745027831
1153.92,242.01461828569654
1156.15,213.34234441658077
1158.38,184.44677358805507
1160.61,164.13601266529236
1162.83,156.21825808047106
1165.06,114.16846589388751
1167.28,98.60454566460044
1169.5,78.33498289250315
1171.72,63.78741384134332
1173.94,72.00862893316958
1176.16,74.42648090468492
1178.37,39.75465010645962
1180.58,22.325981230713978
1182.8,7.187724801007562
1185.01,-8.565126099975714
1187.22,0.543503139731456
1189.42,-3.3911297260924584
1191.63,-7.74981642155376
1193.84,-9.913202140651947
1196.04,-22.499875606484693
1198.24,-33.60445994180418
1200.44,-21.22618077083689
1202.64,10.969229940227706
1204.84,23.459054963899916
1207.03,29.720729675534585
1209.23,6.469933414772413
1211.42,-12.625128676831082
1213.61,2.0086514199208523
1215.8,38.42070995941981
1217.99,47.80347355408594
1220.18,62.06378340913443
1222.36,76.34670050971977
1224.55,74.46407271284602
1226.73,85.32310183927507
1228.91,76.1168155273408
1231.09,68.56215813437962
1233.27,29.328557828641806
1235.44,29.133160347861576
1237.62,38.50272942450101
1239.79,58.01173768717831
1241.96,75.56807660972186
1244.13,85.79400455544919
1246.3,81.97852339288193
1248.47,125.98213606384093
1250.64,170.57017558011194
1252.8,210.55565782963868
1254.96,253.3230867636662
1257.13,300.06654529816865
1259.29,361.1230243105199
1261.44,435.9247992552048
1263.6,448.52323535096343
1265.76,422.9697356250729
1267.91,382.45859371953816
1270.06,361.75556098299876
1272.22,335.3406992769162
1274.37,321.55123378177154
1276.51,267.10535818421386
1278.66,235.4831827213486
1280.81,198.49815841550185
1282.95,182.39231083279606
1285.09,159.26480717505842
1287.23,150.8814757526818
1289.37,141.62718260034035
1291.51,132.1248747593736
1293.65,122.28319498873839
1295.78,143.43933457119738
1297.92,160.5495051671246
1300.05,188.37941066831604
1302.18,217.07567143274832
1304.31,196.2610580431499
1306.44,214.93924887509343
1308.57,265.9710162365227
1310.69,327.88374584060693
1312.82,374.30000389764496
1314.94,408.366104206963
1317.06,398.7521038202435
1319.18,415.46132251438394
1321.3,425.97319559768243
1323.41,427.8146981446059
1325.53,423.89367399245634
1327.64,387.5464504523238
1329.75,352.394976829562
1331.87,327.53729627759253
1333.98,308.5951605088492
1336.08,286.190215934299
1338.19,268.61066599343326
1340.3,233.23983824616494
1342.4,202.27046575044164
1344.5,134.27611129700153
1346.6,63.115924977469376
1348.7,45.315592228638025
1350.8,56.63875806723172
1352.9,82.70607037228547
1354.99,119.85232295754781
1357.09,114.69788435816804
1359.18,83.81536471262575
1361.27,67.44390169227722
1363.36,62.06058928804782
1365.45,77.61857326378185
1367.54,121.64228946674416
1369.62,162.98936880478072
1371.7,191.75539936633777
1373.79,190.0358313976269
1375.87,220.49740608931234
1377.95,230.2352986489159
1380.03,249.86835661132068
1382.1,251.30100481593695
1384.18,220.24705514577977
1386.25,165.37256388558558
1388.33,143.39107003231175
1390.4,108.8255002723024
1392.47,78.10340729178029
1394.54,62.55696999210977
1396.6,56.70870799076556
1398.67,38.985767550869014
1400.74,34.005636082159526
1402.8,38.385666165766
1404.86,8.790694817079611
1406.92,-9.87647670682668
1408.98,-10.903650718822519
1411.04,-12.245419050743976
1413.09,-3.9993500520797625
1415.15,21.73687087113376
1417.2,34.48448989057465
1419.25,42.47892344606748
1421.3,63.764999132501316
1423.35,68.00648230103593
1425.4,49.62893599363997
1427.45,39.48639040143644
1429.49,24.147059942092937
1431.54,21.845727003884576
1433.58,40.86469711832615
1435.62,61.81951603757125
1437.66,60.897069953172604
1439.7,72.52225714341648
1441.74,91.35799295399033
1443.77,102.25759573103346
1445.81,106.31241084942167
1447.84,113.66133950295693
1449.87,117.490843685031
1451.9,129.7968559311987
1453.93,142.71811763317237
1455.96,133.67904116234763
1457.98,156.8659053266565
1460.01,184.89352701789994
1462.03,227.71002809717538
1464.05,272.1206498993565
1466.07,319.88299630900065
1468.09,359.37370540768075
1470.11,423.63607350227267
1472.13,503.2372029627695
1474.14,596.4108643458055
1476.16,691.2479775658092
1478.17,744.458521637567
1480.18,718.419158704517
1482.19,630.2684771146546
1484.2,530.6689011630992
1486.21,433.18764845371584
1488.21,366.2967348797706
1490.22,295.2301224617379
1492.22,217.50753385176813
1494.22,156.6487430286345
1496.22,110.60215170696142
1498.22,82.41146098455329
1500.22,66.40615251352847
1502.22,49.43958871907262
1504.21,36.6509225420034
1506.21,-0.6301356758076508
1508.2,-4.8833132107806705
1510.19,0.9355633563625361
1512.18,18.91838258126404
1514.17,24.25237162301255
1516.16,16.553434091399822
1518.14,-17.276702582006692
1520.13,-9.812387391842776
1522.11,-21.104041245020426
1524.09,-0.5352970933547567
1526.07,17.12938273826171
1528.05,-2.5886272590305452
1530.03,-15.73925916683379
1532.01,-6.753275980645412
1533.98,-6.680367641728253
1535.96,3.048941782819611
1537.93,28.00424337507161
1539.9,29.612382437315773
1541.87,31.014597869093222
1543.84,44.44747106804971
1545.81,51.14768435459564
1547.78,60.1139222537015
1549.74,77.01162991956016
1551.7,88.41110489358289
1553.67,88.50177933858686
1555.63,83.42554989202699
1557.59,80.41963132875412
1559.55,102.2927435571064
1561.5,131.1393938530964
1563.46,136.4351114755459
1565.41,149.2269203764654
1567.37,159.65714524476584
1569.32,147.43959850235137
1571.27,137.95481491925943
1573.22,110.29766718118572
1575.17,83.51545764748835
1577.11,72.70315296633225
1579.06,64.28909488031218
1581.0,79.13023484159885
1582.95,94.27403529375238
1584.89,85.00608523924598
1586.83,87.99295390223256
1588.77,74.04409201035651
1590.7,49.01659021942055
1592.64,55.481842299958544
1594.58,51.03506546667177
1596.51,44.36672546976797
1598.44,34.81015216249011
