Raman Shift,Processed Intensity
331.095,39.68687919911372
333.909,-1.7103413054614975
336.721,-10.239681041453878
339.531,-0.9011360401905222
342.339,11.138638937665291
345.145,5.355858180296764
347.949,-26.630391006629907
350.751,-16.248620521802422
353.55,-30.26065178532599
356.348,-11.190183198644263
359.144,-29.32278617589418
361.937,-23.70590117525535
364.729,-31.1964527779146
367.518,19.539154280593266
370.306,77.69170574570535
373.091,190.35680086011143
375.874,256.39199918955546
378.656,285.6549198295993
381.435,261.52705489809296
384.212,224.00901159908108
386.988,150.4824209533631
389.761,94.04327510049006
392.532,43.359074124571634
395.301,-15.474027119915263
398.068,-32.026453134702024
400.833,-14.77329904715225
403.596,-27.04670919671844
406.358,-3.4168305833832164
409.117,-2.929910728386858
411.874,16.51074439445756
414.629,18.192383496407274
417.382,18.688041848159173
420.133,-20.381558464310274
422.882,-10.25277304910287
425.629,19.266678442136254
428.374,112.1310427087692
431.117,164.3422429971297
433.858,219.52130566645747
436.597,236.00359627865555
439.334,225.50548425945544
442.069,212.8386266072148
444.802,198.5290135064688
447.533,188.0550615605407
450.262,190.1333260717679
452.989,241.14707046458489
455.714,291.90816904193616
458.438,331.37139069406976
461.159,337.4439207025698
463.878,319.3663111158153
466.595,248.95057398158633
469.31,197.67541743681704
472.024,176.92433894021406
474.735,187.6999089810497
477.444,226.433292883205
480.152,225.60329641872613
482.857,223.59350665947477
485.561,215.0732423525933
488.262,221.66421858167314
490.962,247.98816380888138
493.659,276.33348453612643
496.355,265.7981204424127
499.048,284.3847804735824
501.74,294.71522655109766
504.43,315.6493191855807
507.118,357.7612059474982
509.804,373.0059861283203
512.488,407.71970873502096
515.17,449.61937048456684
517.85,457.80291379841174
520.528,487.51112955888857
523.204,476.8895598656022
525.878,446.369448410876
528.551,424.52488133138104
531.221,411.83468996452257
533.89,432.0634012238788
536.556,488.0707594032083
539.221,521.2879146471219
541.883,548.1936114217592
544.544,556.8856150806982
547.203,564.4616622403883
549.86,565.352792107969
552.515,563.9900111424313
555.168,574.6614339062589
557.819,589.3694239170582
560.469,595.0686868801536
563.116,621.237697254503
565.761,652.6406010090996
568.405,645.4700707603201
571.047,648.5853990045193
573.687,633.6077342077683
576.324,587.3962692765404
578.96,537.0482395522108
581.594,516.660825567461
584.227,488.3311510407939
586.857,460.6324713472259
589.485,447.85226675087824
592.112,419.89700230424614
594.737,361.00641155698213
597.359,300.467780264692
599.98,280.13975390725045
602.599,260.5951928261625
605.216,265.50212260002036
607.831,253.3380177532904
610.445,231.43741879844174
613.056,196.18240642092678
615.666,174.5740280451114
618.274,195.08943868591905
620.88,185.63427989571483
623.484,205.971249187377
626.086,235.33914564784436
628.686,274.4528679326163
631.284,295.50341226024693
633.881,313.72929897827726
636.476,306.2737134148765
639.068,273.2321229209633
641.659,232.74751295994383
644.249,202.1532422450705
646.836,167.4016121625168
649.421,144.39719809921598
652.005,129.90160934212145
654.587,105.48586802509544
657.166,107.53040712342045
659.745,83.70125892449823
662.321,91.1405292128261
664.895,77.99020478831335
667.468,41.43977050839976
670.038,26.107159663510174
672.607,21.133990066791284
675.174,13.995090089405949
677.739,30.927075026696002
680.303,4.499782804876304
682.864,-25.52657456449697
685.424,-17.296637355752864
687.982,0.09249501842168684
690.538,14.21032103725156
693.092,14.435801774628999
695.645,-11.614060102838266
698.195,-24.988973239393545
700.744,-21.833918571391678
703.291,2.8965742003124433
705.836,3.247957026781478
708.38,-4.496236923938795
710.921,-12.242960078755914
713.461,12.767497014234323
715.999,-7.84801395803197
718.535,9.336884806935814
721.069,27.367623964848917
723.602,11.81345185754708
726.133,-0.08970541600547222
728.662,-7.62971726205069
731.189,2.0484210027707377
733.714,26.942591079558497
736.238,49.19355461529676
738.759,38.894479940522615
741.279,32.80523071175685
743.798,2.114273601559489
746.314,20.676776464765226
748.829,1.728896980918762
751.342,-18.63602394138752
753.853,-7.80079256968429
756.362,30.899450104331663
758.869,5.510564626289579
761.375,20.554654102536915
763.879,-8.065170966945061
766.381,-31.58859928420543
768.882,-24.445734872788762
771.38,20.123858231370377
773.877,3.9283017652433045
776.372,14.442453785911766
778.866,-15.38256459175318
781.357,-25.643175790740315
783.847,-39.57858093898449
786.335,-16.76123313168773
788.821,-6.811120217449115
791.306,3.937567475155447
793.789,30.960245601464976
796.27,72.78002997891781
798.749,97.11059266999655
801.227,108.80854187469686
803.702,111.87342087061415
806.176,131.97151647684314
808.649,146.9596675178741
811.119,131.6471685255906
813.588,102.51005439364417
816.055,82.07205169849658
818.521,87.95219668713162
820.984,106.86483421714183
823.446,101.905330982539
825.906,55.502455406227
828.365,27.22790038963558
830.821,5.986758443304552
833.276,2.398473007961911
835.729,22.177789775582823
838.181,39.89666039140684
840.631,43.936622346440345
843.079,74.91736934612709
845.525,65.45865501236995
847.97,58.79933944268305
850.412,52.321197674117684
852.854,27.453680528131827
855.293,24.34058021736837
857.731,28.125743571480598
860.167,41.76259478676184
862.601,56.20461055672695
865.034,46.69103329793461
867.465,30.12782247104542
869.894,27.04003447330706
872.321,1.4765834834174711
874.747,22.20071659210862
877.171,38.21382226605692
879.594,27.041143573700538
882.014,5.255586649152519
884.433,-0.09370893913683176
886.851,-20.386133153042238
889.266,-9.096273211340304
891.68,25.11084725515093
894.092,42.808336506514024
896.503,60.33124109191067
898.912,97.919399866817
901.319,100.09839324835002
903.724,91.6319210420179
906.128,93.33132312561429
908.53,94.0555763235875
910.931,98.3779579480763
913.329,109.39556648280836
915.726,104.49122321937239
918.122,102.47632627444113
920.516,104.35275222605082
922.908,93.78904346415857
925.298,101.21564316025751
927.687,117.87251118935774
930.074,141.23769243293054
932.459,155.7415993675636
934.843,155.76700893933776
937.225,121.12524991438522
939.605,115.3419140389833
941.984,104.79971005678158
944.361,95.54798439270326
946.736,87.20747993208033
949.11,86.1131900378839
951.482,99.07626018700216
953.853,115.00303246366434
956.222,98.18075671952988
958.589,61.46806363853716
960.954,16.91400923031938
963.318,17.091405037910818
965.68,30.33491025020635
968.041,58.931504766814214
970.4,85.69191464385085
972.757,61.902989920694836
975.113,29.184844351504807
977.467,14.395614184353917
979.819,-2.749497345351756
982.17,0.6074911452176366
984.519,14.372099430326443
986.866,-11.264521035094049
989.212,-12.825589000808804
991.556,-9.548693832596655
993.899,4.138012394498446
996.24,20.28247856579469
998.579,44.361131457295414
1000.92,40.42172929252888
1003.25,45.750026913192414
1005.59,55.15548856884698
1007.92,62.352242861494915
1010.25,75.34003769016658
1012.58,94.92805233835452
1014.91,84.78251908526454
1017.24,65.04577338849163
1019.56,60.812446923836205
1021.88,76.79613681560136
1024.2,120.99607486688842
1026.52,136.26855869465612
1028.84,139.18409715049233
1031.16,139.50360336042831
1033.48,132.36887347904576
1035.79,133.4930654435832
1038.1,164.16070153756618
1040.41,171.51338524015182
1042.72,194.64504188499927
1045.03,209.17334979533302
1047.33,216.33498094281777
1049.64,207.17607970166114
1051.94,188.8855987455836
1054.24,177.36673018288297
1056.54,171.80833669149524
1058.84,155.20876360644615
1061.13,153.3758414834915
1063.43,152.92688866275512
1065.72,182.66966621331767
1068.01,197.07857097304736
1070.3,214.67559049319607
1072.59,207.45887703060816
1074.87,193.42655963516677
1077.16,183.95769909438354
1079.44,225.14562383036605
1081.72,246.4169800825057
1084.0,281.9126868520764
1086.28,330.3927003706365
1088.56,405.09315952081306
1090.84,474.1073407808892
1093.11,516.7189941217796
1095.38,531.5452027135209
1097.65,508.91733786986515
1099.92,464.7858235166732
1102.19,415.5296625650792
1104.46,384.9564394751251
1106.72,354.11184662892447
1108.98,338.5177821323862
1111.24,354.31520952169876
1113.5,389.1689222317109
1115.76,399.79135568336847
1118.02,439.3235422282951
1120.28,440.6208279981354
1122.53,428.1576373729504
1124.78,407.1703326877098
1127.03,400.4191215578335
1129.28,357.7594880142583
1131.53,310.52314744802834
1133.77,247.56566822155628
1136.02,225.1236170894017
1138.26,205.10027604762695
1140.5,214.49421632599865
1142.74,225.49453904686493
1144.98,217.52849683641102
1147.22,217.40435353114935
1149.45,251.02567245584873
1151.69,266.39131898716846
1153.92,273.5002250220605
1156.15,249.82758201760294
1158.38,175.75341498321086
1160.61,123.70544218713076
1162.83,116.3971729581765
1165.06,105.63743405889386
1167.28,108.61608653491544
1169.5,87.71355208812133
1171.72,73.73891087837796
1173.94,70.2156183728921
1176.16,73.38150790985082
1178.37,74.85545992872517
1180.58,55.97073786724377
1182.8,1.1559431059829421
1185.01,-17.68403008703899
1187.22,-27.310849135582657
1189.42,-23.867026182719655
1191.63,-2.1140125793053812
1193.84,2.9963702607317373
1196.04,8.321925942492044
1198.24,-8.946112529292805
1200.44,26.764531470711745
1202.64,45.97860280451596
1204.84,45.55426203474417
1207.03,12.968797513136451
1209.23,5.03290889762161
1211.42,-17.299771235371736
1213.61,41.4958931860308
1215.8,75.84987473955312
1217.99,72.1922183991187
1220.18,49.47684885377589
1222.36,51.27680639805317
1224.55,79.68900663183308
1226.73,105.57233349356193
1228.91,112.16668467441013
1231.09,91.09296941338175
1233.27,87.21024914957093
1235.44,84.18716388870075
1237.62,100.35907285537814
1239.79,82.44233800249458
1241.96,80.53432180633945
1244.13,81.39909934743196
1246.3,103.37221801039823
1248.47,96.83688575527731
1250.64,95.74777843644756
1252.8,74.3929423596469
1254.96,119.77474445804683
1257.13,174.22891770642286
1259.29,247.85313034483897
1261.44,290.3641265309154
1263.6,305.0977241349392
1265.76,286.4850030111693
1267.91,280.09992184057273
1270.06,255.7069349735557
1272.22,222.9276568917453
1274.37,180.52657428881776
1276.51,180.74437719894763
1278.66,196.2503377443038
1280.81,182.18992697777776
1282.95,187.08957458286204
1285.09,142.61857143066413
1287.23,116.73192451787486
1289.37,131.00368809520728
1291.51,138.626961462513
1293.65,141.6043629543633
1295.78,158.5575515446876
1297.92,114.9653198799765
1300.05,106.78263969344653
1302.18,123.58351674300889
1304.31,145.79908384447776
1306.44,188.09855104763142
1308.57,232.72253676465857
1310.69,252.14973223193124
1312.82,274.5254707336917
1314.94,324.6141063495411
1317.06,330.0847260352725
1319.18,330.08257598940486
1321.3,338.0862023054374
1323.41,340.62173448124736
1325.53,352.9771689284862
1327.64,378.86903343434847
1329.75,378.4423849566856
1331.87,341.366045514349
1333.98,318.83259998229937
1336.08,268.84410817242406
1338.19,220.2121026286477
1340.3,183.60520546965904
1342.4,161.26341189831123
1344.5,132.99808799673292
1346.6,141.09673042620284
1348.7,146.13248803178612
1350.8,132.15463582792722
1352.9,127.02190612689037
1354.99,122.59296252435297
1357.09,136.7740167421366
1359.18,150.2331121376128
1361.27,150.2096453083425
1363.36,146.32388769672139
1365.45,163.1007929089053
1367.54,169.87475641468814
1369.62,190.40866096165837
1371.7,196.13196960840946
1373.79,197.2835806625128
1375.87,231.72134928515106
1377.95,280.20779957194895
1380.03,269.9815509195114
1382.1,259.4239824872052
1384.18,235.29732623036352
1386.25,228.64942660016482
1388.33,221.4804050054015
1390.4,172.55218141712112
1392.47,109.38847216373915
1394.54,84.08431153567449
1396.6,64.11557338998864
1398.67,52.00563561216018
1400.74,29.849187435015892
1402.8,-6.973487051863913
1404.86,0.7749174644034156
1406.92,35.52206167561803
1408.98,43.88596172733833
1411.04,30.341656042276554
1413.09,-0.06450880868851527
1415.15,1.1422649073604134
1417.2,13.150943570423806
1419.25,44.055141590615676
1421.3,62.66264852965105
1423.35,74.0192432831916
1425.4,44.21822254890458
1427.45,62.4004054849961
1429.49,61.611281225892526
1431.54,62.51529925505952
1433.58,75.44349311115252
1435.62,79.34586599893578
1437.66,69.17234782876471
1439.7,88.01565701797085
1441.74,90.2541622922538
1443.77,75.02807782040145
1445.81,79.95375358710794
1447.84,64.69510862293055
1449.87,54.39220709139181
1451.9,46.28031056655368
1453.93,80.73750173916642
1455.96,110.2370700275792
1457.98,154.10942099817998
1460.01,166.3992238810663
1462.03,162.19874956191666
1464.05,158.3621609548095
1466.07,187.64837480361507
1468.09,245.2924949119581
1470.11,307.1962929922224
1472.13,362.594879990751
1474.14,419.9138536035166
1476.16,434.81692198227256
1478.17,422.96781315498606
1480.18,410.4112320653178
1482.19,354.04905570734286
1484.2,300.21176635550205
1486.21,266.2775038421762
1488.21,203.57683212098004
1490.22,144.72607725862372
1492.22,94.8654273315351
1494.22,40.65893708438671
1496.22,8.294532588629409
1498.22,0.2935397105466109
1500.22,-3.155977896886043
1502.22,-22.29445223071116
1504.21,-21.36223482132027
1506.21,-18.171020935505567
1508.2,2.515200083747004
1510.19,19.265858917243577
1512.18,35.8885661035722
1514.17,18.28625307814241
1516.16,8.123837021753616
1518.14,16.971076185351194
1520.13,2.921615690972203
1522.11,-3.2165380958763308
1524.09,17.459932996639054
1526.07,24.187752660369824
1528.05,37.72752444672028
1530.03,47.36372991569988
1532.01,25.761869642123656
1533.98,33.873223269431946
1535.96,47.74437146826995
1537.93,45.0886226569728
1539.9,42.23839210300139
1541.87,27.573771500570274
1543.84,21.665384262562384
1545.81,53.70295509815901
1547.78,92.2572129238049
1549.74,111.04179377417017
1551.7,101.86561990359132
1553.67,101.63289793513218
1555.63,88.96216462869029
1557.59,69.37676122053017
1559.55,83.20959347710436
1561.5,80.55551079648694
1563.46,76.84273292886382
1565.41,99.26141955416415
1567.37,114.47795414540406
1569.32,93.8254183082272
1571.27,89.77978040615517
1573.22,77.48370323345944
1575.17,89.93701835470142
1577.11,92.23481949188681
1579.06,84.61507972114555
1581.0,67.22055438369284
1582.95,64.81306494918044
1584.89,62.53540192666151
1586.83,73.00656110889236
1588.77,66.46459886425009
1590.7,65.90948742864953
1592.64,57.198351149842665
1594.58,59.56927416029089
1596.51,50.28415566908143
1598.44,18.50966049194153
