Raman Shift,Processed Intensity
331.095,69.85774999999971
333.909,-23.551488095238128
336.721,-52.6136809523809
339.531,-43.39009523809524
342.339,-30.91913809523812
345.145,-34.071200000000026
347.949,-44.37983238095242
350.751,-42.61394523809527
353.55,-59.77787047619047
356.348,-9.2541195238095
359.144,39.29165523809527
361.937,35.482168095238116
364.729,44.2760571428572
367.518,71.77717523809531
370.306,122.32983809523826
373.091,281.18590952380976
375.874,428.5988095238098
378.656,436.9674761904764
381.435,397.5500000000001
384.212,302.9398095238097
386.988,198.49439047619063
389.761,154.1445095238096
392.532,152.53678095238104
395.301,116.03396666666674
398.068,130.71520952380962
400.833,152.47048095238102
403.596,153.28693333333342
406.358,134.81951428571438
409.117,121.01073809523815
411.874,67.04220476190478
414.629,46.716514285714325
417.382,58.40836666666674
420.133,79.16067619047628
422.882,127.54148095238106
425.629,178.83416666666682
428.374,245.9423142857145
431.117,285.4370952380954
433.858,340.98542857142877
436.597,339.82685714285725
439.334,293.72619047619065
442.069,237.02004761904774
444.802,250.04576190476206
447.533,249.14147619047637
450.262,271.21719047619064
452.989,314.37385714285733
455.714,312.19004761904773
458.438,300.1012380952383
461.159,277.6864761904763
463.878,230.00166666666678
466.595,173.81723809523822
469.31,177.379761904762
472.024,157.6510952380953
474.735,166.25971428571438
477.444,159.8822380952382
480.152,155.1479523809525
482.857,184.54323809523825
485.561,201.0309523809525
488.262,195.4309047619049
490.962,209.61123809523824
493.659,191.53514285714297
496.355,188.92761904761917
499.048,197.99047619047627
501.74,176.11542857142868
504.43,153.55128571428583
507.118,166.02352380952394
509.804,204.01923809523825
512.488,248.78700000000015
515.17,264.09980952380965
517.85,260.34890476190486
520.528,218.44942857142865
523.204,174.8881904761906
525.878,163.865380952381
528.551,136.24833333333342
531.221,118.04642857142863
533.89,122.88850476190481
536.556,120.11690476190482
539.221,104.12202857142863
541.883,104.48348571428579
544.544,111.3531333333334
547.203,131.40573333333342
549.86,131.7923476190477
552.515,101.04424761904765
555.168,67.31190952380956
557.819,78.0782000000001
560.469,105.15943333333345
563.116,171.51470476190488
565.761,188.0073714285715
568.405,159.26214285714292
571.047,133.23685714285722
573.687,124.7938095238096
576.324,113.46123809523819
578.96,133.7677333333334
581.594,106.3840428571429
584.227,98.07546666666676
586.857,122.32155714285724
589.485,129.69711428571435
592.112,132.2043857142858
594.737,127.7983714285715
597.359,113.67135238095247
599.98,117.72968095238102
602.599,135.97461904761911
605.216,132.50246190476196
607.831,109.78961904761908
610.445,79.40773333333338
613.056,76.45197142857145
615.666,47.826709523809555
618.274,37.48350000000005
620.88,62.99296666666673
623.484,72.40092857142865
626.086,128.13457142857155
628.686,191.76304285714298
631.284,200.9511142857144
633.881,210.64833333333348
636.476,218.56642857142867
639.068,187.08304761904773
641.659,179.33770476190483
644.249,146.99327619047625
646.836,89.42732857142862
649.421,65.44516952380955
652.005,40.138083809523835
654.587,22.406462857142884
657.166,39.34075904761908
659.745,48.07929142857147
662.321,61.04577904761909
664.895,61.56866000000002
667.468,47.45240476190478
670.038,31.025200000000034
672.607,58.901047619047674
675.174,88.02691904761909
677.739,105.39749047619053
680.303,93.15025714285719
682.864,70.85128095238099
685.424,36.35235238095242
687.982,47.505414285714316
690.538,39.82880000000001
693.092,26.93632857142859
695.645,29.58466190476193
698.195,39.14962380952384
700.744,30.530944761904784
703.291,28.247506666666673
705.836,31.81827333333335
708.38,23.286193809523834
710.921,25.360961904761936
713.461,44.704772857142885
715.999,56.21820761904766
718.535,73.32544809523817
721.069,113.11766952380958
723.602,109.82902380952386
726.133,100.69353333333339
728.662,82.89807619047623
731.189,74.15338571428576
733.714,71.741380952381
736.238,76.65872857142863
738.759,76.61636666666672
741.279,96.65841428571434
743.798,114.35309523809529
746.314,110.7925285714286
748.829,101.40228571428578
751.342,75.1795666666667
753.853,47.93122857142861
756.362,55.702109523809575
758.869,70.39425714285717
761.375,54.243304761904795
763.879,62.103995238095266
766.381,56.45017619047623
768.882,62.13685238095244
771.38,87.78083333333338
773.877,101.28513809523814
776.372,95.64756666666672
778.866,100.00926666666672
781.357,90.51132380952386
783.847,93.77133333333342
786.335,107.21633333333341
788.821,125.70209523809532
791.306,146.46525714285724
793.789,147.4571714285715
796.27,151.53371428571438
798.749,143.64642857142866
801.227,130.1753333333334
803.702,149.45309523809536
806.176,159.9552380952382
808.649,168.34780952380964
811.119,187.439961904762
813.588,163.99315238095244
816.055,125.95940000000007
818.521,122.62441904761913
820.984,131.94052380952394
823.446,129.62199047619055
825.906,137.33601904761915
828.365,141.3684476190477
830.821,175.9575142857144
833.276,184.15141428571437
835.729,164.09380000000004
838.181,138.30910000000006
840.631,112.98875714285721
843.079,98.60992857142865
845.525,121.26866190476198
847.97,131.5377333333334
850.412,117.22788095238104
852.854,133.7691190476191
855.293,115.11530000000006
857.731,97.07766190476195
860.167,80.08637142857148
862.601,67.4766666666667
865.034,54.44090476190479
867.465,47.981233333333364
869.894,42.43314761904766
872.321,80.03688095238101
874.747,82.22357619047622
877.171,65.0434047619048
879.594,63.165576190476244
882.014,84.2596238095239
884.433,104.61417619047629
886.851,157.32727142857152
889.266,179.8304761904763
891.68,166.03195238095248
894.092,167.93457142857153
896.503,159.35161904761915
898.912,161.09590476190488
901.319,165.8374285714287
903.724,197.05590476190486
906.128,202.61214285714297
908.53,211.08080952380965
910.931,212.08528571428582
913.329,220.91425714285725
915.726,175.33340000000007
918.122,154.67980000000009
920.516,125.81393333333341
922.908,97.45399047619055
925.298,126.84198095238104
927.687,126.69515714285717
930.074,98.73159523809528
932.459,87.62129047619052
934.843,76.65330952380958
937.225,82.73613809523818
939.605,101.01580476190483
941.984,112.73366666666675
944.361,107.22610000000003
946.736,76.54372380952385
949.11,43.40372380952384
951.482,43.57091428571432
953.853,42.76224285714291
956.222,58.36142380952384
958.589,58.132614285714304
960.954,53.84008095238098
963.318,40.67648095238099
965.68,58.59623333333339
968.041,79.64890952380956
970.4,77.21723333333337
972.757,81.11232857142863
975.113,69.0024428571429
977.467,64.65070476190482
979.819,85.63010952380958
982.17,101.41774761904769
984.519,126.91944761904772
986.866,157.32672380952388
989.212,166.06890476190486
991.556,182.7179047619049
993.899,215.41766666666683
996.24,264.02542857142873
998.579,303.8274761904763
1000.92,319.49052380952395
1003.25,301.3481904761906
1005.59,251.0194285714287
1007.92,185.88547619047628
1010.25,162.70804761904773
1012.58,139.58233333333342
1014.91,158.6980476190477
1017.24,169.19814285714295
1019.56,168.7963333333334
1021.88,137.11142857142863
1024.2,130.66633333333343
1026.52,130.03180952380964
1028.84,148.7310476190477
1031.16,172.66785714285726
1033.48,191.5083809523811
1035.79,233.10871428571448
1038.1,292.51523809523826
1040.41,327.2507619047621
1042.72,336.79061904761926
1045.03,315.46676190476205
1047.33,257.8496666666668
1049.64,211.69995238095248
1051.94,181.63542857142866
1054.24,181.22600000000014
1056.54,200.70833333333348
1058.84,209.1284761904763
1061.13,211.91376190476203
1063.43,205.01509523809537
1065.72,210.14552380952398
1068.01,235.39838095238105
1070.3,240.9152857142859
1072.59,251.88490476190492
1074.87,270.4010000000002
1077.16,279.41400000000016
1079.44,293.20828571428586
1081.72,306.30561904761925
1084.0,314.4666666666669
1086.28,387.7373809523813
1088.56,482.7349523809528
1090.84,600.6483809523812
1093.11,703.6662380952384
1095.38,734.0248571428575
1097.65,669.6276190476193
1099.92,556.044142857143
1102.19,440.7490476190478
1104.46,371.0739523809526
1106.72,381.6838095238098
1108.98,415.19600000000025
1111.24,459.9904285714289
1113.5,506.684047619048
1115.76,568.9421428571433
1118.02,580.8108571428575
1120.28,614.8123809523813
1122.53,615.3263809523813
1124.78,596.6371428571432
1127.03,542.3620000000003
1129.28,480.4521428571431
1131.53,398.8114285714288
1133.77,367.67633333333356
1136.02,348.8080952380954
1138.26,344.06190476190494
1140.5,321.29409523809545
1142.74,292.55133333333345
1144.98,260.35642857142875
1147.22,256.70823809523824
1149.45,252.74928571428586
1151.69,250.00185714285732
1153.92,246.13247619047632
1156.15,217.99733333333344
1158.38,178.16728571428578
1160.61,142.07023809523818
1162.83,146.23015238095246
1165.06,116.55091904761908
1167.28,81.2706285714286
1169.5,59.43635714285716
1171.72,39.04819047619051
1173.94,53.058442857142936
1176.16,97.56263333333338
1178.37,96.17974285714291
1180.58,90.19575238095243
1182.8,90.0871666666667
1185.01,65.52101904761909
1187.22,57.78353333333335
1189.42,46.73227142857145
1191.63,39.796366666666714
1193.84,50.928804761904814
1196.04,75.22550000000004
1198.24,84.16330000000005
1200.44,89.88586666666673
1202.64,108.01300476190484
1204.84,132.5929476190477
1207.03,142.95996095238104
1209.23,122.78155142857146
1211.42,76.05859809523811
1213.61,34.88720571428574
1215.8,31.554160000000053
1217.99,67.06000952380958
1220.18,85.35815952380956
1222.36,69.49706380952381
1224.55,44.71572523809526
1226.73,30.824486666666694
1228.91,16.681504761904787
1231.09,33.66838000000003
1233.27,52.88118428571432
1235.44,47.558736190476225
1237.62,65.2734728571429
1239.79,77.97835619047622
1241.96,76.05484761904768
1244.13,92.59928571428578
1246.3,107.70741428571434
1248.47,106.80861428571436
1250.64,121.95128095238101
1252.8,116.04066666666674
1254.96,121.41045238095246
1257.13,125.5858095238096
1259.29,134.80495238095247
1261.44,142.30676190476197
1263.6,153.56814285714293
1265.76,137.541761904762
1267.91,149.1330000000001
1270.06,146.9618095238096
1272.22,149.50466666666676
1274.37,175.0954761904763
1276.51,174.02057142857154
1278.66,174.85176190476204
1280.81,202.9705238095239
1282.95,200.61547619047633
1285.09,207.9778571428573
1287.23,241.3433809523811
1289.37,232.04604761904776
1291.51,231.0386666666668
1293.65,220.03576190476198
1295.78,188.56166666666678
1297.92,188.8554285714287
1300.05,181.34533333333343
1302.18,179.2225238095239
1304.31,174.67785714285725
1306.44,158.23547619047628
1308.57,176.51476190476203
1310.69,204.2304761904763
1312.82,219.4776666666668
1314.94,244.63804761904777
1317.06,255.04533333333347
1319.18,242.84261904761922
1321.3,269.88738095238114
1323.41,297.6082380952383
1325.53,335.8151428571431
1327.64,396.46100000000024
1329.75,471.6410476190479
1331.87,500.0698095238098
1333.98,519.7950000000002
1336.08,498.5310952380954
1338.19,447.8501428571431
1340.3,412.6568095238098
1342.4,400.8562380952384
1344.5,383.78190476190497
1346.6,380.5292857142859
1348.7,341.5270952380954
1350.8,317.29952380952403
1352.9,324.2747142857145
1354.99,328.50066666666686
1357.09,339.1202857142859
1359.18,355.80080952380973
1361.27,355.20904761904785
1363.36,357.29742857142884
1365.45,365.6371428571431
1367.54,363.70471428571454
1369.62,374.3570476190479
1371.7,406.5470000000003
1373.79,476.22728571428604
1375.87,526.2070952380955
1377.95,527.7723333333336
1380.03,516.3517619047622
1382.1,472.5165714285717
1384.18,426.5525714285717
1386.25,398.12676190476213
1388.33,364.5722857142859
1390.4,295.4130000000001
1392.47,286.17290476190493
1394.54,270.47095238095255
1396.6,261.54528571428585
1398.67,233.06266666666681
1400.74,240.40419047619065
1402.8,247.47447619047637
1404.86,265.98771428571445
1406.92,273.2295714285716
1408.98,261.9144285714287
1411.04,237.13723809523825
1413.09,245.61257142857156
1415.15,264.57842857142873
1417.2,278.2254285714288
1419.25,284.4581904761907
1421.3,274.46719047619064
1423.35,253.01414285714299
1425.4,222.19433333333347
1427.45,207.05514285714298
1429.49,225.16852380952398
1431.54,238.43880952380965
1433.58,244.91371428571443
1435.62,251.49757142857158
1437.66,233.1904761904763
1439.7,220.84933333333345
1441.74,220.4269047619049
1443.77,226.16100000000014
1445.81,236.43266666666682
1447.84,253.57476190476206
1449.87,263.82580952380965
1451.9,279.7567619047621
1453.93,270.939142857143
1455.96,267.46800000000013
1457.98,242.9149047619049
1460.01,241.9460476190478
1462.03,264.18085714285735
1464.05,283.3808571428573
1466.07,291.8791904761907
1468.09,309.9138571428573
1470.11,300.77076190476214
1472.13,300.4972380952383
1474.14,274.0458571428573
1476.16,228.70214285714297
1478.17,194.08476190476202
1480.18,196.71738095238112
1482.19,211.60019047619062
1484.2,230.11383809523818
1486.21,200.16324285714296
1488.21,153.3194857142858
1490.22,119.58279523809531
1492.22,116.95290095238104
1494.22,95.52498428571434
1496.22,79.77490190476192
1498.22,50.369482380952405
1500.22,52.87962571428578
1502.22,72.73436047619055
1504.21,93.6477104761905
1506.21,83.2386142857143
1508.2,53.126052380952395
1510.19,51.357557142857196
1512.18,65.5042428571429
1514.17,76.85192380952387
1516.16,78.30522857142861
1518.14,77.48306190476193
1520.13,38.14727142857146
1522.11,41.678528571428615
1524.09,53.315042857142906
1526.07,80.34231904761911
1528.05,92.6173571428572
1530.03,117.75892857142861
1532.01,85.05273809523814
1533.98,65.92709047619053
1535.96,70.76294761904767
1537.93,77.36962857142863
1539.9,88.31824761904771
1541.87,131.70377142857149
1543.84,140.66905714285724
1545.81,148.83313333333342
1547.78,169.67189523809532
1549.74,161.23271428571437
1551.7,177.70557142857155
1553.67,190.56642857142867
1555.63,193.1009523809525
1557.59,184.4994761904763
1559.55,169.80966666666674
1561.5,145.31690476190485
1563.46,132.6395238095239
1565.41,134.1585238095239
1567.37,144.15935238095244
1569.32,138.5939238095239
1571.27,118.27187142857149
1573.22,103.24031428571433
1575.17,85.83206190476199
1577.11,104.66635238095246
1579.06,124.74309047619056
1581.0,150.49033333333344
1582.95,157.14580952380962
1584.89,158.2328095238096
1586.83,164.46561904761916
1588.77,164.89138095238104
1590.7,165.6056666666668
1592.64,167.6552857142858
1594.58,157.5399047619049
1596.51,157.87826190476224
1598.44,181.1700238095244
