Raman Shift,Processed Intensity
331.095,15.412854761904827
333.909,9.138671428571408
336.721,-2.324621428571456
339.531,-13.704323809523814
342.339,-7.966758095238105
345.145,-0.3626461904762055
347.949,-31.52023047619049
350.751,-30.588890952380986
353.55,-44.52495333333337
356.348,-46.56775380952381
359.144,-40.23972095238094
361.937,9.32046380952384
364.729,32.73839619047624
367.518,71.35652952380963
370.306,165.18628095238114
373.091,328.14608571428596
375.874,455.4428571428574
378.656,542.952142857143
381.435,492.5038571428573
384.212,383.97785714285726
386.988,247.01757142857153
389.761,197.1255238095239
392.532,155.09219047619058
395.301,140.99509523809533
398.068,125.72338095238104
400.833,133.3581790476191
403.596,80.98218380952386
406.358,87.20377714285718
409.117,63.299092380952416
411.874,63.9742533333334
414.629,79.79448380952387
417.382,91.32584571428575
420.133,73.6120333333334
422.882,89.41259047619057
425.629,152.29675714285733
428.374,270.3116380952383
431.117,371.21995238095263
433.858,412.59457142857167
436.597,382.15200000000016
439.334,296.32428571428585
442.069,232.49628571428588
444.802,222.2918095238097
447.533,247.09771428571446
450.262,280.63419047619067
452.989,321.9556190476192
455.714,349.45042857142874
458.438,335.41223809523825
461.159,296.0397142857144
463.878,255.00876190476203
466.595,188.94709523809536
469.31,173.81700000000012
472.024,183.9140000000001
474.735,195.72428571428583
477.444,204.02028571428585
480.152,233.6221904761906
482.857,226.39809523809538
485.561,243.50185714285726
488.262,237.0874761904763
490.962,225.40390476190487
493.659,213.51009523809535
496.355,210.65533333333343
499.048,190.42285714285725
501.74,198.06161904761916
504.43,173.58314285714297
507.118,164.18904761904776
509.804,200.50947619047633
512.488,238.3649047619049
515.17,261.2424285714288
517.85,279.2002857142859
520.528,267.62995238095255
523.204,230.6375714285716
525.878,218.80428571428584
528.551,188.5210952380953
531.221,145.55995238095247
533.89,127.40641904761912
536.556,121.3077571428572
539.221,102.17810952380957
541.883,91.26402380952385
544.544,93.24052857142863
547.203,85.30680952380959
549.86,82.85145714285719
552.515,66.50117619047623
555.168,84.21570000000008
557.819,97.90687142857152
560.469,150.43843333333342
563.116,163.15020000000007
565.761,165.90517142857152
568.405,142.04238571428579
571.047,147.18640000000008
573.687,118.91364761904768
576.324,128.75270476190485
578.96,114.13635714285722
581.594,111.8303714285715
584.227,101.17202857142863
586.857,106.49790000000006
589.485,85.76320952380956
592.112,79.16103809523814
594.737,69.31269047619051
597.359,47.9820285714286
599.98,50.504061904761954
602.599,82.73722380952387
605.216,96.49185266666672
607.831,82.76853290476193
610.445,60.472275333333336
613.056,16.555413285714298
615.666,11.77951342857147
618.274,46.95356147619052
620.88,69.74309552380957
623.484,73.00395714285719
626.086,96.25850000000007
628.686,119.64750476190487
631.284,138.97851904761916
633.881,182.96325238095247
636.476,185.07554285714295
639.068,159.07395238095245
641.659,157.1934857142858
644.249,134.9544571428572
646.836,99.30566190476196
649.421,89.10020095238099
652.005,56.47710571428574
654.587,28.193506666666686
657.166,27.72115619047621
659.745,25.10311619047622
662.321,30.048796190476207
664.895,33.74364380952383
667.468,34.99207142857146
670.038,48.83641428571434
672.607,73.98565238095243
675.174,86.9105285714286
677.739,81.79605238095243
680.303,97.49375238095243
682.864,76.99812380952385
685.424,58.35118571428575
687.982,50.64263809523811
690.538,29.20021904761907
693.092,21.923204761904802
695.645,52.61553333333336
698.195,59.93853904761909
700.744,56.60112761904764
703.291,41.97895476190477
705.836,26.638214285714298
708.38,13.335668095238113
710.921,12.399525714285744
713.461,47.253539523809565
715.999,48.98793142857145
718.535,52.55021428571435
721.069,95.26898571428576
723.602,102.71120476190481
726.133,102.96766190476194
728.662,96.60550000000002
731.189,65.04889047619051
733.714,53.86503809523815
736.238,64.66890476190478
738.759,56.74243809523813
741.279,57.22474285714288
743.798,31.969321428571448
746.314,30.972709523809556
748.829,49.564959523809556
751.342,30.742861904761927
753.853,50.26552619047624
756.362,75.65381428571433
758.869,71.00039047619052
761.375,60.54089523809526
763.879,56.84455714285715
766.381,37.909442857142906
768.882,56.019442857142906
771.38,74.55366190476195
773.877,75.51069523809528
776.372,67.84154285714291
778.866,64.59271428571435
781.357,82.23953333333338
783.847,97.82863809523815
786.335,112.7878952380953
788.821,119.64060000000008
791.306,127.38639047619056
793.789,144.45373333333342
796.27,131.03301904761912
798.749,118.5528476190477
801.227,118.67993333333338
803.702,117.36718095238105
806.176,128.99573333333345
808.649,158.28073333333342
811.119,144.84166666666675
813.588,128.91771428571437
816.055,121.03342857142866
818.521,105.19000476190482
820.984,92.5787571428572
823.446,80.10595238095243
825.906,88.43940476190484
828.365,118.1046380952382
830.821,155.05536666666677
833.276,177.10275714285726
835.729,181.43918095238104
838.181,174.82838095238102
840.631,165.55771428571438
843.079,168.10519047619056
845.525,156.13947619047627
847.97,146.51986666666676
850.412,125.77262857142863
852.854,109.2808666666667
855.293,81.42760000000004
857.731,67.97701428571432
860.167,32.16956666666669
862.601,22.102933333333354
865.034,38.25563333333338
867.465,54.82076666666672
869.894,88.46752857142864
872.321,118.81753333333337
874.747,101.30194761904767
877.171,70.49473809523813
879.594,65.11273809523813
882.014,69.01578095238104
884.433,102.96840476190485
886.851,141.49691428571438
889.266,178.12805714285724
891.68,163.38828571428581
894.092,179.61361904761918
896.503,180.85409523809534
898.912,192.0648571428573
901.319,194.5341904761906
903.724,195.59809523809534
906.128,152.40204761904772
908.53,166.2344761904763
910.931,181.2403809523811
913.329,210.56547619047632
915.726,197.49797619047627
918.122,160.56389047619052
920.516,99.52768095238099
922.908,65.43948095238102
925.298,70.06313809523816
927.687,81.82973809523814
930.074,65.26520000000004
932.459,56.419290476190504
934.843,50.77030000000005
937.225,57.27261428571434
939.605,70.8329267619048
941.984,67.11975747619049
944.361,40.46820066666667
946.736,21.78477061904763
949.11,7.0234340000000115
951.482,7.138109857142872
953.853,21.46360295238097
956.222,28.429804761904784
958.589,32.60938095238098
960.954,50.38450952380956
963.318,62.80388095238101
965.68,71.9637428571429
968.041,78.34124761904766
970.4,100.84201904761912
972.757,99.80010476190482
975.113,95.88290476190483
977.467,100.23377619047626
979.819,109.61520476190483
982.17,123.88491428571442
984.519,173.424261904762
986.866,200.47196190476203
989.212,233.4088571428573
991.556,297.2828571428574
993.899,367.2370000000003
996.24,415.93776190476217
998.579,452.4807619047622
1000.92,436.2470476190478
1003.25,417.9501904761907
1005.59,377.20961904761924
1007.92,340.2155714285716
1010.25,288.58652380952395
1012.58,241.41776190476202
1014.91,189.9470476190477
1017.24,170.88790476190488
1019.56,158.9069523809525
1021.88,144.00342857142863
1024.2,157.17685714285727
1026.52,164.28371428571438
1028.84,189.8474285714287
1031.16,215.10528571428583
1033.48,243.7709047619049
1035.79,231.3196666666668
1038.1,243.703142857143
1040.41,253.63504761904778
1042.72,274.9715714285716
1045.03,295.0454761904764
1047.33,290.33171428571444
1049.64,277.6390952380954
1051.94,269.6330476190478
1054.24,263.93214285714305
1056.54,261.5830000000002
1058.84,270.7272857142858
1061.13,254.03071428571445
1063.43,244.11128571428583
1065.72,242.68204761904778
1068.01,242.02771428571444
1070.3,237.957142857143
1072.59,263.80223809523824
1074.87,264.5620000000002
1077.16,283.23542857142877
1079.44,276.48804761904773
1081.72,307.4613333333335
1084.0,324.91652380952405
1086.28,402.51904761904797
1088.56,498.74400000000037
1090.84,641.5427142857147
1093.11,724.819047619048
1095.38,753.5239523809527
1097.65,687.3706190476194
1099.92,575.6435714285717
1102.19,478.53252380952415
1104.46,437.1791428571431
1106.72,411.20190476190504
1108.98,407.5993809523812
1111.24,423.3231428571431
1113.5,466.7053809523813
1115.76,507.6973333333337
1118.02,569.2031428571432
1120.28,616.2693809523813
1122.53,638.799666666667
1124.78,605.3173333333336
1127.03,552.1548571428574
1129.28,455.8352380952384
1131.53,404.21500000000026
1133.77,374.2454761904764
1136.02,368.5926190476192
1138.26,346.2079523809526
1140.5,321.3292380952382
1142.74,286.384523809524
1144.98,268.135142857143
1147.22,266.5328095238097
1149.45,295.291523809524
1151.69,293.2200000000002
1153.92,273.9847142857144
1156.15,229.58561904761913
1158.38,184.26033333333345
1160.61,150.1990761904763
1162.83,135.59234761904767
1165.06,111.2969628571429
1167.28,66.55093190476192
1169.5,33.11640666666669
1171.72,39.040672857142894
1173.94,47.65739714285719
1176.16,87.01448904761911
1178.37,119.35015333333338
1180.58,97.09326666666671
1182.8,77.24418095238099
1185.01,69.42224761904764
1187.22,44.15180476190479
1189.42,34.29056666666669
1191.63,40.79147142857146
1193.84,55.797909523809594
1196.04,84.11988095238102
1198.24,109.71051904761912
1200.44,125.23709523809529
1202.64,103.65266666666672
1204.84,97.14850476190483
1207.03,99.72536190476195
1209.23,79.86015714285719
1211.42,67.88712380952386
1213.61,52.56888095238097
1215.8,34.62047142857147
1217.99,42.471204761904794
1220.18,57.40768571428575
1222.36,57.28787619047622
1224.55,60.11258095238097
1226.73,53.596857142857175
1228.91,39.88435238095241
1231.09,42.45203333333337
1233.27,54.44351142857145
1235.44,43.47858047619049
1237.62,31.891318095238113
1239.79,33.872876666666684
1241.96,31.424008571428615
1244.13,65.25950428571434
1246.3,74.90404000000004
1248.47,82.1675571428572
1250.64,93.38440000000006
1252.8,92.98354285714294
1254.96,101.4418476190477
1257.13,131.14052380952387
1259.29,135.60425714285722
1261.44,129.0238952380953
1263.6,134.2098095238096
1265.76,116.68637142857149
1267.91,115.35859047619059
1270.06,126.70315238095249
1272.22,141.1017714285715
1274.37,153.2689523809525
1276.51,158.49100000000007
1278.66,157.00661904761915
1280.81,177.4824761904763
1282.95,181.9669523809525
1285.09,219.03219047619064
1287.23,227.82090476190484
1289.37,210.2863333333334
1291.51,198.33333333333343
1293.65,186.9147238095239
1295.78,146.12608095238105
1297.92,151.44401904761912
1300.05,137.77349047619055
1302.18,158.353161904762
1304.31,171.46889047619058
1306.44,165.45448571428582
1308.57,162.69085714285725
1310.69,184.55909523809538
1312.82,229.20290476190496
1314.94,273.6699523809525
1317.06,266.57971428571443
1319.18,257.8370476190478
1321.3,266.06100000000015
1323.41,278.96600000000024
1325.53,325.69533333333356
1327.64,392.6777619047622
1329.75,450.72309523809554
1331.87,485.68857142857166
1333.98,500.5745238095242
1336.08,485.71414285714314
1338.19,445.2504285714288
1340.3,417.4694285714288
1342.4,397.0377142857145
1344.5,346.81276190476206
1346.6,316.41385714285735
1348.7,316.07861904761927
1350.8,311.2362380952383
1352.9,308.31500000000017
1354.99,314.21985714285734
1357.09,286.5700000000002
1359.18,275.84161904761925
1361.27,311.0821904761907
1363.36,334.76847619047635
1365.45,351.376142857143
1367.54,375.9530000000002
1369.62,390.451285714286
1371.7,419.39495238095265
1373.79,454.0696190476193
1375.87,452.99919047619073
1377.95,432.850285714286
1380.03,412.7655714285717
1382.1,402.2689523809526
1384.18,386.931904761905
1386.25,362.6587619047622
1388.33,347.44957142857163
1390.4,323.8282380952383
1392.47,319.3660952380954
1394.54,313.5390476190478
1396.6,274.7280952380953
1398.67,235.55190476190492
1400.74,228.43919047619062
1402.8,229.43738095238112
1404.86,238.3561904761906
1406.92,265.14728571428583
1408.98,244.23952380952394
1411.04,240.06104761904777
1413.09,244.13566666666682
1415.15,241.41533333333348
1417.2,230.28128571428584
1419.25,250.59004761904777
1421.3,237.6272857142859
1423.35,233.15457142857156
1425.4,243.3625714285716
1427.45,249.29842857142873
1429.49,229.58100000000013
1431.54,226.59119047619058
1433.58,225.13795238095253
1435.62,223.8401904761906
1437.66,216.84090476190488
1439.7,221.23466666666678
1441.74,220.92590476190492
1443.77,238.29566666666685
1445.81,265.3433809523811
1447.84,260.21190476190486
1449.87,234.18676190476202
1451.9,242.88647619047634
1453.93,248.12033333333352
1455.96,254.0310952380954
1457.98,249.99909523809538
1460.01,249.07195238095255
1462.03,261.86833333333357
1464.05,284.1019523809525
1466.07,298.0585714285716
1468.09,299.7852857142859
1470.11,293.51990476190497
1472.13,306.73842857142876
1474.14,288.39290476190484
1476.16,246.4351904761906
1478.17,234.53195238095253
1480.18,221.82504761904775
1482.19,222.98123809523824
1484.2,232.71449523809537
1486.21,193.45301904761914
1488.21,150.33927619047626
1490.22,141.2776476190477
1492.22,142.93439047619057
1494.22,135.59503809523815
1496.22,132.21163809523816
1498.22,99.02177619047625
1500.22,96.21569523809532
1502.22,105.26894761904768
1504.21,114.70506190476196
1506.21,102.99984761904767
1508.2,101.58150000000005
1510.19,99.06848095238102
1512.18,118.27045238095245
1514.17,139.61524285714293
1516.16,135.48345238095243
1518.14,79.87464285714287
1520.13,56.02673809523813
1522.11,47.74852857142862
1524.09,68.65879523809532
1526.07,99.61424285714293
1528.05,104.28121428571431
1530.03,79.37360952380959
1532.01,60.36745714285718
1533.98,69.2622095238096
1535.96,99.20039047619055
1537.93,127.22929523809533
1539.9,140.96764285714292
1541.87,157.03402857142865
1543.84,147.1427142857144
1545.81,145.3410000000001
1547.78,159.24761904761917
1549.74,178.62419047619056
1551.7,194.61304761904773
1553.67,209.88071428571442
1555.63,223.2844285714287
1557.59,213.8714761904763
1559.55,189.06985714285724
1561.5,172.4037142857144
1563.46,168.77690476190483
1565.41,166.38019047619056
1567.37,170.40390476190487
1569.32,159.7049047619048
1571.27,123.99714285714293
1573.22,112.09028571428578
1575.17,113.46004761904771
1577.11,134.20161904761915
1579.06,140.36247619047626
1581.0,142.89514285714293
1582.95,152.46585714285723
1584.89,152.6935238095239
1586.83,134.95942857142865
1588.77,149.7870000000001
1590.7,136.31895238095248
1592.64,155.03157142857157
1594.58,190.92440476190464
1596.51,205.87854761904737
1598.44,174.56066666666618
