Raman Shift,Processed Intensity
331.095,41.39930029987681
333.909,22.088445705378035
336.721,20.03721498273353
339.531,31.078945604622277
342.339,38.07079284622159
345.145,95.1080196388375
347.949,113.61923880447284
350.751,123.89022671898147
353.55,154.44487983236468
356.348,162.18807595097587
359.144,211.40567837687104
361.937,232.0026352852533
364.729,261.6934600542895
367.518,256.8593782616249
370.306,284.643569918961
373.091,348.8559355161865
375.874,449.92548111311726
378.656,466.99556057409563
381.435,437.68578446925994
384.212,318.5682146901022
386.988,208.97689239835154
389.761,130.43641359390358
392.532,99.70955230181607
395.301,79.08297899738045
398.068,52.8434552216836
400.833,52.51593295907969
403.596,35.86355877655296
406.358,25.41148748690739
409.117,-9.791208949954125
411.874,-29.171533678489595
414.629,-51.823030717335314
417.382,-52.50577567674554
420.133,-28.884465330119383
422.882,12.804914484455367
425.629,69.23127095909058
428.374,189.4445826090332
431.117,296.9711267489747
433.858,403.90871456011564
436.597,480.68859282389394
439.334,523.2182980366638
442.069,552.8816533815234
444.802,548.8720990334682
447.533,517.621260559788
450.262,533.7513268442603
452.989,533.7893327732654
455.714,585.7385847790256
458.438,611.8405625733426
461.159,595.908249452752
463.878,518.897557841774
466.595,450.66923102664805
469.31,374.36979250811146
472.024,380.05059059228097
474.735,391.0011286958188
477.444,448.8443004130004
480.152,484.4887674399165
482.857,522.1765755939259
485.561,533.959342261669
488.262,567.5077771804181
490.962,557.1592984575173
493.659,591.2037438279231
496.355,619.2643200069879
499.048,662.8690282337147
501.74,692.783994575921
504.43,795.6325145211185
507.118,859.1331451864285
509.804,959.1473213380318
512.488,1064.0603047439436
515.17,1183.6383240029909
517.85,1278.8380953261694
520.528,1368.378248079885
523.204,1406.1202741387365
525.878,1456.116143904952
528.551,1513.7035413754538
531.221,1601.8868134946451
533.89,1647.47982426909
536.556,1633.915475548863
539.221,1624.6266563803329
541.883,1649.5224304541725
544.544,1706.5594616486183
547.203,1753.5991538584344
549.86,1742.0266955857865
552.515,1764.0843902453944
555.168,1819.5383198030272
557.819,1905.6783417473162
560.469,2013.0799908234794
563.116,2057.842571243237
565.761,2081.3034393709063
568.405,2100.276095933314
571.047,2159.907325848765
573.687,2209.962909484576
576.324,2211.7800005812874
578.96,2200.6956946530627
581.594,2180.2375021499797
584.227,2110.409059715578
586.857,2072.6425081110665
589.485,1988.3699177585745
592.112,1873.737571427272
594.737,1755.320246919487
597.359,1629.264071185387
599.98,1536.429374437666
602.599,1426.4859252186106
605.216,1343.674832133819
607.831,1296.9990170145015
610.445,1314.1755928416815
613.056,1403.7787178608774
615.666,1560.6205449348695
618.274,1685.1321708964692
620.88,1823.4112525679516
623.484,1951.5077180185922
626.086,2131.2332873460114
628.686,2275.494802981334
631.284,2409.579940946737
633.881,2474.9191125891743
636.476,2414.2759377426682
639.068,2298.2234321763276
641.659,2096.7154331375996
644.249,1842.5627868002916
646.836,1557.052392855438
649.421,1288.9948205307542
652.005,1012.962400800559
654.587,778.1939852623636
657.166,579.8330383468046
659.745,463.8800152418544
662.321,376.4304541027577
664.895,321.43687778576805
667.468,293.28021939141945
670.038,239.960295426838
672.607,208.28627896805756
675.174,151.7814585366241
677.739,103.30228269047802
680.303,93.22883318627237
682.864,93.70291718930321
685.424,95.58044519773102
687.982,89.28857087155484
690.538,65.63521181397982
693.092,34.47571320991983
695.645,24.33189241688342
698.195,-9.179386031759805
700.744,4.129987301385881
703.291,-3.5520519376523225
705.836,30.819409783190167
708.38,32.76532077689626
710.921,17.425530161792267
713.461,7.177847491431294
715.999,51.63805804243748
718.535,92.46946369787884
721.069,146.28766267134688
723.602,147.61294827864913
726.133,124.25127913807819
728.662,116.96096365639187
731.189,86.54791594336984
733.714,67.81805458351573
736.238,39.05351093156196
738.759,-6.89211497297174
741.279,-39.97468896741384
743.798,-38.24523923233892
746.314,-34.70708132938762
748.829,-23.12532841336315
751.342,-0.4554530613213501
753.853,-14.224233631415245
756.362,-11.76784347888406
758.869,-43.75565445775237
761.375,-41.094992803484274
763.879,-34.21684739659395
766.381,-7.266344418069821
768.882,-7.959892842497538
771.38,4.843384354540831
773.877,17.5225999414497
776.372,23.07605217559376
778.866,42.59741264352351
781.357,47.99000933928846
783.847,41.96682402847
786.335,46.43144199316839
788.821,95.4780493960302
791.306,144.82000207286046
793.789,208.21839432522165
796.27,290.91062771303586
798.749,376.65802746622785
801.227,471.69822080113636
803.702,594.1260866654875
806.176,707.2270864357583
808.649,735.5248803288218
811.119,719.5908485755012
813.588,658.0440887845939
816.055,578.3133180688114
818.521,511.87496564690264
820.984,464.44364639815876
823.446,399.6864439407336
825.906,368.8895746623357
828.365,345.9583850842623
830.821,305.32211113018866
833.276,269.12435168066986
835.729,254.88973260384455
838.181,239.57152316707834
840.631,236.45639530575545
843.079,220.9263257492239
845.525,176.36335528958716
847.97,142.19720519335897
850.412,120.76241742266575
852.854,90.44120914214955
855.293,75.80632722588189
857.731,97.19247419284511
860.167,96.36297223765632
862.601,110.55737964224227
865.034,118.34863099703534
867.465,99.50017742216323
869.894,86.7755077410302
872.321,73.03338393959984
874.747,60.22783853045212
877.171,45.408171916829815
879.594,64.38561642335753
882.014,75.87619080295053
884.433,86.92926902943918
886.851,77.07043480448556
889.266,102.34909796926058
891.68,94.95753948754827
894.092,133.3261469050426
896.503,131.02817361816733
898.912,176.68449814289397
901.319,173.77314528832176
903.724,188.58166447311942
906.128,153.49284137529094
908.53,125.1751714867205
910.931,99.34476223912952
913.329,116.05104465385284
915.726,116.43867546780439
918.122,137.6522964022979
920.516,122.7889124794865
922.908,136.51693700546411
925.298,184.5999984581349
927.687,210.8969378512711
930.074,232.31418705094848
932.459,238.56767090150697
934.843,228.18280458960862
937.225,210.82782434162937
939.605,204.9328324067542
941.984,195.11836584960474
944.361,196.0049177238143
946.736,180.3557915789388
949.11,187.31519406260668
951.482,161.83680371314904
953.853,157.9218635617467
956.222,163.42870230601602
958.589,194.83463643596497
960.954,168.6169199790029
963.318,146.10988472113922
965.68,117.07636614246576
968.041,92.75531982882421
970.4,79.33800931204814
972.757,87.8251462911594
975.113,80.45545942498711
977.467,47.56283455336006
979.819,23.433454918296775
982.17,4.924846147099288
984.519,0.6563498068744593
986.866,19.009123172677846
989.212,38.07852047549022
991.556,53.95980755456958
993.899,72.60530705605152
996.24,104.53868648868456
998.579,127.95019866052553
1000.92,145.83954116324412
1003.25,106.2063349040568
1005.59,79.4310788281282
1007.92,71.37039035526959
1010.25,49.59510295948394
1012.58,49.29503041518001
1014.91,72.23135009100679
1017.24,87.40327195797272
1019.56,115.80994569280574
1021.88,133.78379635273814
1024.2,122.51433624076981
1026.52,119.52435772331864
1028.84,144.05088795262873
1031.16,172.85471501775191
1033.48,189.50610457172252
1035.79,175.43242122063202
1038.1,175.39432134127674
1040.41,164.67623161309575
1042.72,165.8006370739172
1045.03,184.57570250903382
1047.33,203.0476557450429
1049.64,205.83412332463695
1051.94,201.31460903853394
1054.24,178.96382960026494
1056.54,171.25647889239667
1058.84,187.47675411750652
1061.13,204.62312004441014
1063.43,217.36069230200224
1065.72,199.0212397207208
1068.01,192.84128191210516
1070.3,183.7716154197874
1072.59,208.0487446323873
1074.87,215.05202698212338
1077.16,235.20843719103982
1079.44,243.8020934219967
1081.72,279.2123548582342
1084.0,313.8662049972204
1086.28,393.85730161117
1088.56,432.61264575517293
1090.84,525.0830602991448
1093.11,577.6479541740439
1095.38,647.1629437609631
1097.65,644.6741409468721
1099.92,577.6086316565604
1102.19,474.4411448607689
1104.46,392.55119777480127
1106.72,332.31833629523544
1108.98,349.26499448424465
1111.24,379.9136397682155
1113.5,447.5486800411197
1115.76,522.9783707678962
1118.02,571.6776744687766
1120.28,616.3596916321897
1122.53,618.8328059133748
1124.78,601.8578293329983
1127.03,558.814671285294
1129.28,487.7023408795369
1131.53,421.23418737675956
1133.77,380.4093311026545
1136.02,336.2269515033345
1138.26,326.6386704391816
1140.5,355.9295069072691
1142.74,409.9559746209268
1144.98,473.0508462559726
1147.22,541.2136319826586
1149.45,572.3962960928525
1151.69,564.3604021986421
1153.92,511.86759176427495
1156.15,447.2510150190508
1158.38,364.796285679731
1160.61,305.21767376818934
1162.83,298.2295365242933
1165.06,264.3082255092686
1167.28,225.93018418524593
1169.5,170.19099787576602
1171.72,122.3768246786608
1173.94,76.34535018846123
1176.16,79.00198031404489
1178.37,58.728415048663464
1180.58,59.57312700187663
1182.8,32.441839931482036
1185.01,16.097531084974435
1187.22,-21.506233125669496
1189.42,-33.79672335395799
1191.63,-30.39156717674814
1193.84,-17.336842729886484
1196.04,2.988157182950772
1198.24,26.680443289621053
1200.44,28.979989014364037
1202.64,4.222104240620183
1204.84,3.8850471690886934
1207.03,8.209064747219827
1209.23,29.529719257179067
1211.42,73.32550102851064
1213.61,78.8368705839182
1215.8,100.5900656532001
1217.99,147.30186056813363
1220.18,184.6414685145105
1222.36,202.18291997464826
1224.55,190.50029831276242
1226.73,150.35821345557406
1228.91,137.56894223958534
1231.09,147.04004494882884
1233.27,156.86960090024172
1235.44,171.67953926713153
1237.62,192.18706514073347
1239.79,237.63322844892946
1241.96,297.40196906542315
1244.13,376.9724952522679
1246.3,488.3954716261901
1248.47,639.6263499820639
1250.64,784.3348905925714
1252.8,958.5718263650069
1254.96,1179.1498127123673
1257.13,1416.4529488530175
1259.29,1641.3415372055829
1261.44,1878.056842783847
1263.6,1982.7449002106928
1265.76,1997.980320732041
1267.91,1971.0520039926978
1270.06,1863.105992669341
1272.22,1671.2407080558924
1274.37,1492.22123326793
1276.51,1270.9555012090004
1278.66,1086.5419111083656
1280.81,955.0788498206498
1282.95,863.331355982627
1285.09,782.8739746461988
1287.23,712.7098023875692
1289.37,669.3181038449829
1291.51,658.0828806374229
1293.65,644.3881069499657
1295.78,711.9034413096165
1297.92,761.8223193135191
1300.05,822.8143320714571
1302.18,887.2156998864457
1304.31,954.6959364115196
1306.44,1003.448322330325
1308.57,1116.7137123710536
1310.69,1171.0662470822754
1312.82,1234.8419217516362
1314.94,1296.0433458007296
1317.06,1341.0540259895079
1319.18,1367.828840096869
1321.3,1367.7035582202989
1323.41,1345.0615069326536
1325.53,1289.5240429627547
1327.64,1220.474360209318
1329.75,1127.2955824691753
1331.87,1021.5136180702589
1333.98,879.9876335522108
1336.08,789.7671940136565
1338.19,689.5208320309084
1340.3,601.7265213385781
1342.4,542.8145314625576
1344.5,484.07218711491487
1346.6,404.35815139830765
1348.7,357.3405185342076
1350.8,331.925382781606
1352.9,309.49493116523354
1354.99,283.1931552514038
1357.09,246.02108673338216
1359.18,191.12250920722454
1361.27,147.26014613810003
1363.36,126.3870869218581
1365.45,96.50392723230061
1367.54,88.7540046065642
1369.62,117.04244355429728
1371.7,126.08377209541959
1373.79,157.30668115502021
1375.87,198.56830776777906
1377.95,220.3923278061934
1380.03,237.11181061357274
1382.1,214.5835022084584
1384.18,152.28306086999055
1386.25,112.06695938995017
1388.33,77.26772065813157
1390.4,63.74153420009452
1392.47,51.86825366730454
1394.54,26.456156232029116
1396.6,3.027654363196234
1398.67,-17.03784431231361
1400.74,-33.313455286931
1402.8,10.198998221913826
1404.86,33.59279868192016
1406.92,58.96109602741012
1408.98,51.492146738797146
1411.04,46.56455636724422
1413.09,89.6044268212147
1415.15,189.65678936731592
1417.2,284.8141804882832
1419.25,373.97855107429837
1421.3,408.33746132859574
1423.35,422.64979948259133
1425.4,465.34102432054055
1427.45,456.31269341847747
1429.49,424.13294376411204
1431.54,372.5126866624357
1433.58,293.21037406990627
1435.62,236.3177173095769
1437.66,226.8311200719429
1439.7,188.69930189197498
1441.74,168.29949305473087
1443.77,145.62791521524332
1445.81,149.15692868507995
1447.84,174.07313209985637
1449.87,207.8964144677036
1451.9,204.52757864630166
1453.93,244.72453624849027
1455.96,289.6261215954871
1457.98,364.94257233678286
1460.01,465.6222005462175
1462.03,583.6609209609221
1464.05,715.530826839306
1466.07,928.8944801047596
1468.09,1198.6525348226903
1470.11,1529.2770749632787
1472.13,1871.28780930708
1474.14,2201.918742541123
1476.16,2515.9277034978395
1478.17,2672.977301965438
1480.18,2701.873028355414
1482.19,2607.2299247986366
1484.2,2380.044018146189
1486.21,2074.6923243987885
1488.21,1771.170948374297
1490.22,1405.809373851427
1492.22,1083.889515618201
1494.22,793.8838191394666
1496.22,581.9790745101236
1498.22,394.07642088454145
1500.22,267.8865890012228
1502.22,200.21561989793213
1504.21,138.91725029350027
1506.21,101.22625035057786
1508.2,85.4727138193357
1510.19,71.89158627641018
1512.18,67.71790764955358
1514.17,46.329673789909066
1516.16,7.200221853808898
1518.14,-23.958908124958725
1520.13,-33.15034975811159
1522.11,-5.948048730604796
1524.09,17.1694057386635
1526.07,22.009255346262535
1528.05,33.093141781968825
1530.03,0.9428186636537248
1532.01,-6.8722317659305645
1533.98,-1.2586105137886534
1535.96,27.16290066972101
1537.93,53.24781251822719
1539.9,89.85173468200719
1541.87,101.78275358921633
1543.84,70.13476268806949
1545.81,79.23984030807219
1547.78,100.43015133077392
1549.74,114.56175362242493
1551.7,155.01459494282767
1553.67,214.40679556847567
1555.63,220.73750234425938
1557.59,249.67259987803277
1559.55,265.49708840184235
1561.5,296.68650925221095
1563.46,327.71646558850375
1565.41,343.15785739701937
1567.37,349.24830697127254
1569.32,324.55882248751595
1571.27,285.89855681835957
1573.22,260.2195663463872
1575.17,216.4263316825386
1577.11,191.23289743210626
1579.06,173.59144053216983
1581.0,159.64464811283324
1582.95,145.53523821560748
1584.89,127.64405194036294
1586.83,104.35195511609413
1588.77,118.0874542573988
1590.7,99.32669347333899
1592.64,109.68868947154124
1594.58,110.7210427527707
1596.51,89.35231547217268
1598.44,30.91583787193781
