Raman Shift,Processed Intensity
331.095,95.11157690476152
333.909,9.119352857142673
336.721,-13.00355571428581
339.531,2.6975561904762184
342.339,18.200865238095258
345.145,41.865968095238095
347.949,15.791793809523794
350.751,-9.159776666666694
353.55,-47.45915809523811
356.348,-36.5279880952381
359.144,-18.64386285714284
361.937,11.250114285714321
364.729,52.831347619047676
367.518,75.20680952380961
370.306,149.1989761904764
373.091,269.4410857142859
375.874,368.5676761904764
378.656,409.1196666666669
381.435,370.63884761904774
384.212,245.85889523809533
386.988,140.324180952381
389.761,43.9611904761905
392.532,3.8883809523809783
395.301,18.511476190476213
398.068,5.141701904761904
400.833,3.9016730476190453
403.596,0.43893995238093575
406.358,-12.073801047619039
409.117,-15.51005471428571
411.874,10.019824666666661
414.629,-5.4503924285714325
417.382,3.828610190476205
420.133,-10.86887428571427
422.882,30.732839047619123
425.629,109.9101647619049
428.374,206.94084571428584
431.117,274.3416666666668
433.858,345.2492952380954
436.597,309.23047619047634
439.334,261.80485714285726
442.069,229.44514285714294
444.802,166.14880952380963
447.533,145.1519523809525
450.262,178.35828571428584
452.989,219.05352380952394
455.714,240.9044761904763
458.438,245.2932000000001
461.159,165.792580952381
463.878,118.83297142857148
466.595,75.03628095238102
469.31,68.64364285714292
472.024,71.08704285714292
474.735,96.70400476190483
477.444,120.83184285714297
480.152,144.14210000000008
482.857,157.11607619047626
485.561,147.99714285714293
488.262,152.7431904761906
490.962,167.26490476190486
493.659,198.99660000000011
496.355,167.23081428571436
499.048,153.25958095238101
501.74,118.56561428571435
504.43,124.15562857142866
507.118,123.79838571428581
509.804,153.9768380952382
512.488,165.07909523809533
515.17,212.82617142857157
517.85,204.08217142857154
520.528,193.90183809523813
523.204,146.81603809523816
525.878,120.87920000000005
528.551,86.57459047619052
531.221,95.95637142857149
533.89,95.07898095238102
536.556,108.9016190476191
539.221,95.09737619047624
541.883,80.24404761904765
544.544,75.44308095238102
547.203,127.27208571428581
549.86,136.97489523809529
552.515,153.03381904761912
555.168,138.73974761904768
557.819,120.47918095238106
560.469,136.0191380952382
563.116,173.12673333333342
565.761,152.04459047619056
568.405,125.96790000000006
571.047,108.75789523809532
573.687,125.94229047619056
576.324,143.38211428571435
578.96,155.65243809523818
581.594,136.2327190476191
584.227,87.60212380952386
586.857,67.28757619047626
589.485,90.57658095238102
592.112,111.85261428571435
594.737,130.02234761904768
597.359,122.08767142857148
599.98,99.71650476190483
602.599,103.48193809523818
605.216,114.62236190476197
607.831,122.28130000000007
610.445,134.3639333333334
613.056,101.44189523809528
615.666,90.32460000000009
618.274,105.63081904761913
620.88,112.78831428571438
623.484,128.5578000000001
626.086,144.12875238095245
628.686,137.26185714285725
631.284,172.00323809523823
633.881,215.63676190476204
636.476,220.3511904761906
639.068,208.7630000000001
641.659,197.7746666666668
644.249,176.4787238095239
646.836,157.1104095238096
649.421,129.71458571428573
652.005,88.76450000000003
654.587,64.97126857142862
657.166,50.665104285714314
659.745,52.55671333333337
662.321,40.07134809523809
664.895,17.443584761904784
667.468,20.193694761904787
670.038,43.50862000000002
672.607,38.194296666666695
675.174,37.96142666666667
677.739,39.28255571428575
680.303,45.916064761904806
682.864,60.85842523809529
685.424,89.15356571428578
687.982,99.51236666666671
690.538,82.7408786476191
693.092,74.40700107619048
695.645,31.888354533333324
698.195,6.038739971428584
700.744,-5.335713561904753
703.291,3.4286029809524043
705.836,22.090546742857168
708.38,47.07567809523811
710.921,33.85728190476193
713.461,39.76589142857145
715.999,48.32254523809527
718.535,53.048376190476226
721.069,61.03601666666671
723.602,85.52096666666671
726.133,68.9769285714286
728.662,59.5443047619048
731.189,48.36357142857145
733.714,34.81336190476194
736.238,39.41512380952385
738.759,60.119014285714314
741.279,57.92284761904765
743.798,55.15780952380954
746.314,37.05992380952383
748.829,34.10333333333336
751.342,30.476485714285737
753.853,46.748919047619076
756.362,50.299680952380974
758.869,51.50790000000003
761.375,36.038442857142876
763.879,53.46096666666671
766.381,56.91671904761909
768.882,71.68976666666671
771.38,58.58803333333336
773.877,71.27680952380958
776.372,70.08778571428577
778.866,88.40045714285722
781.357,113.83257619047626
783.847,113.8589952380953
786.335,106.71637142857152
788.821,101.8323952380953
791.306,88.20588571428577
793.789,91.02602380952389
796.27,130.2920476190477
798.749,124.24077619047628
801.227,149.91885714285723
803.702,141.65896666666677
806.176,155.6028761904763
808.649,174.7973666666668
811.119,189.86100952380963
813.588,161.7453333333334
816.055,157.4975238095239
818.521,144.45028571428583
820.984,150.69833333333344
823.446,146.7172857142858
825.906,139.1735714285715
828.365,131.06690476190485
830.821,134.30147619047628
833.276,155.92485714285726
835.729,179.55577142857152
838.181,170.47967619047625
840.631,147.26840000000007
843.079,136.73122857142866
845.525,121.67762857142866
847.97,102.8698095238096
850.412,118.21228571428578
852.854,91.03887142857145
855.293,72.06426476190481
857.731,57.336176666666674
860.167,33.18833904761907
862.601,31.811809047619104
865.034,66.01641523809529
867.465,83.75512428571434
869.894,96.02857904761908
872.321,93.93246666666673
874.747,70.70582857142863
877.171,90.49235238095244
879.594,87.29280000000006
882.014,97.20334285714293
884.433,94.74870000000007
886.851,110.26305714285722
889.266,111.60477142857151
891.68,112.63193333333341
894.092,105.63161904761913
896.503,122.74786666666675
898.912,133.26753333333343
901.319,151.4778857142858
903.724,180.85621904761916
906.128,177.9277142857144
908.53,162.74190476190486
910.931,164.58590476190486
913.329,164.88995238095245
915.726,152.9415714285715
918.122,152.93252380952387
920.516,138.81719047619055
922.908,104.74028571428578
925.298,110.22761904761913
927.687,128.42385714285723
930.074,151.28339047619056
932.459,149.76062857142864
934.843,136.04830476190483
937.225,114.33894285714294
939.605,106.2540571428572
941.984,105.89087619047626
944.361,107.01373809523815
946.736,86.76794285714288
949.11,77.39390000000004
951.482,71.41803809523813
953.853,72.12861428571432
956.222,59.290119047619065
958.589,38.5718666666667
960.954,57.024338095238164
963.318,104.79311428571437
965.68,121.73807619047626
968.041,144.814580952381
970.4,101.88259142857143
972.757,39.75463666666669
975.113,20.91011161904764
977.467,11.971115428571437
979.819,1.6550584761905074
982.17,29.250945523809534
984.519,22.857100380952403
986.866,31.953242571428618
989.212,68.0660430476191
991.556,80.05608095238101
993.899,98.45038571428577
996.24,101.2521904761905
998.579,79.5598428571429
1000.92,80.42447619047626
1003.25,90.32472380952385
1005.59,87.6447571428572
1007.92,88.62547619047622
1010.25,69.26973809523813
1012.58,69.72290000000005
1014.91,69.559280952381
1017.24,73.92396190476197
1019.56,75.15262857142861
1021.88,67.81877142857147
1024.2,67.40072857142864
1026.52,115.56647619047627
1028.84,123.12747142857152
1031.16,141.08514285714296
1033.48,159.01229523809533
1035.79,174.4812761904763
1038.1,185.58854285714298
1040.41,240.66806666666682
1042.72,231.14928571428578
1045.03,202.3185238095239
1047.33,178.08119047619059
1049.64,154.2943333333334
1051.94,119.57714285714296
1054.24,149.1202857142858
1056.54,150.25700000000006
1058.84,149.7011904761906
1061.13,144.2148095238096
1063.43,139.13014285714294
1065.72,154.3991904761906
1068.01,190.02133333333344
1070.3,191.47204761904771
1072.59,203.083761904762
1074.87,210.04619047619062
1077.16,206.8816666666668
1079.44,236.20800000000017
1081.72,259.5951904761906
1084.0,262.1373333333335
1086.28,333.64242857142887
1088.56,453.4899047619051
1090.84,566.0117142857147
1093.11,661.4916190476195
1095.38,671.8799523809528
1097.65,585.2705714285717
1099.92,487.32752380952405
1102.19,382.38252380952406
1104.46,340.004904761905
1106.72,333.14509523809545
1108.98,352.51490476190503
1111.24,379.4931428571431
1113.5,431.5535238095241
1115.76,495.5988095238099
1118.02,557.9597142857147
1120.28,556.3004761904765
1122.53,533.6664285714288
1124.78,481.1021428571431
1127.03,411.1770000000002
1129.28,365.88819047619063
1131.53,293.233142857143
1133.77,233.63780952380964
1136.02,218.0519523809525
1138.26,227.9963809523811
1140.5,232.564142857143
1142.74,228.84733333333347
1144.98,188.22452380952393
1147.22,186.64514285714301
1149.45,199.53500000000017
1151.69,216.98647619047628
1153.92,225.47338095238106
1156.15,210.89761904761912
1158.38,168.49452380952388
1160.61,155.5944571428572
1162.83,128.9569238095239
1165.06,113.15049047619053
1167.28,86.41077619047624
1169.5,90.02102380952388
1171.72,80.88290952380956
1173.94,79.99399047619052
1176.16,60.87550476190479
1178.37,70.23922380952385
1180.58,62.987409523809575
1182.8,80.689200952381
1185.01,68.9134223809524
1187.22,47.41966857142858
1189.42,15.253234761904785
1191.63,21.22140190476194
1193.84,40.1791128571429
1196.04,57.60039142857146
1198.24,68.8641047619048
1200.44,61.58730476190479
1202.64,51.48237142857147
1204.84,53.357023809523845
1207.03,50.68580476190478
1209.23,49.84808095238098
1211.42,51.41387380952382
1213.61,23.715285714285713
1215.8,-2.391650000000009
1217.99,-14.05070857142858
1220.18,-31.691151428571427
1222.36,3.3054733333333672
1224.55,42.89127285714288
1226.73,48.16134952380955
1228.91,53.54425095238098
1231.09,66.89729142857146
1233.27,46.98272380952385
1235.44,69.2293952380953
1237.62,77.49526666666671
1239.79,104.20949047619055
1241.96,120.9444476190477
1244.13,137.51072380952388
1246.3,139.19523809523815
1248.47,152.3798857142858
1250.64,129.30416666666673
1252.8,134.0170571428572
1254.96,120.90122857142865
1257.13,135.72016190476202
1259.29,178.9996285714287
1261.44,215.45553333333345
1263.6,241.32795238095252
1265.76,239.0477142857144
1267.91,209.33133333333345
1270.06,185.56171428571437
1272.22,160.9792380952382
1274.37,147.96728571428582
1276.51,170.1471904761906
1278.66,197.6167142857144
1280.81,207.80733333333347
1282.95,209.5784761904763
1285.09,198.02828571428583
1287.23,184.06447619047628
1289.37,178.26080952380963
1291.51,176.38195238095247
1293.65,169.4788476190477
1295.78,141.74451428571436
1297.92,129.27755238095247
1300.05,133.7949238095239
1302.18,128.299561904762
1304.31,132.1754857142858
1306.44,135.18779047619054
1308.57,140.4347809523811
1310.69,149.9671047619049
1312.82,166.596961904762
1314.94,172.56604761904777
1317.06,200.87738095238106
1319.18,208.91490476190492
1321.3,228.68166666666679
1323.41,253.56166666666687
1325.53,280.8437619047621
1327.64,318.0071904761907
1329.75,364.7215714285716
1331.87,384.1803333333336
1333.98,389.05309523809547
1336.08,378.9141428571431
1338.19,350.1001904761907
1340.3,317.5182857142859
1342.4,286.17152380952393
1344.5,254.3007142857144
1346.6,244.76552380952393
1348.7,217.04485714285724
1350.8,200.47480952380963
1352.9,185.77180952380962
1354.99,170.6531904761906
1357.09,171.31152380952392
1359.18,200.89180952380966
1361.27,211.96823809523823
1363.36,230.20938095238108
1365.45,218.85514285714294
1367.54,202.71752380952393
1369.62,212.274142857143
1371.7,251.00304761904778
1373.79,294.14419047619066
1375.87,334.55652380952404
1377.95,351.38419047619067
1380.03,332.485904761905
1382.1,293.3389047619049
1384.18,271.3254285714287
1386.25,244.39866666666683
1388.33,208.98847619047632
1390.4,188.95250476190483
1392.47,150.95813809523818
1394.54,120.29162857142863
1396.6,93.81056190476195
1398.67,65.75309047619052
1400.74,59.21491428571434
1402.8,75.62408095238101
1404.86,93.02808095238103
1406.92,121.52196666666674
1408.98,130.53355238095244
1411.04,132.15769523809533
1413.09,129.488980952381
1415.15,111.90700952380959
1417.2,132.36338095238105
1419.25,140.90454285714293
1421.3,135.05278095238103
1423.35,138.7116571428572
1425.4,120.73674285714291
1427.45,72.12635238095244
1429.49,93.73620952380959
1431.54,102.61193809523816
1433.58,84.60881904761911
1435.62,95.72477619047623
1437.66,88.43401428571433
1439.7,91.30604285714294
1441.74,104.48140476190483
1443.77,135.1004761904763
1445.81,143.63740476190483
1447.84,129.470580952381
1449.87,122.78815238095245
1451.9,120.3497428571429
1453.93,107.48581904761913
1455.96,122.09865714285723
1457.98,123.47161904761911
1460.01,108.8876857142858
1462.03,127.9156380952382
1464.05,160.8862380952382
1466.07,198.36833333333345
1468.09,224.21628571428585
1470.11,223.37966666666676
1472.13,213.66528571428583
1474.14,204.78504761904776
1476.16,223.0694285714287
1478.17,227.0874285714287
1480.18,215.36023809523817
1482.19,182.1232857142858
1484.2,147.51658095238102
1486.21,117.20470000000006
1488.21,88.42283809523815
1490.22,75.5020047619048
1492.22,57.53530952380955
1494.22,41.42505714285717
1496.22,31.549714285714312
1498.22,37.00244476190479
1500.22,24.733432857142873
1502.22,32.74062285714288
1504.21,36.59341476190479
1506.21,48.90892761904764
1508.2,33.73295380952382
1510.19,19.444684761904757
1512.18,9.04248761904763
1514.17,0.0010271428571506092
1516.16,12.414104761904795
1518.14,41.99471571428573
1520.13,50.122598095238125
1522.11,50.463333809523846
1524.09,61.730202857142885
1526.07,57.92230761904766
1528.05,54.27690190476192
1530.03,36.93610476190477
1532.01,33.51826190476192
1533.98,20.546582857142873
1535.96,27.25862476190479
1537.93,45.3681685714286
1539.9,52.160475238095266
1541.87,50.30179523809528
1543.84,74.79188571428577
1545.81,86.63020952380958
1547.78,102.81679047619053
1549.74,123.54180476190484
1551.7,129.28130476190483
1553.67,119.41628571428579
1555.63,122.70852380952388
1557.59,123.7290476190477
1559.55,128.47847619047627
1561.5,138.2422857142858
1563.46,128.92552380952387
1565.41,125.33790476190484
1567.37,122.81276190476197
1569.32,124.30261904761912
1571.27,129.4745333333334
1573.22,121.28105714285721
1575.17,102.15135238095246
1577.11,105.27618095238103
1579.06,108.1797333333334
1581.0,118.91015238095247
1582.95,121.51534285714293
1584.89,133.71038095238106
1586.83,136.92404761904768
1588.77,131.4903333333334
1590.7,131.07638095238104
1592.64,137.25423809523818
1594.58,142.16747619047626
1596.51,152.6739047619049
1598.44,171.27419047619082
