Raman Shift,Processed Intensity
331.095,73.39935666666629
333.909,-12.5991147619049
336.721,-30.999981904761952
339.531,-13.182258095238087
342.339,-10.049163809523819
345.145,-12.003429523809547
347.949,-29.755640952380976
350.751,-41.396202857142875
353.55,-31.585566666666658
356.348,-15.459104761904772
359.144,-1.055552380952367
361.937,12.730595238095264
364.729,46.67267619047627
367.518,91.97424285714297
370.306,173.5542952380954
373.091,282.7621190476193
375.874,399.1383619047621
378.656,444.98704761904787
381.435,422.1374571428573
384.212,310.1343333333334
386.988,152.23795714285717
389.761,48.5198047619048
392.532,11.195038095238127
395.301,2.4327666666667147
398.068,44.117866666666714
400.833,85.70770000000003
403.596,59.184847619047616
406.358,22.675988095238097
409.117,8.166257142857143
411.874,2.3562880952381224
414.629,4.281171428571441
417.382,24.16793571428573
420.133,37.625409523809566
422.882,52.21622380952388
425.629,101.26584761904773
428.374,184.95826666666682
431.117,259.33489523809544
433.858,305.057904761905
436.597,312.0754285714287
439.334,270.71780952380965
442.069,214.84000000000012
444.802,185.91671428571442
447.533,199.3753809523811
450.262,208.97847619047636
452.989,231.5355714285716
455.714,254.9529047619049
458.438,246.89900000000011
461.159,206.28071428571437
463.878,173.52971428571436
466.595,129.07790476190485
469.31,113.4525714285715
472.024,118.56280000000008
474.735,114.55606190476196
477.444,102.24669523809531
480.152,111.49760476190484
482.857,140.74255238095247
485.561,153.74939523809533
488.262,163.5240857142858
490.962,165.5968571428572
493.659,154.26000000000008
496.355,137.42519047619055
499.048,136.9562857142858
501.74,132.57430476190484
504.43,114.09582857142863
507.118,110.33770476190483
509.804,114.92621904761913
512.488,129.725561904762
515.17,179.64820952380967
517.85,229.60573333333346
520.528,235.03414285714297
523.204,215.3215714285715
525.878,176.04642857142866
528.551,133.501761904762
531.221,125.88515238095246
533.89,106.63184761904769
536.556,78.89157142857148
539.221,79.09951428571435
541.883,81.69062380952387
544.544,92.86218095238102
547.203,101.04859047619053
549.86,91.39887619047623
552.515,87.34734285714293
555.168,114.56665714285724
557.819,143.06216666666677
560.469,171.60106666666678
563.116,184.093361904762
565.761,179.16272380952392
568.405,162.3375333333334
571.047,141.95574285714292
573.687,117.2119047619048
576.324,99.63341904761911
578.96,94.27204761904768
581.594,104.70231428571435
584.227,107.26075238095244
586.857,105.4742571428572
589.485,103.44064285714292
592.112,94.8288428571429
594.737,79.49835238095244
597.359,79.40322380952387
599.98,87.87845238095244
602.599,84.44939047619053
605.216,99.5932190476191
607.831,89.0252047619048
610.445,110.84130952380961
613.056,125.61311428571435
615.666,126.48376666666671
618.274,112.73890476190482
620.88,96.80663809523814
623.484,70.82960000000007
626.086,113.52105714285723
628.686,133.30879523809534
631.284,167.5724142857144
633.881,194.50115238095248
636.476,192.09338095238107
639.068,191.44257142857154
641.659,184.6895714285715
644.249,164.16581904761915
646.836,152.05950952380957
649.421,124.6064952380953
652.005,118.13750000000006
654.587,95.03074285714287
657.166,44.95039523809527
659.745,27.79823333333335
662.321,22.38111428571431
664.895,25.029409523809566
667.468,47.549628571428585
670.038,53.31981904761907
672.607,37.05124761904765
675.174,36.45510000000004
677.739,53.19480000000004
680.303,76.55312380952385
682.864,89.14572857142863
685.424,105.35029047619051
687.982,83.63970000000002
690.538,66.77243809523813
693.092,65.36401904761908
695.645,68.31600952380957
698.195,66.81519047619051
700.744,75.42949047619051
703.291,78.82204761904768
705.836,92.94146380952387
708.38,88.26025904761907
710.921,68.01286095238098
713.461,21.33842190476192
715.999,32.56642285714291
718.535,44.88381619047623
721.069,59.33440666666671
723.602,77.438180952381
726.133,97.38195714285719
728.662,61.590523809523845
731.189,74.20286190476193
733.714,61.501171428571446
736.238,33.1484404761905
738.759,33.42671428571431
741.279,44.18965476190478
743.798,29.86231428571433
746.314,41.44130238095243
748.829,85.73268095238102
751.342,97.92366190476197
753.853,103.2490952380953
756.362,105.27736666666671
758.869,98.67184761904767
761.375,76.04852380952386
763.879,72.64240952380955
766.381,51.4982523809524
768.882,32.13710000000004
771.38,50.08002380952387
773.877,79.18147142857148
776.372,108.67682857142864
778.866,97.70661428571434
781.357,98.64914285714292
783.847,70.31178571428575
786.335,48.73980952380957
788.821,53.8357571428572
791.306,74.8832190476191
793.789,85.16608095238104
796.27,108.53944285714292
798.749,117.95398095238102
801.227,105.97932857142862
803.702,123.42353333333344
806.176,150.6661000000001
808.649,173.56283809523816
811.119,162.35033333333342
813.588,176.88470476190486
816.055,147.59330000000006
818.521,138.7136952380953
820.984,138.5782238095239
823.446,147.80507619047629
825.906,144.58415714285724
828.365,155.96294285714293
830.821,128.89304761904768
833.276,126.13661904761912
835.729,140.169561904762
838.181,148.8489714285715
840.631,126.50863333333338
843.079,100.57740952380958
845.525,74.00788571428576
847.97,58.46766190476197
850.412,93.33807619047624
852.854,73.85838571428573
855.293,69.88673809523814
857.731,67.23383809523813
860.167,61.09151904761909
862.601,53.41359523809529
865.034,90.15406190476195
867.465,70.26707142857147
869.894,85.8973666666667
872.321,66.76120476190478
874.747,57.908580952380994
877.171,41.72253333333338
879.594,58.87232380952386
882.014,86.40799047619055
884.433,130.37953333333343
886.851,140.64706190476198
889.266,157.0706571428572
891.68,138.4625714285715
894.092,148.87350476190485
896.503,153.73517142857153
898.912,156.52672380952387
901.319,129.9657333333334
903.724,118.34115238095247
906.128,118.75183809523818
908.53,158.7723142857144
910.931,163.12052380952392
913.329,172.5143333333334
915.726,164.4809523809525
918.122,151.59528571428578
920.516,154.90880000000007
922.908,137.13915714285721
925.298,120.4332571428572
927.687,106.12795714285718
930.074,78.36982380952385
932.459,56.210128571428626
934.843,85.03344000000006
937.225,71.12921857142861
939.605,65.69176571428574
941.984,71.86749095238099
944.361,66.70770380952386
946.736,60.93049000000005
949.11,75.72977333333336
951.482,59.823457142857166
953.853,27.167495238095267
956.222,31.527309523809556
958.589,35.192057142857166
960.954,54.927171428571484
963.318,90.73576666666673
965.68,107.09754761904767
968.041,115.01571428571435
970.4,105.06494761904766
972.757,76.6293428571429
975.113,60.09298571428574
977.467,30.83958095238096
979.819,9.967453333333353
982.17,5.241246190476198
984.519,8.092363809523837
986.866,30.142468095238126
989.212,42.20369238095242
991.556,67.75453666666672
993.899,103.89272000000005
996.24,97.9538571428572
998.579,97.41608571428577
1000.92,104.61497619047623
1003.25,92.93317619047626
1005.59,102.37216190476195
1007.92,109.98125238095243
1010.25,74.8570428571429
1012.58,64.1909190476191
1014.91,69.36526666666671
1017.24,70.95216666666673
1019.56,111.04755714285724
1021.88,141.27076190476197
1024.2,153.6696904761906
1026.52,158.10138095238102
1028.84,165.9944285714287
1031.16,160.68228571428583
1033.48,184.49766666666676
1035.79,192.3921904761906
1038.1,215.6506666666668
1040.41,218.70085714285727
1042.72,254.73200000000014
1045.03,264.6956666666668
1047.33,263.25704761904774
1049.64,225.46252380952393
1051.94,180.16714285714295
1054.24,162.51223809523822
1056.54,178.9719047619049
1058.84,197.1156666666668
1061.13,225.56076190476205
1063.43,227.63857142857157
1065.72,227.2986190476192
1068.01,245.3006190476192
1070.3,241.49909523809538
1072.59,206.22480952380963
1074.87,188.76100000000014
1077.16,215.0097619047621
1079.44,261.5394761904764
1081.72,313.5378571428573
1084.0,370.81142857142873
1086.28,400.2140000000003
1088.56,498.45714285714325
1090.84,638.3470000000004
1093.11,716.9757142857146
1095.38,720.1497619047623
1097.65,659.7229523809526
1099.92,531.5014761904765
1102.19,426.43457142857164
1104.46,377.70919047619066
1106.72,378.4646666666669
1108.98,402.1261428571431
1111.24,483.5950952380956
1113.5,536.6778571428575
1115.76,565.6088571428575
1118.02,583.099047619048
1120.28,590.2400952380955
1122.53,559.933428571429
1124.78,546.5565714285717
1127.03,478.86838095238124
1129.28,408.0557619047621
1131.53,338.87714285714304
1133.77,274.51980952380967
1136.02,244.50452380952396
1138.26,244.92295238095252
1140.5,227.91533333333348
1142.74,238.04980952380964
1144.98,245.60876190476208
1147.22,259.7320000000002
1149.45,275.8928571428573
1151.69,281.80295238095255
1153.92,251.55504761904774
1156.15,219.00319047619058
1158.38,174.81152380952392
1160.61,169.64385714285726
1162.83,170.9264380952382
1165.06,163.70477142857152
1167.28,147.3577333333334
1169.5,118.16851428571434
1171.72,123.56386952380961
1173.94,116.44631952380958
1176.16,99.90952000000003
1178.37,78.4755328571429
1180.58,63.76204380952385
1182.8,48.00565285714291
1185.01,83.01468380952386
1187.22,72.88317619047623
1189.42,67.51470476190482
1191.63,102.48014761904767
1193.84,92.35018571428574
1196.04,69.79103809523814
1198.24,69.89776666666668
1200.44,60.71775523809528
1202.64,39.29854095238099
1204.84,63.11687714285717
1207.03,57.93497809523814
1209.23,68.99161047619053
1211.42,64.04947904761907
1213.61,58.871455238095244
1215.8,40.553938095238124
1217.99,40.145866666666706
1220.18,35.26773809523812
1222.36,58.68306190476194
1224.55,69.63143333333338
1226.73,75.78152857142862
1228.91,89.61147619047622
1231.09,93.50424761904765
1233.27,71.6048428571429
1235.44,63.91543809523814
1237.62,71.29549047619052
1239.79,77.0329571428572
1241.96,108.463861904762
1244.13,123.20970952380958
1246.3,121.98730476190482
1248.47,125.22797619047626
1250.64,130.3158095238096
1252.8,141.2055476190477
1254.96,157.471761904762
1257.13,164.68871428571438
1259.29,162.85933333333344
1261.44,197.79623809523824
1263.6,201.97909523809534
1265.76,206.4584761904763
1267.91,177.1423333333334
1270.06,156.17666666666676
1272.22,136.04100000000008
1274.37,155.11961904761915
1276.51,152.9875238095239
1278.66,163.79057142857152
1280.81,168.81790476190486
1282.95,168.69214285714293
1285.09,139.74995238095246
1287.23,134.51871428571437
1289.37,132.19242857142865
1291.51,142.82180952380963
1293.65,158.6008095238096
1295.78,157.5333333333334
1297.92,124.47961904761912
1300.05,110.63386666666675
1302.18,95.9518428571429
1304.31,94.10354285714291
1306.44,106.61591904761912
1308.57,93.34980476190482
1310.69,105.54665238095245
1312.82,127.7812714285715
1314.94,146.77114285714296
1317.06,166.18640476190487
1319.18,200.17280952380963
1321.3,192.01923809523825
1323.41,218.49114285714302
1325.53,256.7817142857145
1327.64,291.370523809524
1329.75,348.87966666666694
1331.87,377.31195238095256
1333.98,359.33661904761925
1336.08,354.71885714285736
1338.19,342.31819047619064
1340.3,300.6139523809525
1342.4,284.7513333333335
1344.5,208.2567857142858
1346.6,151.18004761904774
1348.7,135.38107142857152
1350.8,130.3858095238096
1352.9,149.7677380952382
1354.99,187.81485714285725
1357.09,185.10038095238107
1359.18,190.72147619047627
1361.27,163.1086190476191
1363.36,135.12080952380964
1365.45,135.90219047619058
1367.54,153.64509523809537
1369.62,177.7316666666668
1371.7,216.8772857142859
1373.79,254.7974761904764
1375.87,285.6359523809526
1377.95,316.5364761904763
1380.03,305.8807142857144
1382.1,273.85985714285727
1384.18,241.99804761904775
1386.25,192.2956190476191
1388.33,167.80023809523823
1390.4,165.41689523809535
1392.47,137.3833333333334
1394.54,120.46121428571433
1396.6,84.9359666666667
1398.67,54.092204761904824
1400.74,63.02480952380957
1402.8,80.9709952380953
1404.86,109.40568571428581
1406.92,144.70850476190483
1408.98,137.5446190476191
1411.04,117.67406666666672
1413.09,102.71453809523817
1415.15,103.56867619047627
1417.2,116.04419523809533
1419.25,125.94826190476196
1421.3,124.61166666666672
1423.35,88.6036428571429
1425.4,72.68380476190481
1427.45,72.4681571428572
1429.49,77.47817619047625
1431.54,97.37770476190484
1433.58,112.44920952380957
1435.62,96.49946190476197
1437.66,91.33470000000005
1439.7,94.3802714285715
1441.74,104.39519523809533
1443.77,126.51917619047626
1445.81,119.22483333333338
1447.84,101.41350476190482
1449.87,117.3676333333334
1451.9,111.7980333333334
1453.93,112.32030952380958
1455.96,118.2645571428572
1457.98,106.96024761904769
1460.01,108.02305238095248
1462.03,141.30688571428578
1464.05,152.09380952380963
1466.07,172.85628571428583
1468.09,218.25800000000015
1470.11,226.9617142857144
1472.13,242.91671428571442
1474.14,249.02447619047632
1476.16,233.8051904761906
1478.17,215.1604285714287
1480.18,193.22982380952388
1482.19,146.34342380952387
1484.2,107.49827142857148
1486.21,111.54851904761914
1488.21,92.77672857142862
1490.22,79.1327047619048
1492.22,58.61347619047622
1494.22,33.16877619047621
1496.22,19.129361904761957
1498.22,56.492704761904804
1500.22,60.87555714285718
1502.22,71.27561933333338
1504.21,65.2621571904762
1506.21,36.880685333333346
1508.2,22.510233761904775
1510.19,8.053687238095243
1512.18,-4.824034238095226
1514.17,4.542107428571449
1516.16,39.24574190476196
1518.14,71.28551238095243
1520.13,87.23151238095241
1522.11,88.84443809523812
1524.09,69.83745714285718
1526.07,54.495290476190526
1528.05,70.43601142857146
1530.03,57.849397142857164
1532.01,38.92518952380956
1533.98,41.9009647619048
1535.96,55.91910857142863
1537.93,82.55070190476197
1539.9,96.46210666666671
1541.87,80.74843333333338
1543.84,74.4572190476191
1545.81,70.58849047619053
1547.78,80.47578095238102
1549.74,101.64303809523815
1551.7,114.28104761904771
1553.67,137.81860476190485
1555.63,140.5897714285715
1557.59,153.21414285714297
1559.55,165.45414285714295
1561.5,164.2629523809525
1563.46,166.64105714285722
1565.41,156.97012857142863
1567.37,121.39430476190485
1569.32,111.39072857142864
1571.27,108.72216190476198
1573.22,130.1515380952382
1575.17,139.63225238095245
1577.11,147.83234285714295
1579.06,143.7529952380953
1581.0,133.15743809523818
1582.95,120.8089095238096
1584.89,133.47039047619054
1586.83,110.42910000000008
1588.77,117.257961904762
1590.7,125.1011857142858
1592.64,136.0554857142858
1594.58,148.26534285714285
1596.51,149.39881428571425
1598.44,130.9573499999999
