Raman Shift,Processed Intensity
331.095,46.14037028571423
333.909,14.320380499999946
336.721,3.534980571428541
339.531,6.406117000000014
342.339,13.174535333333345
345.145,35.367015238095256
347.949,16.17797714285713
350.751,2.8978419047619006
353.55,-14.658283333333342
356.348,-8.531571428571402
359.144,5.66634428571432
361.937,35.181859047619064
364.729,45.214915714285766
367.518,92.9184838095239
370.306,127.58983333333347
373.091,236.09830952380972
375.874,332.8856952380954
378.656,378.4428819047621
381.435,317.49984857142863
384.212,233.692201904762
386.988,98.51422285714288
389.761,17.889473333333356
392.532,-4.304827619047594
395.301,19.905343809523817
398.068,4.0664700000000185
400.833,22.48824261904762
403.596,10.814985238095222
406.358,-11.021964047619056
409.117,-32.470943333333345
411.874,-13.931333571428567
414.629,-16.372587142857146
417.382,0.09427142857144055
420.133,6.073785714285732
422.882,19.981342857142906
425.629,77.61433809523821
428.374,148.105042857143
431.117,206.34837619047636
433.858,230.1930761904763
436.597,221.44090476190487
439.334,211.99025714285727
442.069,206.59745238095246
444.802,146.0199714285715
447.533,117.3968714285715
450.262,96.15410476190486
452.989,144.4319571428573
455.714,225.03899047619058
458.438,220.73642380952387
461.159,169.76263809523817
463.878,118.16607142857147
466.595,63.80546190476197
469.31,66.20626190476197
472.024,95.37142380952386
474.735,94.73270476190483
477.444,110.53201428571437
480.152,127.15404761904769
482.857,114.50842857142864
485.561,122.02857142857152
488.262,153.38639047619057
490.962,147.82599523809532
493.659,124.54382380952386
496.355,96.4031666666667
499.048,62.83941428571434
501.74,74.52610000000007
504.43,110.99398571428577
507.118,111.4884095238096
509.804,124.01689523809533
512.488,144.87240952380964
515.17,175.34842857142868
517.85,170.50040476190483
520.528,165.24119047619055
523.204,110.72123809523815
525.878,119.52014285714296
528.551,133.3597000000001
531.221,140.58134285714291
533.89,129.95472380952387
536.556,129.48787619047624
539.221,93.75984761904769
541.883,115.92119047619055
544.544,118.55083333333339
547.203,103.75149523809532
549.86,123.00657619047628
552.515,136.41865714285723
555.168,153.7565238095239
557.819,184.78880952380965
560.469,189.95071428571438
563.116,183.62957142857152
565.761,173.8315714285715
568.405,160.2773904761906
571.047,133.54391428571435
573.687,124.49382857142864
576.324,114.03722857142864
578.96,106.75025714285721
581.594,92.59003333333338
584.227,88.37086666666671
586.857,91.76345238095244
589.485,84.00983333333339
592.112,94.82796666666671
594.737,83.98301428571433
597.359,84.81136190476198
599.98,87.1730333333334
602.599,125.88002857142865
605.216,151.31545714285724
607.831,166.4334190476191
610.445,142.235580952381
613.056,114.53266666666671
615.666,89.56370476190483
618.274,91.80561428571437
620.88,89.06833333333338
623.484,96.92343333333338
626.086,98.13245238095243
628.686,86.40907619047626
631.284,107.32405238095245
633.881,130.35218571428578
636.476,133.68289047619058
639.068,145.0287095238096
641.659,158.8640380952382
644.249,163.94838095238103
646.836,170.27961904761915
649.421,155.0450714285715
652.005,120.86122857142861
654.587,86.20087142857149
657.166,63.77522380952385
659.745,52.96140000000003
662.321,47.08911904761908
664.895,33.05908571428573
667.468,40.200530476190515
670.038,42.69962571428573
672.607,45.456699047619075
675.174,38.086164761904776
677.739,35.39283714285718
680.303,49.2290971428572
682.864,71.30426857142861
685.424,71.23240952380957
687.982,76.10364285714289
690.538,63.57947238095241
693.092,48.17846666666669
695.645,29.46680333333334
698.195,28.010554285714317
700.744,38.51871000000003
703.291,32.41441333333335
705.836,33.120926190476204
708.38,39.96619333333335
710.921,27.2306185714286
713.461,27.908905714285723
715.999,22.852966190476188
718.535,20.486076190476222
721.069,33.612764285714334
723.602,77.37065428571434
726.133,88.42158857142859
728.662,70.76061904761907
731.189,60.38301904761909
733.714,56.56959047619052
736.238,76.601380952381
738.759,85.90235714285717
741.279,79.37300000000005
743.798,49.008914285714305
746.314,57.520533333333375
748.829,63.5701590476191
751.342,71.72524476190478
753.853,53.505922857142885
756.362,53.33713142857146
758.869,53.215456190476246
761.375,51.75685904761907
763.879,54.767578095238115
766.381,29.387628571428582
768.882,19.661890476190514
771.38,44.58807142857148
773.877,77.73515238095241
776.372,69.57715238095243
778.866,87.01709047619053
781.357,83.76739047619053
783.847,93.82666666666674
786.335,124.24143809523815
788.821,113.67690000000005
791.306,94.89387142857149
793.789,99.129880952381
796.27,93.62243809523818
798.749,110.75200476190486
801.227,163.94721904761917
803.702,164.58871428571436
806.176,174.2952857142858
808.649,162.1623333333334
811.119,142.04757142857153
813.588,148.2846666666668
816.055,181.54138095238105
818.521,178.67519047619058
820.984,189.40109523809534
823.446,157.43457142857153
825.906,146.15771428571438
828.365,134.8100476190477
830.821,147.53604761904774
833.276,146.57480952380962
835.729,156.3565238095239
838.181,140.8832857142858
840.631,139.9185714285715
843.079,124.65494285714294
845.525,108.85652857142863
847.97,75.09661428571432
850.412,79.37749047619053
852.854,74.1300571428572
855.293,82.54702380952386
857.731,82.20231428571432
860.167,74.71765714285718
862.601,75.19077619047626
865.034,89.10073809523813
867.465,74.16448571428575
869.894,64.9086523809524
872.321,41.38370476190479
874.747,39.87832857142861
877.171,51.062071428571464
879.594,68.4618571428572
882.014,92.1281571428572
884.433,106.39775238095245
886.851,122.51180476190484
889.266,145.66382857142867
891.68,137.61904761904768
894.092,139.18995238095246
896.503,160.61800000000008
898.912,154.95409523809536
901.319,166.01123809523818
903.724,188.1735238095239
906.128,172.4918571428572
908.53,149.2075714285715
910.931,149.75266666666673
913.329,127.0823333333334
915.726,132.34323809523818
918.122,135.8718571428572
920.516,132.38571428571436
922.908,125.55500952380957
925.298,116.33502857142862
927.687,86.87172857142863
930.074,110.0253714285715
932.459,107.98966666666674
934.843,111.76777142857148
937.225,111.2199666666667
939.605,95.44436190476195
941.984,62.96777142857148
944.361,83.2688952380953
946.736,88.92252857142863
949.11,96.40744761904769
951.482,107.96442857142864
953.853,104.50091904761908
956.222,74.82900952380956
958.589,54.42723809523812
960.954,35.34598571428574
963.318,42.87317142857148
965.68,61.82050952380957
968.041,88.09512857142863
970.4,96.0322285714286
972.757,85.2052485714286
975.113,53.18750314285715
977.467,29.028439095238102
979.819,-3.0321979999999935
982.17,6.721620428571461
984.519,33.386375333333376
986.866,65.29679528571434
989.212,89.97790219047624
991.556,88.33550000000002
993.899,84.13265238095244
996.24,93.0842190476191
998.579,102.28621142857149
1000.92,82.64399238095241
1003.25,60.015203809523825
1005.59,38.63828571428574
1007.92,19.418465238095262
1010.25,42.73638666666672
1012.58,61.78282619047622
1014.91,61.224313333333384
1017.24,80.7273995238096
1019.56,106.24396380952386
1021.88,96.05935238095245
1024.2,111.88690952380956
1026.52,112.39310952380958
1028.84,106.00573333333341
1031.16,127.77127142857151
1033.48,149.5936761904763
1035.79,164.13833333333346
1038.1,185.97552380952396
1040.41,223.8660952380954
1042.72,233.04709523809538
1045.03,244.18314285714303
1047.33,255.03509523809535
1049.64,239.648761904762
1051.94,191.64171428571436
1054.24,180.01190476190484
1056.54,142.28161904761916
1058.84,151.63928571428585
1061.13,183.94023809523821
1063.43,189.42080952380962
1065.72,194.0789523809525
1068.01,195.19804761904774
1070.3,182.633142857143
1072.59,198.04861904761916
1074.87,234.6803809523811
1077.16,245.85933333333352
1079.44,267.583523809524
1081.72,290.7552380952383
1084.0,330.22933333333356
1086.28,390.19361904761934
1088.56,525.1220476190481
1090.84,640.6784761904765
1093.11,716.4800000000004
1095.38,744.714047619048
1097.65,701.2355714285718
1099.92,588.2799047619051
1102.19,479.8446190476193
1104.46,400.92723809523835
1106.72,362.1919523809526
1108.98,365.1120952380955
1111.24,399.8281904761907
1113.5,458.28990476190506
1115.76,523.828047619048
1118.02,564.011666666667
1120.28,584.0762380952384
1122.53,570.2098571428575
1124.78,521.6003809523813
1127.03,465.86447619047647
1129.28,417.85657142857167
1131.53,341.33642857142877
1133.77,273.968142857143
1136.02,247.74942857142872
1138.26,237.20204761904776
1140.5,226.7520952380954
1142.74,238.01633333333345
1144.98,246.65961904761923
1147.22,257.44123809523825
1149.45,286.5498095238097
1151.69,289.7928095238097
1153.92,275.1203809523811
1156.15,249.3881904761906
1158.38,221.88019047619056
1160.61,179.6418571428572
1162.83,141.81461904761912
1165.06,108.34900000000007
1167.28,97.52900000000008
1169.5,109.49628571428579
1171.72,133.20172380952388
1173.94,120.92977142857148
1176.16,101.0602333333334
1178.37,101.21122857142865
1180.58,119.57185238095246
1182.8,138.14113619047626
1185.01,126.91815523809527
1187.22,93.14036571428574
1189.42,35.90234523809525
1191.63,18.870382857142893
1193.84,25.80586428571432
1196.04,49.27987523809528
1198.24,60.38746238095243
1200.44,79.74765047619051
1202.64,77.9319047619048
1204.84,88.70232000000006
1207.03,77.5830524761905
1209.23,58.33648652380954
1211.42,29.629920666666667
1213.61,-6.9643879523809575
1215.8,-11.826453619047598
1217.99,3.235361761904775
1220.18,12.508075333333359
1222.36,35.802733333333364
1224.55,59.9304047619048
1226.73,79.89303809523815
1228.91,86.26407142857146
1231.09,84.42663809523812
1233.27,53.14493333333336
1235.44,43.27850952380957
1237.62,40.496490476190516
1239.79,67.61134761904768
1241.96,78.72082380952386
1244.13,108.49454285714293
1246.3,107.79279047619055
1248.47,119.19023809523816
1250.64,106.7375428571429
1252.8,102.05720000000005
1254.96,97.3426952380953
1257.13,122.35926666666676
1259.29,147.01516666666677
1261.44,173.45700000000008
1263.6,191.16447619047628
1265.76,190.188761904762
1267.91,177.3430857142858
1270.06,155.96422857142863
1272.22,143.34155238095246
1274.37,127.47867619047628
1276.51,158.7126285714287
1278.66,157.7134952380953
1280.81,161.05628571428582
1282.95,151.45906666666676
1285.09,143.25877142857152
1287.23,146.50636190476203
1289.37,171.77655238095244
1291.51,149.2155238095239
1293.65,139.44557142857153
1295.78,133.85127619047626
1297.92,111.43575238095245
1300.05,121.67831428571435
1302.18,101.39122380952385
1304.31,83.10103809523815
1306.44,78.00102380952384
1308.57,75.47500952380959
1310.69,89.430061904762
1312.82,130.67825714285723
1314.94,151.8884380952382
1317.06,181.5386761904763
1319.18,181.86938095238105
1321.3,185.26352380952395
1323.41,203.24638095238112
1325.53,230.39109523809537
1327.64,287.74714285714305
1329.75,326.26800000000014
1331.87,341.66952380952404
1333.98,342.76257142857156
1336.08,329.54814285714303
1338.19,291.07476190476206
1340.3,278.2960476190477
1342.4,234.40276190476203
1344.5,207.9196190476192
1346.6,199.22823809523823
1348.7,190.37714285714299
1350.8,172.7475238095239
1352.9,201.91128571428584
1354.99,184.3445238095239
1357.09,161.47633333333346
1359.18,186.68714285714296
1361.27,181.4061904761906
1363.36,177.82357142857157
1365.45,219.55838095238107
1367.54,212.32452380952392
1369.62,213.7885714285716
1371.7,249.09257142857157
1373.79,280.71233333333356
1375.87,320.9806666666669
1377.95,329.0399047619049
1380.03,316.22290476190494
1382.1,280.4338095238096
1384.18,230.57633333333348
1386.25,191.60161904761915
1388.33,185.8899047619049
1390.4,151.39263333333344
1392.47,135.394680952381
1394.54,122.65691904761913
1396.6,108.3207571428572
1398.67,88.38490476190482
1400.74,96.41967142857149
1402.8,103.94760476190483
1404.86,112.11005714285723
1406.92,153.81039523809534
1408.98,160.19005238095247
1411.04,153.96191428571436
1413.09,133.50540476190483
1415.15,101.43801428571435
1417.2,91.56744285714294
1419.25,102.70169047619054
1421.3,108.69639047619056
1423.35,139.78781428571438
1425.4,162.4026190476191
1427.45,151.15813809523817
1429.49,156.57651428571432
1431.54,126.37019523809532
1433.58,99.15651428571437
1435.62,101.93332857142865
1437.66,110.36549523809532
1439.7,117.11771428571438
1441.74,152.09300000000007
1443.77,158.67033333333342
1445.81,160.70487047619054
1447.84,123.90895619047623
1449.87,100.28062666666673
1451.9,72.15116761904765
1453.93,70.09024571428577
1455.96,90.47681333333341
1457.98,117.73720380952388
1460.01,124.15523809523819
1462.03,165.2050000000001
1464.05,193.12276190476203
1466.07,205.19247619047633
1468.09,231.84052380952394
1470.11,235.39847619047632
1472.13,234.10257142857157
1474.14,228.66504761904775
1476.16,222.79828571428584
1478.17,226.4528095238097
1480.18,223.34090476190488
1482.19,198.08014285714296
1484.2,181.5261333333334
1486.21,141.10549523809527
1488.21,105.6260952380953
1490.22,95.56253809523814
1492.22,63.246500952380984
1494.22,29.200365238095266
1496.22,30.47040666666669
1498.22,34.531290000000034
1500.22,34.6674023809524
1502.22,41.82986142857145
1504.21,34.06509095238096
1506.21,29.65764380952384
1508.2,45.415971904761946
1510.19,48.00582666666668
1512.18,30.473928571428587
1514.17,29.581404761904775
1516.16,25.80376190476194
1518.14,38.092780952380984
1520.13,51.63846095238097
1522.11,33.964244285714294
1524.09,18.49838857142858
1526.07,11.71690809523811
1528.05,22.857726666666693
1530.03,29.444610952380973
1532.01,46.09666571428575
1533.98,43.52824285714288
1535.96,52.88235714285719
1537.93,62.73069523809529
1539.9,64.40683809523813
1541.87,65.48260000000005
1543.84,66.24413809523813
1545.81,63.45375238095244
1547.78,70.77867619047623
1549.74,88.88612857142863
1551.7,96.91974761904768
1553.67,103.40381428571435
1555.63,105.19626666666673
1557.59,92.39297619047622
1559.55,82.28030476190483
1561.5,93.0973190476191
1563.46,113.89286666666673
1565.41,120.38166666666675
1567.37,143.3269238095239
1569.32,130.72925714285722
1571.27,127.77996190476198
1573.22,97.90866666666672
1575.17,92.21191428571434
1577.11,64.45217142857148
1579.06,73.5832571428572
1581.0,98.70108571428578
1582.95,127.94947619047625
1584.89,121.47247619047626
1586.83,132.9379333333334
1588.77,110.44197142857146
1590.7,94.03340476190482
1592.64,88.80829047619054
1594.58,80.36272142857145
1596.51,87.15019285714297
1598.44,119.3384047619051
