Raman Shift,Processed Intensity
331.095,136.97399473720407
333.909,75.7148254031863
336.721,94.75776452476657
339.531,152.26949244031266
342.339,165.96433587920183
345.145,198.080472109702
347.949,238.18946642016863
350.751,264.1962857907147
353.55,305.0535982791707
356.348,345.23797716895706
359.144,360.65467654552685
361.937,374.5424068728116
364.729,434.7114439030079
367.518,473.06745187207343
370.306,501.2305447904655
373.091,563.5829191624593
375.874,614.8402962292757
378.656,637.0043165931575
381.435,621.2673157938393
384.212,498.53614750405814
386.988,373.4798162488637
389.761,235.5294910773141
392.532,140.64042399608525
395.301,113.62529697449918
398.068,70.29709275907499
400.833,29.183394259519446
403.596,28.526398220426017
406.358,-1.2408806308312705
409.117,-30.685072102858157
411.874,-63.801008297105454
414.629,-92.05932910886668
417.382,-93.45409091452484
420.133,-84.02657258338058
422.882,-64.34147261018143
425.629,-46.48692612140212
428.374,8.258802217424545
431.117,100.09395167961566
433.858,142.83608448935047
436.597,164.73157233443817
439.334,124.78889240288527
442.069,61.016685324221726
444.802,27.328479777494522
447.533,16.733131384957233
450.262,38.096690177206256
452.989,99.42808032660196
455.714,159.49811491602668
458.438,155.50612975525019
461.159,127.93709338777217
463.878,76.32347900242212
466.595,51.86427920210053
469.31,35.377354105854465
472.024,64.96606516525208
474.735,60.114485606517064
477.444,53.49690019978789
480.152,27.644447885508725
482.857,35.65938947782797
485.561,33.88176173689135
488.262,75.60365336750465
490.962,126.16443709457008
493.659,157.5221957430358
496.355,160.72991780624943
499.048,161.93550253814055
501.74,158.5722412358673
504.43,216.54929852247142
507.118,263.5850507723826
509.804,350.4928054893094
512.488,432.65699687458846
515.17,490.36652425270086
517.85,548.8147571634322
520.528,630.2423975969045
523.204,660.9374850857366
525.878,714.2354017972157
528.551,749.1379252445199
531.221,770.122757188411
533.89,802.2863858722776
536.556,859.820281590501
539.221,872.2966160663404
541.883,839.9539818298304
544.544,804.697397309958
547.203,783.193550022082
549.86,799.3469921362962
552.515,852.3001455696103
555.168,894.7666404114525
557.819,854.0789390634541
560.469,856.2359603792447
563.116,859.8078466613779
565.761,863.6026354201736
568.405,873.6186454182639
571.047,839.2825770008726
573.687,743.8304695689412
576.324,675.7362780998737
578.96,614.0928306206706
581.594,562.9927856810564
584.227,559.7191136361284
586.857,531.2689112623552
589.485,545.2105497068883
592.112,553.6836795797458
594.737,594.2563789031383
597.359,599.7346820131679
599.98,633.4482989377193
602.599,662.0601442981592
605.216,739.0901519253212
607.831,833.4390894754847
610.445,928.2933254273089
613.056,975.4581675073409
615.666,1024.9769154012406
618.274,1102.2737229888062
620.88,1199.5345558171093
623.484,1356.2786247641038
626.086,1480.406010178418
628.686,1588.2929050667708
631.284,1676.696382090904
633.881,1762.0877319930992
636.476,1758.9858020216811
639.068,1734.3379534041478
641.659,1613.4248283441075
644.249,1424.5746408277355
646.836,1201.7822293350032
649.421,1016.1852524080509
652.005,823.4451461243125
654.587,659.1757006172738
657.166,521.9430651686507
659.745,397.8371818720011
662.321,278.99560024871244
664.895,209.98443472114013
667.468,172.51265541907833
670.038,137.76542660527593
672.607,122.92792129143345
675.174,109.56627871133333
677.739,67.81808560350737
680.303,41.63047654150887
682.864,16.379186645153368
685.424,17.820937625074293
687.982,14.902970913327408
690.538,8.239249161038515
693.092,-1.270483278688971
695.645,-7.821638326911398
698.195,-36.70476891886074
700.744,-18.11507768623096
703.291,18.65712115926999
705.836,41.46450742187835
708.38,16.302763370148114
710.921,-9.451320683360336
713.461,-60.3731693738182
715.999,-47.8951721967137
718.535,3.2171370291498533
721.069,39.57937033258804
723.602,46.426380156217874
726.133,69.37416377363297
728.662,34.03891056373823
731.189,27.703668332688267
733.714,21.12786677869235
736.238,7.3092219091972765
738.759,27.293259505690912
741.279,40.36379096946257
743.798,-6.623752957489614
746.314,-24.289940852499058
748.829,-13.683721177030293
751.342,11.241386964328285
753.853,52.72252913785405
756.362,63.61608283611804
758.869,41.25479616199436
761.375,32.59064079838163
763.879,60.004331644594004
766.381,51.06722740512896
768.882,60.44608832129461
771.38,55.1411672361678
773.877,33.39096732622875
776.372,51.43414269013647
778.866,86.65235131845384
781.357,91.42739377766156
783.847,113.85549475132075
786.335,121.27110839075249
788.821,104.53262842763024
791.306,116.02238400085207
793.789,147.02758786437153
796.27,211.07366554740202
798.749,268.97187022891376
801.227,342.81927856450875
803.702,436.0940246085315
806.176,515.7981527838083
808.649,583.6480898989894
811.119,580.5508314516192
813.588,530.0801279312004
816.055,500.1431473127368
818.521,457.0280899312329
820.984,409.1660890704766
823.446,368.3216829803928
825.906,277.878524989635
828.365,218.1250936181891
830.821,215.54040268997278
833.276,196.3178066835385
835.729,177.93642513039413
838.181,177.78018606094702
840.631,141.99496468853522
843.079,146.82191256965098
845.525,125.07364390702469
847.97,139.51518375747492
850.412,117.10205909689603
852.854,113.9326755995462
855.293,94.58164679827678
857.731,117.71883753048496
860.167,95.63316928882477
862.601,70.08975890525244
865.034,40.996581044600134
867.465,11.642559269575031
869.894,13.126133296236276
872.321,59.87906434471233
874.747,82.09500357995876
877.171,69.30091903089033
879.594,81.30947489046912
882.014,49.6952203396022
884.433,50.31839741864542
886.851,62.22970127987128
889.266,62.14646901135575
891.68,72.73839227039389
894.092,89.0084680121522
896.503,101.15013969451275
898.912,142.21396229243237
901.319,164.53617207421667
903.724,161.2624944730219
906.128,156.25290433931832
908.53,124.46257666954398
910.931,95.65617066809
913.329,105.97925666642823
915.726,123.43450494699482
918.122,133.9293031385082
920.516,135.51384980176636
922.908,138.8573432535336
925.298,123.86702753328882
927.687,124.97390503663291
930.074,137.98987772013106
932.459,128.82203116329765
934.843,119.04406148772159
937.225,151.27722608571958
939.605,145.42843720612382
941.984,143.73787934960092
944.361,133.4932933306286
946.736,98.17283176805313
949.11,87.01648600422186
951.482,89.7403701669723
953.853,73.48910046971741
956.222,64.69293641629793
958.589,52.02016010106536
960.954,71.75802693754031
963.318,68.47943067277947
965.68,76.04290173508298
968.041,91.92593891503634
970.4,101.60596009416645
972.757,70.46506249741742
975.113,66.45668770752809
977.467,10.581810488932888
979.819,-10.63487238833477
982.17,-26.621134277121882
984.519,-6.376266834556191
986.866,27.052727821390818
989.212,48.190180208602214
991.556,62.750795910132865
993.899,88.21108169669833
996.24,82.95220022059175
998.579,87.83139613817207
1000.92,92.22961270854785
1003.25,65.71815601129902
1005.59,55.53488297372883
1007.92,42.10800844573532
1010.25,32.00848370324911
1012.58,45.949993999292246
1014.91,49.36038468646643
1017.24,46.143566752585
1019.56,44.77475568963291
1021.88,35.44332941035077
1024.2,38.3385433076744
1026.52,83.84000721893631
1028.84,127.0414992769413
1031.16,127.46525595151752
1033.48,130.87150018631087
1035.79,140.7822552498651
1038.1,146.48134906288942
1040.41,145.77632328743812
1042.72,169.90319955894074
1045.03,167.85981714681134
1047.33,166.69155156743454
1049.64,164.96750938763444
1051.94,164.49481826623878
1054.24,143.9852979480138
1056.54,140.91260744808642
1058.84,135.2265350934947
1061.13,124.49585999331498
1063.43,145.7178801754617
1065.72,167.6041311996662
1068.01,170.5803904847553
1070.3,190.83430068353778
1072.59,174.69632639103634
1074.87,152.44928228128583
1077.16,166.9473850536533
1079.44,159.85435299821006
1081.72,167.02436270396038
1084.0,260.3591962432531
1086.28,324.76062645144225
1088.56,423.3208974446329
1090.84,523.3227289469553
1093.11,571.2393206178369
1095.38,590.8295944745075
1097.65,576.5191516002201
1099.92,499.30503837628794
1102.19,411.6605127141122
1104.46,344.344572191977
1106.72,308.87814885851026
1108.98,345.73458975042786
1111.24,387.48251836265445
1113.5,426.7858389755943
1115.76,438.6894552681149
1118.02,449.76213178767125
1120.28,459.23935542043455
1122.53,487.07095876618223
1124.78,496.4449339893831
1127.03,469.40648476551974
1129.28,384.90564965597787
1131.53,329.7020683400822
1133.77,288.8411764185553
1136.02,275.4637335503087
1138.26,276.329637303518
1140.5,260.1988798638406
1142.74,240.9744095045428
1144.98,271.84499205662337
1147.22,298.28521523608106
1149.45,343.29358820927996
1151.69,350.20206972973665
1153.92,370.4855962749193
1156.15,374.23827684970774
1158.38,362.50673064700027
1160.61,345.67104375593703
1162.83,323.49239253679843
1165.06,268.54161937684626
1167.28,246.29447511283956
1169.5,177.46495669164256
1171.72,123.0529305451189
1173.94,83.58223215549856
1176.16,57.814956096937294
1178.37,46.46574607707589
1180.58,44.677989740506064
1182.8,39.833346805565725
1185.01,27.266039105906657
1187.22,-1.7371450822320185
1189.42,-24.22256099846163
1191.63,-30.617322118588618
1193.84,-36.25310552957558
1196.04,-23.88995984931057
1198.24,-9.573449719037171
1200.44,-16.77751844145314
1202.64,-4.594972182010451
1204.84,10.500606263243299
1207.03,8.940560989555024
1209.23,-5.272181589969023
1211.42,-0.7059800536158036
1213.61,4.785227064812034
1215.8,53.63334004898638
1217.99,87.69894527125575
1220.18,89.12844867236254
1222.36,48.02073305068734
1224.55,19.189053446722937
1226.73,33.827694432320186
1228.91,53.32148454278513
1231.09,80.10293172281285
1233.27,79.27126695586162
1235.44,61.21148789352537
1237.62,76.21340248491197
1239.79,107.47162498697094
1241.96,151.22842911768407
1244.13,239.91660120924848
1246.3,320.4451505041229
1248.47,424.58025754630626
1250.64,543.3262225726235
1252.8,623.6397472373419
1254.96,719.6204068129871
1257.13,849.8915985816284
1259.29,997.5529187975935
1261.44,1159.1325396501816
1263.6,1261.8253005120955
1265.76,1295.492703949773
1267.91,1260.3295784003847
1270.06,1199.2926456107377
1272.22,1107.910040457125
1274.37,989.8051164794651
1276.51,821.6964418916339
1278.66,729.5406527346529
1280.81,643.6753060298781
1282.95,593.5331615036157
1285.09,548.261225216499
1287.23,497.19693605001044
1289.37,430.05863790728404
1291.51,461.0408138186717
1293.65,491.5283676663573
1295.78,532.1442392423046
1297.92,587.2255907347737
1300.05,607.8714217862728
1302.18,614.2282797895903
1304.31,617.9188273266955
1306.44,587.3275524647704
1308.57,580.3150504808186
1310.69,565.0751627291288
1312.82,573.1349726515971
1314.94,571.5928970261396
1317.06,571.1663010246398
1319.18,536.477208508981
1321.3,550.9570599461388
1323.41,550.0848036565969
1325.53,577.5773680151515
1327.64,611.6753717469453
1329.75,632.3335961282671
1331.87,603.6019333778245
1333.98,575.6730017146813
1336.08,523.2154747019176
1338.19,433.7550296379004
1340.3,420.10291499517916
1342.4,372.16547024033366
1344.5,335.6107885109602
1346.6,273.0115697688516
1348.7,216.7498787150796
1350.8,137.15999794317395
1352.9,123.43318585420525
1354.99,97.14148219091044
1357.09,86.33294214325542
1359.18,60.436394263518196
1361.27,52.73762695280402
1363.36,47.188908280889564
1365.45,61.50422009177578
1367.54,57.44497359077013
1369.62,66.67715825860682
1371.7,89.96182409890116
1373.79,98.15508769512894
1375.87,136.35099541046088
1377.95,162.6910532542572
1380.03,156.12613770095186
1382.1,160.845073175597
1384.18,138.9889238251301
1386.25,86.65099957535108
1388.33,33.63876694981127
1390.4,11.6643313172749
1392.47,-21.36984276558519
1394.54,3.105268379839572
1396.6,0.5157344062342872
1398.67,-17.76008257857052
1400.74,-46.91532882682691
1402.8,-16.90512637906295
1404.86,-7.922756659452034
1406.92,14.457484152165534
1408.98,5.327904151143002
1411.04,7.25693867065911
1413.09,11.241531868882248
1415.15,53.46904267632749
1417.2,112.69819911063428
1419.25,139.54481565053106
1421.3,155.5770344193238
1423.35,185.98199493981224
1425.4,191.6610753177797
1427.45,204.32513342548077
1429.49,207.2564147518026
1431.54,205.59426977623002
1433.58,188.23991896186476
1435.62,167.95169393892024
1437.66,115.67837392630099
1439.7,103.70204596271242
1441.74,79.3523937091943
1443.77,72.81622434689393
1445.81,67.70890023674065
1447.84,95.83624676959789
1449.87,109.95646021641392
1451.9,132.73249176885201
1453.93,150.970145865635
1455.96,150.42760709032086
1457.98,182.101157545266
1460.01,275.22517993987367
1462.03,347.08168448837523
1464.05,444.42888342664287
1466.07,567.0726226718682
1468.09,703.2473372917625
1470.11,880.1398641166136
1472.13,1118.7942067322947
1474.14,1359.968681425648
1476.16,1581.850205987018
1478.17,1758.6733504175463
1480.18,1852.0060543031364
1482.19,1837.463915616983
1484.2,1758.5197176173483
1486.21,1624.265336697706
1488.21,1369.98317404643
1490.22,1121.1461587350389
1492.22,844.0367984255004
1494.22,596.8424205537194
1496.22,388.27422303683625
1498.22,264.2339440281471
1500.22,167.48053167201897
1502.22,131.34443290642753
1504.21,78.48950131311244
1506.21,53.246333539163516
1508.2,19.707510480509427
1510.19,-1.0819234393568422
1512.18,-25.457790514464023
1514.17,-9.470110001439934
1516.16,-16.549761808120593
1518.14,0.3962757365056859
1520.13,5.365877617742626
1522.11,3.737960259040392
1524.09,2.891526828877204
1526.07,-0.2705250067556335
1528.05,2.2024050451550465
1530.03,2.6895711829477023
1532.01,0.5703089517141962
1533.98,4.747843859024215
1535.96,0.8873859755685771
1537.93,-14.155299216262392
1539.9,-0.8577004501905776
1541.87,-10.649608309877294
1543.84,28.27735950379588
1545.81,52.63642329539016
1547.78,66.71230541741897
1549.74,109.12313240809635
1551.7,107.62995617669935
1553.67,127.66056090321831
1555.63,149.11898422372587
1557.59,169.09980032050112
1559.55,180.26906967882542
1561.5,215.05481265329763
1563.46,207.69462589129125
1565.41,240.94996542308058
1567.37,226.53471546624428
1569.32,233.63899532531264
1571.27,200.31010914855074
1573.22,178.40492425617413
1575.17,145.3993923257019
1577.11,126.15045152970197
1579.06,132.8484048640064
1581.0,161.73120323783792
1582.95,164.84634761155462
1584.89,168.71755303915438
1586.83,122.67807937744851
1588.77,82.25168104285171
1590.7,72.67641391103143
1592.64,86.76177554989272
1594.58,106.96013116684276
1596.51,96.24766336558719
1598.44,26.291036188629505
