Raman Shift,Processed Intensity
331.095,127.64585645850457
333.909,154.68077728746402
336.721,147.36434988532937
339.531,130.19658701607386
342.339,155.70133649541685
345.145,171.09296062149588
347.949,198.2763489388517
350.751,242.9659786214729
353.55,270.5430700939387
356.348,272.7698855097019
359.144,296.64688437223094
361.937,281.9841648704305
364.729,324.2586194997916
367.518,379.99490020735584
370.306,460.4320978223773
373.091,518.5713738679519
375.874,604.9378780869224
378.656,611.9140945392296
381.435,589.3589019849674
384.212,491.0837771245915
386.988,367.376616886741
389.761,224.28746547795117
392.532,163.72376524191122
395.301,100.35513132822962
398.068,87.89907874217124
400.833,79.12103510867155
403.596,37.548639150635154
406.358,-11.480627499423008
409.117,-47.390856106789215
411.874,-68.51055521338503
414.629,-53.40597239548151
417.382,-53.023944938241584
420.133,-63.21571045794781
422.882,-60.40358048217013
425.629,-34.39047695589943
428.374,23.11623855225571
431.117,95.40950040234566
433.858,134.92536597162825
436.597,143.52870223108948
439.334,129.60839613146845
442.069,88.64875546549456
444.802,61.991385920592165
447.533,67.31135384587333
450.262,101.80763473341585
452.989,132.96499027097752
455.714,170.7920358708875
458.438,177.630736770383
461.159,154.10876127479332
463.878,127.23469114357931
466.595,141.44561292875778
469.31,137.46423312284378
472.024,116.01313616393145
474.735,108.76713767886804
477.444,97.87706629785725
480.152,92.25545023095674
482.857,104.6241086064856
485.561,89.1331713808554
488.262,69.40867067698173
490.962,68.79060831316337
493.659,101.85674659779215
496.355,137.37497771745348
499.048,184.01760501461285
501.74,209.4565868630516
504.43,246.55401863853695
507.118,248.02880516568302
509.804,285.7423807838736
512.488,362.36538179412673
515.17,497.7109855726326
517.85,598.9730115890438
520.528,667.9640224247746
523.204,674.3058057436756
525.878,674.9531895960404
528.551,667.8607148654628
531.221,697.458831525224
533.89,704.1777139422934
536.556,710.3520285622826
539.221,730.4590349277332
541.883,743.2138295535433
544.544,763.0931612309619
547.203,760.192579664928
549.86,739.5597745875884
552.515,730.9088672527846
555.168,713.572797168617
557.819,719.1699945443106
560.469,781.9377194037388
563.116,795.6368292703701
565.761,780.599403995066
568.405,753.585894393404
571.047,661.7375089782345
573.687,610.5762197398594
576.324,576.385720307163
578.96,525.4495269658737
581.594,505.95574634350214
584.227,489.18755737999163
586.857,447.4755980602631
589.485,446.1503521467653
592.112,439.7802501977285
594.737,452.4097705854292
597.359,508.08325480016356
599.98,562.702056087559
602.599,618.1197833239767
605.216,629.9518306062055
607.831,663.194430650673
610.445,676.0341843831211
613.056,702.3718762425815
615.666,749.060575199629
618.274,833.8580214889139
620.88,948.9028228655125
623.484,1077.5239841946027
626.086,1185.3837703744634
628.686,1252.6681883071064
631.284,1278.3727069641373
633.881,1321.1594060240614
636.476,1319.11888641433
639.068,1270.5797999010279
641.659,1193.9183786785425
644.249,1044.6060601973386
646.836,884.8285405631595
649.421,772.8191136505111
652.005,627.1443911685328
654.587,499.5614512982879
657.166,377.2559397110135
659.745,285.03255153874534
662.321,220.88646572590824
664.895,176.86049366661246
667.468,151.1879421276717
670.038,98.10214283828327
672.607,76.45550588923015
675.174,69.14809694161067
677.739,77.12764300698973
680.303,69.67525251327197
682.864,49.643516322957566
685.424,24.26603732282092
687.982,-6.080659034024393
690.538,-13.258066324333868
693.092,1.0152685168372955
695.645,6.068519744825608
698.195,-2.2928345386872024
700.744,-8.120334385117076
703.291,-52.41776412905983
705.836,-44.23637875832401
708.38,-32.81775018429562
710.921,-7.689000221052993
713.461,23.7181521093662
715.999,42.21024452357369
718.535,42.45111510117795
721.069,45.628567332151306
723.602,57.59722564037929
726.133,48.54520043102002
728.662,32.94646742358236
731.189,16.13229460404773
733.714,20.957907272234024
736.238,18.94534356534814
738.759,28.426309981545273
741.279,21.685036903481887
743.798,14.958276979015864
746.314,-7.2313631647684815
748.829,2.3531468877167754
751.342,4.615640673633152
753.853,11.221990596979595
756.362,29.028677007182978
758.869,44.60659537293441
761.375,52.05057774173838
763.879,74.45558086612982
766.381,77.44049337751039
768.882,51.290990579024765
771.38,51.911913047965754
773.877,32.92250238102906
776.372,34.27544646338674
778.866,39.39973426155666
781.357,57.20065347342643
783.847,62.91693103541593
786.335,118.45406410582927
788.821,121.62241295297144
791.306,134.61338908135758
793.789,161.28516716745025
796.27,205.92458747158844
798.749,254.43762967847442
801.227,308.58750578528
803.702,341.9470387040433
806.176,361.75580276881146
808.649,395.92012138565815
811.119,437.15592182554064
813.588,430.6077804933602
816.055,414.75368248272207
818.521,372.16692398785517
820.984,300.0399194774277
823.446,245.32705648741467
825.906,231.12564565205867
828.365,205.53306121102923
830.821,197.40864342133818
833.276,169.70702954068838
835.729,141.7638657632242
838.181,129.24818582195167
840.631,139.54336101974013
843.079,132.17566930793737
845.525,105.33810246023359
847.97,82.3189351512774
850.412,81.6921987972114
852.854,86.07958396762251
855.293,96.38853327368497
857.731,93.6217628277368
860.167,85.06773608380308
862.601,57.491137678117866
865.034,59.75191869822265
867.465,38.043389571111675
869.894,-0.5839727629136178
872.321,-5.7939557716240415
874.747,-0.5360422522458066
877.171,3.0022063073001846
879.594,52.68086101716972
882.014,73.45524158214812
884.433,53.04258021938767
886.851,56.350590338046004
889.266,46.28698759987901
891.68,63.3309157417375
894.092,100.86627715997292
896.503,125.03887301865052
898.912,123.89925764347026
901.319,118.736069106164
903.724,91.31412171365537
906.128,110.92202230674593
908.53,113.89597703498794
910.931,118.09597908394153
913.329,123.00104402148327
915.726,121.89968323934318
918.122,100.41371072798938
920.516,134.97443080388666
922.908,139.91787345580815
925.298,132.48479159590488
927.687,126.77303926315562
930.074,129.7851879220616
932.459,102.14280942799132
934.843,124.18171137349009
937.225,147.33288672030085
939.605,139.40822533615028
941.984,92.83860648392147
944.361,76.2453246441537
946.736,38.4877058137331
949.11,33.75834285220208
951.482,68.05928320902467
953.853,73.86869284132672
956.222,72.52180584592429
958.589,98.73473123420104
960.954,100.65206923080223
963.318,83.03738471518022
965.68,92.93987113932894
968.041,59.0753001598041
970.4,47.06411412688749
972.757,46.85999476423058
975.113,18.03557470563419
977.467,-3.6461366824451034
979.819,-1.1365179545928186
982.17,-17.76800317989796
984.519,-20.873130865209077
986.866,-5.879783472027384
989.212,-0.1207145188159302
991.556,2.0712078231097166
993.899,31.1248993781428
996.24,67.13581574528985
998.579,83.38975591061694
1000.92,107.64857374960434
1003.25,90.53112762474348
1005.59,44.32280141170486
1007.92,24.213596954080003
1010.25,24.86955985145414
1012.58,23.194681437955296
1014.91,59.18804132616583
1017.24,80.56285725147177
1019.56,78.65125157700413
1021.88,91.97568446524156
1024.2,91.62991085914564
1026.52,74.32660412995347
1028.84,74.20688448687338
1031.16,86.22127595821416
1033.48,80.55828242013786
1035.79,97.54915410159583
1038.1,100.76313027974902
1040.41,115.19792007062529
1042.72,125.70827845786812
1045.03,128.62505851195897
1047.33,144.136168371346
1049.64,144.61990917595563
1051.94,152.02593204831965
1054.24,176.3038141223285
1056.54,170.8792536195956
1058.84,153.70169349725666
1061.13,175.0062308100496
1063.43,159.26600226287428
1065.72,142.28742690620197
1068.01,121.16259168863758
1070.3,101.22163700947544
1072.59,93.55657084269183
1074.87,119.06889238474241
1077.16,157.61245379759907
1079.44,179.94584576130728
1081.72,202.2085925503559
1084.0,230.77829949099987
1086.28,252.98494327572075
1088.56,322.4918289443549
1090.84,447.3432135318899
1093.11,543.7262154305456
1095.38,603.3517713709082
1097.65,583.5022600697325
1099.92,513.0791258777415
1102.19,435.55526433218506
1104.46,356.02264580463384
1106.72,313.57327248210777
1108.98,293.2515639196313
1111.24,313.482933068977
1113.5,383.0737908788385
1115.76,449.92583660929563
1118.02,487.27415767007506
1120.28,521.7348532683488
1122.53,508.73361043747286
1124.78,470.6961848276353
1127.03,447.19126244888434
1129.28,403.16855950939316
1131.53,330.9112079680169
1133.77,280.7500458487534
1136.02,249.15885993615984
1138.26,242.04010466123964
1140.5,250.01062098732973
1142.74,284.68735529599326
1144.98,272.54450684433664
1147.22,293.91353236518466
1149.45,322.98315066725854
1151.69,344.70410914011404
1153.92,340.6463312114647
1156.15,346.1893971378354
1158.38,306.57016765236017
1160.61,301.12088380305454
1162.83,276.7453620291799
1165.06,239.68090352332752
1167.28,211.87925121254852
1169.5,164.4827848347195
1171.72,124.91976363395565
1173.94,91.95195000840363
1176.16,69.05556649137088
1178.37,54.13558606578522
1180.58,39.95430819294074
1182.8,21.940887222195443
1185.01,9.381813181619464
1187.22,-19.91241695516419
1189.42,-22.464435322228155
1191.63,-25.034757307327254
1193.84,-53.66939493187374
1196.04,-25.509377358230267
1198.24,-14.409797849879396
1200.44,-15.749342766148857
1202.64,-2.811251823768316
1204.84,-2.021422720438295
1207.03,-24.138898358375172
1209.23,2.4107884991565243
1211.42,23.535603696105227
1213.61,24.71509283876071
1215.8,16.14322460340236
1217.99,9.871236410007896
1220.18,11.712387340953683
1222.36,37.24195079298329
1224.55,71.36863670974435
1226.73,59.23934834360716
1228.91,44.28679616033787
1231.09,46.65806412472284
1233.27,59.166985510002405
1235.44,65.77032823111426
1237.62,91.99636113031238
1239.79,101.75437264374887
1241.96,124.9537132775738
1244.13,168.69426665547303
1246.3,199.02834913763445
1248.47,253.86546658256657
1250.64,355.01992825178127
1252.8,472.0679845239961
1254.96,584.2049646093387
1257.13,681.4833666445036
1259.29,756.2414239783877
1261.44,862.722147648205
1263.6,936.9304640936866
1265.76,985.3474957284354
1267.91,972.2638891303181
1270.06,922.5893337080531
1272.22,822.995413701135
1274.37,749.534650655947
1276.51,655.8309744733037
1278.66,561.4606706464706
1280.81,490.4761846420388
1282.95,431.6918310427036
1285.09,368.1123598328984
1287.23,368.31390363681567
1289.37,359.25349638499347
1291.51,354.7928776951899
1293.65,378.365154396118
1295.78,373.07003347974205
1297.92,399.57857886310467
1300.05,419.89511100729214
1302.18,422.92863034592324
1304.31,418.9690026183994
1306.44,403.2107632507709
1308.57,368.1340645937503
1310.69,365.59990887500476
1312.82,362.6120478181224
1314.94,375.9836441663358
1317.06,389.09917130147846
1319.18,387.3429795296172
1321.3,390.3373861761977
1323.41,408.9902894907259
1325.53,424.2570682657363
1327.64,460.1881957414689
1329.75,458.976853510555
1331.87,445.19702161317696
1333.98,443.47014006079553
1336.08,411.4174846455978
1338.19,353.1839713213726
1340.3,310.96196058438613
1342.4,242.7531570923586
1344.5,188.65431880724987
1346.6,170.90487089994576
1348.7,136.3154720359098
1350.8,104.79181875605946
1352.9,71.42987842908838
1354.99,39.75397934663306
1357.09,8.097757961303842
1359.18,15.318439458046896
1361.27,29.987312806418004
1363.36,41.91353998926752
1365.45,51.525109669433505
1367.54,58.48788913761814
1369.62,49.08658521681218
1371.7,65.93903850004403
1373.79,92.09146996908817
1375.87,94.78039427983776
1377.95,107.67072352387345
1380.03,129.6652995614577
1382.1,143.80966444976957
1384.18,133.67302134732518
1386.25,109.39586208506535
1388.33,88.92807092792214
1390.4,59.50512357448201
1392.47,23.029048061408275
1394.54,14.258909477392763
1396.6,-17.474895799087108
1398.67,-41.794438786218734
1400.74,-28.17900752167361
1402.8,-16.822239467490135
1404.86,-4.584496497027885
1406.92,27.911899997200635
1408.98,13.758860812715284
1411.04,-1.5708036346707104
1413.09,8.824236498377104
1415.15,19.84526120011583
1417.2,45.441121636810294
1419.25,98.22729064814007
1421.3,107.15253229023097
1423.35,124.64176185487213
1425.4,177.9293820792136
1427.45,173.2497622126068
1429.49,154.64676470249424
1431.54,143.87850997553323
1433.58,112.464998361575
1435.62,102.68811297002071
1437.66,115.40114637570537
1439.7,100.6478511143041
1441.74,108.04339493963198
1443.77,86.34579227142694
1445.81,91.40828802407987
1447.84,115.13174143536844
1449.87,106.2265337047179
1451.9,102.21257086955598
1453.93,105.37166763405071
1455.96,113.50945500736498
1457.98,160.3363355609631
1460.01,221.22939106686772
1462.03,266.8038139454404
1464.05,348.9605291893497
1466.07,415.55286390659035
1468.09,519.5294073397006
1470.11,671.5530613611656
1472.13,834.9534243021612
1474.14,990.4410795432011
1476.16,1158.3933126762158
1478.17,1283.9969715237792
1480.18,1360.5341833011908
1482.19,1369.5252146357016
1484.2,1287.2999030143103
1486.21,1116.0928977553663
1488.21,932.3769962182723
1490.22,733.8631466798536
1492.22,560.4052131154854
1494.22,412.1428352183177
1496.22,297.73952651374
1498.22,212.19220104527403
1500.22,178.78355720332456
1502.22,121.27255679202881
1504.21,67.13252314371653
1506.21,28.69400113813913
1508.2,6.906664840743133
1510.19,3.196463236185764
1512.18,10.41800405709182
1514.17,9.949795448003442
1516.16,-10.210512048881355
1518.14,-30.446121603207757
1520.13,-31.04489473474746
1522.11,-13.151728424008525
1524.09,-10.149506833063697
1526.07,6.1028008691703235
1528.05,20.698707998388045
1530.03,4.350872045701863
1532.01,2.6291855538502205
1533.98,12.246486041025264
1535.96,24.010933030181377
1537.93,26.064099629800012
1539.9,44.11906534009427
1541.87,26.079461240168712
1543.84,35.372800889463406
1545.81,51.85523980063249
1547.78,90.62109681717743
1549.74,108.62189930060526
1551.7,112.95209498425538
1553.67,106.23000192236509
1555.63,108.50256796294889
1557.59,112.62632069686424
1559.55,133.36260312116178
1561.5,170.09185692149117
1563.46,173.28981051640062
1565.41,191.86080995878729
1567.37,189.61400698020225
1569.32,195.93002322563098
1571.27,206.18951925018723
1573.22,197.20176351579585
1575.17,164.44272519740525
1577.11,155.0074527034817
1579.06,131.4195950536489
1581.0,124.20282801823055
1582.95,132.4998993054137
1584.89,121.02500708174603
1586.83,113.49236896882257
1588.77,120.71145770664543
1590.7,114.20604634079154
1592.64,92.88087245719862
1594.58,81.04544527409598
1596.51,60.58070987678775
1598.44,24.31999716672499
