Raman Shift,Processed Intensity
331.095,89.05532761904728
333.909,28.96762928571414
336.721,25.306152857142862
339.531,50.524843333333386
342.339,74.19644571428573
345.145,49.15594095238096
347.949,14.69162904761905
350.751,-4.002689523809522
353.55,12.362966190476236
356.348,26.174529523809543
359.144,39.5809004761905
361.937,38.493840952380985
364.729,54.207304761904844
367.518,109.06352380952396
370.306,215.73970476190493
373.091,295.3902000000002
375.874,373.5989047619049
378.656,383.04642857142875
381.435,322.5573333333335
384.212,246.3860857142858
386.988,130.64577619047623
389.761,61.92698571428577
392.532,16.916638095238078
395.301,-33.98230000000001
398.068,-39.079980952380936
400.833,-2.303614285714276
403.596,20.3255047619048
406.358,38.26391428571428
409.117,27.636242857142854
411.874,-0.4313476190476062
414.629,16.617290476190504
417.382,14.434957142857154
420.133,27.24730000000003
422.882,35.23333809523815
425.629,97.00255714285726
428.374,159.1176000000001
431.117,248.99958571428587
433.858,267.68953333333343
436.597,239.13461904761914
439.334,188.80666666666679
442.069,146.22642857142864
444.802,109.15357142857152
447.533,126.2534761904763
450.262,158.57285714285726
452.989,206.73133333333348
455.714,250.0156190476192
458.438,240.189161904762
461.159,196.25468571428576
463.878,119.26296666666673
466.595,83.97950476190483
469.31,81.59939523809531
472.024,111.93692380952389
474.735,117.90222857142864
477.444,113.83456666666672
480.152,81.97832380952386
482.857,87.57852857142865
485.561,115.73737142857154
488.262,160.50975714285724
490.962,178.33237619047628
493.659,167.59395238095243
496.355,155.3028761904763
499.048,135.94401904761912
501.74,128.00222857142865
504.43,121.1049333333334
507.118,101.97613333333341
509.804,100.67192380952392
512.488,155.24949523809536
515.17,204.2893809523811
517.85,235.6579523809525
520.528,227.45942857142865
523.204,174.51285714285723
525.878,129.4462857142858
528.551,129.17382857142866
531.221,125.79979047619054
533.89,124.76147142857148
536.556,86.35347142857145
539.221,75.29842380952387
541.883,79.2717095238096
544.544,119.66242380952391
547.203,142.81205238095248
549.86,175.44277142857152
552.515,148.4193714285715
555.168,136.41593333333338
557.819,126.0587714285715
560.469,147.4497904761906
563.116,168.88089523809535
565.761,186.9301333333334
568.405,186.65085714285726
571.047,159.4776190476191
573.687,153.12990476190487
576.324,151.8507142857144
578.96,172.26323809523822
581.594,180.46733333333344
584.227,200.13328571428582
586.857,191.3125238095239
589.485,172.72211904761915
592.112,122.22219047619056
594.737,116.95735714285723
597.359,121.31085714285723
599.98,141.33192857142865
602.599,149.25957142857146
605.216,153.52309523809532
607.831,145.02790476190486
610.445,165.34490476190487
613.056,164.56923809523818
615.666,178.7955238095239
618.274,166.87923809523818
620.88,172.72380952380962
623.484,176.80361904761918
626.086,189.354142857143
628.686,204.70590476190492
631.284,265.284523809524
633.881,279.65809523809537
636.476,285.1084761904763
639.068,254.48900000000012
641.659,208.84276190476203
644.249,189.54566666666676
646.836,193.87895238095248
649.421,183.07533333333345
652.005,193.700561904762
654.587,152.74920476190482
657.166,139.54841619047627
659.745,104.42533285714288
662.321,68.32641809523814
664.895,58.05425380952384
667.468,54.411850000000015
670.038,25.44025380952385
672.607,49.51328428571432
675.174,57.81483047619053
677.739,72.86173190476195
680.303,91.31372952380956
682.864,76.21147619047623
685.424,78.7386952380953
687.982,97.2693714285715
690.538,115.0348333333334
693.092,95.45698095238097
695.645,64.76741666666668
698.195,-3.7068619047619173
700.744,-9.209897619047606
703.291,-18.128528571428575
705.836,3.9123738095238263
708.38,15.574123809523826
710.921,41.32774761904765
713.461,26.45403809523813
715.999,49.47225238095241
718.535,64.09217142857149
721.069,103.16660476190485
723.602,126.501261904762
726.133,153.28263809523818
728.662,152.22135238095248
731.189,137.79035238095244
733.714,129.93875238095245
736.238,132.47269523809533
738.759,146.00830476190487
741.279,141.9235476190477
743.798,137.40607619047626
746.314,138.1204714285715
748.829,130.6357476190477
751.342,118.09229047619056
753.853,139.67857619047626
756.362,133.20233333333343
758.869,152.94707142857155
761.375,154.24492857142863
763.879,155.47523809523818
766.381,132.58888095238103
768.882,130.77519047619055
771.38,107.7948714285715
773.877,99.93237142857146
776.372,79.32988571428578
778.866,103.36790476190482
781.357,115.1884714285715
783.847,133.6004952380953
786.335,132.4608333333334
788.821,118.95974285714294
791.306,108.04930000000009
793.789,138.06284761904772
796.27,158.47685714285726
798.749,193.29128571428586
801.227,215.93504761904774
803.702,226.07528571428583
806.176,235.56947619047634
808.649,262.2753333333335
811.119,255.19404761904775
813.588,262.8497142857144
816.055,249.62433333333348
818.521,218.9474285714287
820.984,215.58176190476198
823.446,201.76661904761912
825.906,176.26523809523823
828.365,172.65042857142868
830.821,180.01900000000012
833.276,178.2294761904763
835.729,189.2831238095239
838.181,168.22933809523818
840.631,147.83172380952388
843.079,136.90175714285724
845.525,141.15540952380962
847.97,142.5945952380953
850.412,143.50711428571435
852.854,131.51383809523819
855.293,113.14082380952388
857.731,111.39006666666674
860.167,131.50206190476197
862.601,115.62188571428578
865.034,111.4663476190477
867.465,94.56120476190479
869.894,73.9092952380953
872.321,81.65550000000007
874.747,116.13610476190483
877.171,124.30564285714294
879.594,150.690561904762
882.014,140.4840952380953
884.433,142.16519047619056
886.851,158.11738095238107
889.266,184.53433333333345
891.68,188.98966666666678
894.092,202.486142857143
896.503,200.36009523809534
898.912,191.18552380952394
901.319,178.5846666666668
903.724,197.51295238095253
906.128,184.02066666666678
908.53,184.87252380952393
910.931,181.88100000000009
913.329,163.1440952380953
915.726,151.8554761904763
918.122,158.6844761904763
920.516,157.63419047619055
922.908,182.8506952380953
925.298,171.0986238095239
927.687,166.14305714285723
930.074,157.2725190476191
932.459,135.2515333333334
934.843,114.55945714285723
937.225,128.7230952380953
939.605,105.03101904761913
941.984,114.05760952380959
944.361,105.85338571428576
946.736,107.80206666666672
949.11,84.9066904761905
951.482,96.78880952380958
953.853,86.97536666666673
956.222,92.8974571428572
958.589,81.93898571428576
960.954,101.19768571428578
963.318,94.91450476190482
965.68,108.13949523809532
968.041,103.30404285714289
970.4,82.79157619047623
972.757,72.50941904761909
975.113,58.507633333333345
977.467,28.169661904761917
979.819,8.355009523809525
982.17,7.970789523809541
984.519,-3.0759485714285475
986.866,33.9313647619048
989.212,59.756743809523854
991.556,77.4498552380953
993.899,80.96497047619053
996.24,106.3991752380953
998.579,107.56356190476197
1000.92,121.50747619047627
1003.25,112.66085714285721
1005.59,94.8344285714286
1007.92,60.98160000000003
1010.25,48.81752380952385
1012.58,58.53313333333339
1014.91,75.22438095238101
1017.24,87.79626190476196
1019.56,87.15365238095244
1021.88,90.43911428571434
1024.2,87.93845238095244
1026.52,130.2225142857144
1028.84,155.38585238095246
1031.16,171.57075238095246
1033.48,164.68090476190486
1035.79,194.28652380952394
1038.1,201.62490476190493
1040.41,240.36109523809534
1042.72,254.44585714285728
1045.03,227.92547619047633
1047.33,198.8933333333335
1049.64,197.87161904761916
1051.94,182.3344285714287
1054.24,178.18447619047632
1056.54,177.990761904762
1058.84,156.08433333333343
1061.13,165.74861904761917
1063.43,191.21938095238107
1065.72,220.58900000000014
1068.01,215.18833333333345
1070.3,193.10971428571438
1072.59,170.3029523809525
1074.87,183.24128571428582
1077.16,204.39800000000014
1079.44,232.00780952380967
1081.72,256.40104761904786
1084.0,309.62228571428597
1086.28,391.19233333333364
1088.56,503.3460952380956
1090.84,618.3660952380956
1093.11,711.1059523809528
1095.38,732.9910000000004
1097.65,691.6371904761908
1099.92,603.4695714285717
1102.19,468.48480952380976
1104.46,394.63209523809553
1106.72,376.145904761905
1108.98,381.49909523809555
1111.24,437.78361904761937
1113.5,507.7105714285717
1115.76,543.0380952380956
1118.02,575.3348571428575
1120.28,555.9304761904765
1122.53,509.86947619047646
1124.78,477.6725238095241
1127.03,428.3841428571431
1129.28,381.23914285714307
1131.53,311.18704761904775
1133.77,232.27209523809535
1136.02,184.015142857143
1138.26,180.3659523809525
1140.5,201.51185714285728
1142.74,209.11695238095248
1144.98,205.89280952380963
1147.22,240.55109523809543
1149.45,288.8988571428573
1151.69,305.6003809523811
1153.92,308.08190476190487
1156.15,251.34100000000012
1158.38,203.61376190476204
1160.61,201.08885714285728
1162.83,200.0974761904763
1165.06,177.0665714285715
1167.28,152.70861904761912
1169.5,114.7840952380953
1171.72,109.05341904761912
1173.94,106.56320952380958
1176.16,95.88351428571434
1178.37,77.10895238095242
1180.58,61.76215238095243
1182.8,75.8427714285715
1185.01,104.01686666666671
1187.22,97.42707019047621
1189.42,72.40659471428572
1191.63,16.47927514285713
1193.84,-10.59288376190474
1196.04,3.3334608571428817
1198.24,19.2113994761905
1200.44,46.23197019047623
1202.64,76.20585714285718
1204.84,60.515138095238136
1207.03,75.35146190476195
1209.23,69.47830000000002
1211.42,51.087707619047656
1213.61,39.65736476190478
1215.8,36.951143809523835
1217.99,34.018516190476234
1220.18,57.289943809523855
1222.36,80.05341904761909
1224.55,74.59681904761906
1226.73,52.2081704761905
1228.91,50.31841714285717
1231.09,53.35865142857146
1233.27,50.188554285714304
1235.44,37.42989714285715
1237.62,51.08536666666672
1239.79,61.15788571428576
1241.96,77.60276190476198
1244.13,96.08949523809528
1246.3,116.7164952380953
1248.47,111.24876666666677
1250.64,158.7372476190477
1252.8,180.89930476190486
1254.96,188.45252380952394
1257.13,209.73352380952394
1259.29,246.4125714285716
1261.44,250.06423809523827
1263.6,269.40657142857157
1265.76,271.20452380952395
1267.91,238.03319047619055
1270.06,210.70580952380965
1272.22,174.98809523809533
1274.37,152.16928571428582
1276.51,151.44338095238103
1278.66,151.1470000000001
1280.81,166.71270476190486
1282.95,160.47727619047626
1285.09,149.68260952380962
1287.23,142.4276857142858
1289.37,129.953761904762
1291.51,122.97907619047628
1293.65,124.88830000000006
1295.78,97.6371571428572
1297.92,104.13414761904768
1300.05,71.85883809523813
1302.18,75.1479571428572
1304.31,85.10059047619052
1306.44,98.7198095238096
1308.57,112.72331904761913
1310.69,134.82881904761913
1312.82,136.42076190476203
1314.94,152.31180952380961
1317.06,174.36238095238107
1319.18,198.00400000000008
1321.3,207.62047619047632
1323.41,218.02452380952394
1325.53,245.7430476190478
1327.64,277.35014285714306
1329.75,310.32495238095254
1331.87,305.14604761904775
1333.98,297.38757142857156
1336.08,286.05190476190495
1338.19,276.7606190476192
1340.3,269.94470476190486
1342.4,220.0349428571429
1344.5,169.12857142857152
1346.6,134.37060476190484
1348.7,99.23869047619056
1350.8,105.73509047619054
1352.9,90.57541904761908
1354.99,80.7136333333334
1357.09,74.05587142857146
1359.18,79.07959047619055
1361.27,111.26211428571438
1363.36,144.9854857142858
1365.45,137.7263571428572
1367.54,136.24759047619054
1369.62,145.02597142857155
1371.7,161.39543809523823
1373.79,208.78472380952394
1375.87,234.2416666666668
1377.95,229.76633333333342
1380.03,202.5014285714287
1382.1,190.82790476190485
1384.18,173.69757142857156
1386.25,152.11001904761912
1388.33,137.77911428571434
1390.4,118.27570476190482
1392.47,94.12260476190481
1394.54,75.60475333333339
1396.6,64.19707952380953
1398.67,45.470059047619074
1400.74,27.66044904761907
1402.8,37.766897142857175
1404.86,37.930741428571466
1406.92,57.197991428571456
1408.98,57.37645714285717
1411.04,67.08339047619052
1413.09,57.174000000000035
1415.15,59.50350476190479
1417.2,57.450542857142906
1419.25,83.67962380952386
1421.3,81.902880952381
1423.35,93.97504761904767
1425.4,99.27473809523815
1427.45,95.94217619047625
1429.49,94.92693809523817
1431.54,114.89301809523816
1433.58,82.93298952380957
1435.62,55.996398095238135
1437.66,55.79458190476194
1439.7,64.56261238095243
1441.74,78.6309895238096
1443.77,114.52047523809529
1445.81,98.94218571428574
1447.84,76.0358047619048
1449.87,56.17890476190479
1451.9,61.130166666666724
1453.93,57.45790000000006
1455.96,85.8732714285715
1457.98,116.75362857142868
1460.01,144.00070476190487
1462.03,164.37318571428582
1464.05,206.67720952380967
1466.07,212.4332857142859
1468.09,251.44771428571445
1470.11,304.52666666666687
1472.13,334.7147142857145
1474.14,342.77061904761916
1476.16,330.5961904761906
1478.17,294.5214761904764
1480.18,267.1628571428573
1482.19,238.32681904761918
1484.2,196.15337142857152
1486.21,147.782580952381
1488.21,99.35472380952386
1490.22,67.96220476190481
1492.22,56.078952380952416
1494.22,71.702280952381
1496.22,60.54440571428574
1498.22,39.07927952380954
1500.22,24.257249523809534
1502.22,9.743053809523827
1504.21,10.391992380952406
1506.21,26.250022380952394
1508.2,34.07749809523811
1510.19,23.34917809523811
1512.18,27.87329428571431
1514.17,27.600969523809532
1516.16,33.38822190476193
1518.14,31.472133333333357
1520.13,31.137444285714295
1522.11,21.90709904761906
1524.09,9.256525238095245
1526.07,18.08972571428575
1528.05,37.0727385714286
1530.03,53.20496571428575
1532.01,65.58110000000003
1533.98,63.34350952380954
1535.96,42.49180476190479
1537.93,32.35899523809525
1539.9,27.897166666666692
1541.87,34.34417142857146
1543.84,44.1284285714286
1545.81,38.34504285714288
1547.78,44.94635238095242
1549.74,58.21808571428577
1551.7,85.0172571428572
1553.67,113.2963571428572
1555.63,125.38899047619053
1557.59,119.81923809523818
1559.55,131.11110476190484
1561.5,123.69341428571435
1563.46,121.18544761904771
1565.41,123.25401428571436
1567.37,120.80454285714293
1569.32,125.17080476190485
1571.27,129.16282857142863
1573.22,119.73335238095245
1575.17,127.54994285714294
1577.11,116.18425714285722
1579.06,120.35143809523818
1581.0,135.28996190476198
1582.95,137.85795238095247
1584.89,132.57961904761913
1586.83,141.7417333333334
1588.77,121.53531904761911
1590.7,103.34219523809531
1592.64,110.1630333333334
1594.58,115.57036904761911
1596.51,125.37446190476203
1598.44,139.07612857142885
