Raman Shift,Processed Intensity
331.095,38.72372238095228
333.909,7.436067619047549
336.721,2.8903483333333
339.531,10.039372857142862
342.339,-8.402429047619055
345.145,0.11308428571429374
347.949,14.492291428571441
350.751,13.594778095238114
353.55,24.233429523809527
356.348,8.983969523809508
359.144,5.232558095238129
361.937,11.271176190476218
364.729,48.58350952380958
367.518,84.93954857142866
370.306,135.7773847619049
373.091,212.82174285714302
375.874,325.8461714285716
378.656,386.24433333333354
381.435,375.50685714285726
384.212,284.6484952380953
386.988,143.8762285714286
389.761,46.01717142857146
392.532,-5.909714285714269
395.301,-12.360444761904755
398.068,-10.59879476190476
400.833,-11.03048476190477
403.596,-4.535814761904752
406.358,6.577777142857139
409.117,3.909024285714276
411.874,-11.798973333333354
414.629,-36.754042857142885
417.382,-45.97209047619047
420.133,-26.515123809523775
422.882,31.98474285714294
425.629,120.70666190476202
428.374,195.3546190476192
431.117,247.3009047619049
433.858,272.10900000000015
436.597,250.43919047619062
439.334,212.3341904761906
442.069,179.40909523809532
444.802,135.37495238095246
447.533,117.27747619047629
450.262,143.40104761904774
452.989,206.55504761904777
455.714,247.88347619047633
458.438,265.76889523809535
461.159,222.59444285714295
463.878,161.83956190476198
466.595,120.12701428571435
469.31,93.03265238095243
472.024,61.275985714285746
474.735,69.95809047619053
477.444,79.98996190476198
480.152,121.52144285714294
482.857,139.65484761904767
485.561,148.06445714285724
488.262,122.99666666666673
490.962,134.79338095238103
493.659,120.41586190476197
496.355,127.44447619047627
499.048,114.74597619047626
501.74,111.47265714285722
504.43,112.63443333333343
507.118,129.28921904761913
509.804,138.16138095238105
512.488,171.49914285714297
515.17,183.36057142857155
517.85,186.6129523809525
520.528,209.17161904761915
523.204,201.61861904761918
525.878,195.86909523809538
528.551,184.74295238095246
531.221,156.48838095238105
533.89,151.59165714285726
536.556,139.110561904762
539.221,126.43607619047629
541.883,132.2444380952382
544.544,140.8308380952382
547.203,162.39518095238105
549.86,194.37522857142866
552.515,169.35109523809533
555.168,156.66500000000008
557.819,157.70604761904772
560.469,177.29157142857156
563.116,201.00085714285728
565.761,222.98409523809534
568.405,191.43871428571438
571.047,158.0384761904763
573.687,161.9323809523811
576.324,169.0309523809525
578.96,178.34009523809536
581.594,182.15066666666675
584.227,196.08633333333344
586.857,187.6280000000001
589.485,178.25552380952385
592.112,156.97238095238103
594.737,156.829761904762
597.359,149.40180952380965
599.98,170.4049523809525
602.599,159.8413333333334
605.216,153.9979523809525
607.831,176.01857142857153
610.445,208.90414285714297
613.056,209.60695238095244
615.666,171.17466666666672
618.274,144.65442857142867
620.88,137.94952380952392
623.484,167.77323809523824
626.086,210.5520952380954
628.686,266.80757142857163
631.284,304.3942857142859
633.881,356.8334761904764
636.476,364.2163809523811
639.068,343.5400000000002
641.659,307.22838095238114
644.249,270.42023809523823
646.836,229.58676190476203
649.421,191.53288571428578
652.005,124.34821666666672
654.587,82.74190952380958
657.166,57.374907142857175
659.745,26.289047619047636
662.321,17.382845238095243
664.895,9.45964285714286
667.468,8.608300000000044
670.038,41.822357142857186
672.607,78.71440000000004
675.174,88.23015714285718
677.739,81.64865238095241
680.303,57.48707619047621
682.864,45.92920952380955
685.424,36.96846190476193
687.982,23.883952380952394
690.538,42.09779047619051
693.092,40.46051714285715
695.645,28.918207619047628
698.195,18.702739047619037
700.744,4.8556733333333195
703.291,-19.247939047619038
705.836,-5.661296666666671
708.38,-3.3424438095238003
710.921,19.98901380952383
713.461,21.089877142857148
715.999,33.09801952380955
718.535,32.10396952380953
721.069,40.055561904761944
723.602,42.37701904761908
726.133,51.77847142857146
728.662,48.25601428571433
731.189,68.99635238095243
733.714,76.04354571428577
736.238,74.15607190476194
738.759,60.997353333333365
741.279,48.85007571428575
743.798,47.997100952381
746.314,68.91180047619054
748.829,88.59173619047623
751.342,77.51070000000003
753.853,79.8093047619048
756.362,71.81883333333337
758.869,61.870695238095294
761.375,78.48669047619055
763.879,101.57034285714293
766.381,111.73898571428577
768.882,107.18177619047623
771.38,74.2784523809524
773.877,46.21846190476195
776.372,63.90542380952388
778.866,84.43420000000005
781.357,99.18483809523813
783.847,78.49022380952383
786.335,70.58791428571435
788.821,71.66800476190483
791.306,93.73051428571436
793.789,113.91820000000008
796.27,117.89774285714293
798.749,125.0027142857144
801.227,163.89985714285723
803.702,184.6846666666668
806.176,213.88185714285729
808.649,229.92033333333342
811.119,207.8960000000001
813.588,193.3809523809525
816.055,183.61433333333343
818.521,169.78728571428582
820.984,182.472361904762
823.446,170.09940952380958
825.906,142.00291428571435
828.365,111.75530476190484
830.821,107.64424761904772
833.276,114.67055238095246
835.729,116.45483809523816
838.181,106.47496666666672
840.631,90.92300000000004
843.079,72.6576571428572
845.525,85.96655238095246
847.97,113.37517142857149
850.412,108.74259047619054
852.854,114.30882380952386
855.293,106.31387142857146
857.731,92.71207619047625
860.167,84.02912761904767
862.601,65.21967523809526
865.034,31.619079047619078
867.465,32.372400952380985
869.894,54.91033142857149
872.321,91.28258952380958
874.747,116.92016095238102
877.171,119.87304761904768
879.594,101.38147619047623
882.014,90.30478095238102
884.433,109.0262857142858
886.851,117.35780000000008
889.266,134.92079047619058
891.68,150.86045714285723
894.092,159.2744761904763
896.503,159.49847619047628
898.912,175.9635238095239
901.319,160.6242857142858
903.724,143.0543333333334
906.128,136.5420476190477
908.53,149.56590476190485
910.931,144.17609523809531
913.329,157.66047619047626
915.726,147.73550476190482
918.122,121.92745714285721
920.516,113.28658095238102
922.908,106.95767619047625
925.298,86.7528190476191
927.687,81.10256666666672
930.074,66.10439047619052
932.459,63.09392857142863
934.843,65.21613333333339
937.225,88.28284285714292
939.605,120.77215238095246
941.984,117.25758571428577
944.361,97.7888047619048
946.736,74.7010523809524
949.11,58.8535190476191
951.482,78.05770952380959
953.853,102.26765238095244
956.222,100.91393333333338
958.589,90.66482857142861
960.954,100.71267619047626
963.318,122.67808571428577
965.68,121.56274761904766
968.041,107.7017047619048
970.4,76.85865714285717
972.757,49.93985238095243
975.113,45.613685714285744
977.467,73.83405238095244
979.819,58.45970476190479
982.17,50.96841904761907
984.519,29.742723809523824
986.866,32.73663333333336
989.212,21.189842857142892
991.556,59.81819523809528
993.899,73.09959047619053
996.24,87.74994285714293
998.579,111.62790952380959
1000.92,127.92540000000007
1003.25,118.5486152380953
1005.59,92.594050952381
1007.92,62.30139714285718
1010.25,44.957639523809576
1012.58,57.51639238095244
1014.91,78.12149857142862
1017.24,78.4407104761905
1019.56,68.80809523809528
1021.88,58.46269523809528
1024.2,70.64347619047626
1026.52,101.44622380952389
1028.84,138.4424857142858
1031.16,146.49003809523816
1033.48,157.77946666666676
1035.79,151.21566666666678
1038.1,185.89409523809536
1040.41,211.3860000000001
1042.72,251.59571428571442
1045.03,256.6664285714287
1047.33,227.21676190476202
1049.64,192.53171428571443
1051.94,209.46761904761917
1054.24,183.16690476190487
1056.54,194.43842857142866
1058.84,183.99561904761913
1061.13,160.9330000000001
1063.43,159.05909523809535
1065.72,170.37242857142866
1068.01,161.34861904761914
1070.3,165.65295238095246
1072.59,169.23633333333345
1074.87,180.28828571428585
1077.16,189.04538095238107
1079.44,202.83942857142873
1081.72,243.33533333333352
1084.0,306.57928571428596
1086.28,381.283666666667
1088.56,481.25661904761944
1090.84,584.6390000000004
1093.11,689.9054761904766
1095.38,726.5778571428575
1097.65,688.8924285714289
1099.92,593.942285714286
1102.19,480.01119047619073
1104.46,398.6681904761908
1106.72,385.72104761904785
1108.98,396.6915714285717
1111.24,416.1010952380955
1113.5,447.70961904761936
1115.76,499.60976190476225
1118.02,545.7040952380956
1120.28,580.847666666667
1122.53,561.7050952380955
1124.78,514.5118095238098
1127.03,432.64661904761925
1129.28,362.2497619047621
1131.53,314.2713333333335
1133.77,266.0896666666668
1136.02,222.60738095238108
1138.26,214.82190476190488
1140.5,203.0644761904763
1142.74,190.04657142857155
1144.98,200.6232380952382
1147.22,218.79166666666686
1149.45,247.02576190476205
1151.69,249.65652380952395
1153.92,255.53876190476203
1156.15,236.71728571428582
1158.38,218.95185714285728
1160.61,211.57326666666677
1162.83,169.24605238095245
1165.06,119.77735238095245
1167.28,100.16485714285719
1169.5,75.787080952381
1171.72,75.59400476190483
1173.94,89.10715714285719
1176.16,76.70534761904766
1178.37,96.38648095238102
1180.58,93.48156190476195
1182.8,84.2265285714286
1185.01,60.38120000000002
1187.22,40.61015333333335
1189.42,17.197063333333354
1191.63,11.521045238095244
1193.84,24.57998142857146
1196.04,27.991042380952397
1198.24,49.562090952381
1200.44,63.005479523809555
1202.64,72.748060952381
1204.84,58.02634571428575
1207.03,72.69592666666671
1209.23,59.707861904761934
1211.42,43.91820000000001
1213.61,25.849500000000017
1215.8,20.881800000000013
1217.99,24.395304761904804
1220.18,54.29419047619052
1222.36,82.95907619047621
1224.55,58.389790476190484
1226.73,40.87209523809525
1228.91,24.88240952380955
1231.09,27.992585714285752
1233.27,35.346076190476225
1235.44,75.70580476190483
1237.62,82.21550952380957
1239.79,110.78115714285723
1241.96,125.7374714285715
1244.13,129.3717333333334
1246.3,106.44767142857151
1248.47,114.34838095238105
1250.64,155.31377619047635
1252.8,207.63170476190493
1254.96,273.8760476190478
1257.13,310.5253809523811
1259.29,320.8208095238097
1261.44,306.86004761904786
1263.6,320.64619047619067
1265.76,300.70600000000013
1267.91,311.1378571428573
1270.06,286.80214285714305
1272.22,266.3690952380954
1274.37,248.69904761904775
1276.51,229.84333333333348
1278.66,209.8056190476192
1280.81,197.9705238095239
1282.95,172.5800000000001
1285.09,164.82833333333343
1287.23,166.48138095238104
1289.37,178.11423809523822
1291.51,183.25505714285725
1293.65,151.09831904761913
1295.78,126.02930476190483
1297.92,106.62334761904768
1300.05,105.50368571428581
1302.18,141.57946190476198
1304.31,155.1407714285715
1306.44,144.5250952380953
1308.57,148.0700476190477
1310.69,152.9224761904763
1312.82,170.8964285714287
1314.94,201.2342380952382
1317.06,203.89257142857156
1319.18,201.97090476190488
1321.3,210.9969523809525
1323.41,216.26066666666682
1325.53,237.71890476190498
1327.64,278.2802857142859
1329.75,306.71071428571446
1331.87,335.0141428571431
1333.98,340.81371428571447
1336.08,317.1133333333335
1338.19,294.3929047619049
1340.3,270.70385714285726
1342.4,243.57333333333347
1344.5,210.33823809523818
1346.6,168.38319047619058
1348.7,142.09264761904768
1350.8,107.99338571428578
1352.9,104.75550476190483
1354.99,103.52463333333338
1357.09,100.49428571428578
1359.18,105.14336666666675
1361.27,120.56978095238104
1363.36,120.10911428571436
1365.45,128.28797142857152
1367.54,136.87038095238103
1369.62,141.76314285714295
1371.7,156.77785714285727
1373.79,200.72552380952393
1375.87,237.9886666666668
1377.95,264.23538095238115
1380.03,244.70528571428582
1382.1,211.20857142857153
1384.18,167.7938571428572
1386.25,148.4140952380953
1388.33,126.1650952380953
1390.4,120.47537619047625
1392.47,81.8691190476191
1394.54,68.72685714285717
1396.6,40.952923809523845
1398.67,52.83226666666671
1400.74,58.31650000000004
1402.8,73.35682857142862
1404.86,63.38043809523812
1406.92,63.242904761904796
1408.98,41.37098095238098
1411.04,41.47689047619051
1413.09,50.84418571428575
1415.15,66.56568571428575
1417.2,60.924509523809576
1419.25,84.5369190476191
1421.3,94.20949047619052
1423.35,86.74869047619053
1425.4,84.96074285714289
1427.45,65.12806190476192
1429.49,55.29468571428577
1431.54,75.9809714285715
1433.58,90.04045238095244
1435.62,102.70732857142863
1437.66,100.8827666666667
1439.7,68.42008571428575
1441.74,62.1724428571429
1443.77,71.70750476190479
1445.81,48.30710476190478
1447.84,33.300504761904776
1449.87,26.874680952380977
1451.9,43.26358571428578
1453.93,76.60658571428579
1455.96,127.66154285714293
1457.98,148.75846666666675
1460.01,159.5602380952382
1462.03,168.53952380952393
1464.05,220.88319047619063
1466.07,248.25490476190492
1468.09,295.5079523809526
1470.11,343.6870000000002
1472.13,372.9312380952383
1474.14,376.85657142857167
1476.16,387.5552857142859
1478.17,347.45285714285734
1480.18,310.30814285714297
1482.19,262.0705238095239
1484.2,227.879742857143
1486.21,178.63800476190482
1488.21,151.8664857142858
1490.22,122.51471904761912
1492.22,89.24694761904766
1494.22,67.15572857142861
1496.22,62.00043809523812
1498.22,44.58833333333337
1500.22,35.774319047619066
1502.22,41.17515238095241
1504.21,44.264904761904795
1506.21,48.42244285714289
1508.2,52.97912380952384
1510.19,45.313997142857154
1512.18,21.758597142857152
1514.17,5.4540800000000065
1516.16,11.541640952380977
1518.14,32.210222857142895
1520.13,63.315519047619084
1522.11,55.90373571428573
1524.09,54.8307485714286
1526.07,41.76200428571432
1528.05,41.12490571428575
1530.03,52.29938142857146
1532.01,59.046331428571456
1533.98,58.79340476190481
1535.96,64.82553333333335
1537.93,56.76098095238098
1539.9,45.93237142857146
1541.87,40.862909523809556
1543.84,49.36153333333339
1545.81,76.61835238095244
1547.78,95.20421904761912
1549.74,117.02371428571436
1551.7,130.02862380952388
1553.67,131.02834285714295
1555.63,151.26100000000008
1557.59,160.2025238095239
1559.55,167.28142857142868
1561.5,177.02180952380962
1563.46,157.0900952380953
1565.41,135.15304761904773
1567.37,136.30614285714293
1569.32,123.21590476190484
1571.27,116.97823809523818
1573.22,133.21243809523818
1575.17,123.44284285714294
1577.11,127.1934095238096
1579.06,118.27423809523816
1581.0,120.6856095238096
1582.95,123.09495238095246
1584.89,141.55026666666674
1586.83,142.8143190476191
1588.77,145.36367619047627
1590.7,136.43738095238106
1592.64,171.46471428571442
1594.58,201.6368095238094
1596.51,208.71623809523783
1598.44,172.8703333333328
