Raman Shift,Processed Intensity
331.095,9.340833333333268
333.909,-8.891714285714396
336.721,-3.1788357142857997
339.531,15.101219047619065
342.339,30.665142857142875
345.145,46.30147142857146
347.949,35.10933333333333
350.751,34.807776190476204
353.55,2.212019047619018
356.348,-30.052100000000003
359.144,-11.548195238095207
361.937,20.685109523809544
364.729,39.943633333333395
367.518,110.2864333333334
370.306,138.53558095238105
373.091,212.7526000000002
375.874,328.8093619047621
378.656,373.9127619047621
381.435,352.5564000000001
384.212,261.7117142857143
386.988,137.5892885714286
389.761,57.686774285714314
392.532,9.93139619047621
395.301,13.29976380952383
398.068,5.674377142857123
400.833,-21.82253523809525
403.596,-34.829363809523834
406.358,-32.36402190476192
409.117,-36.347726666666645
411.874,-3.7955485714285624
414.629,42.516980952381
417.382,50.24421285714289
420.133,66.80358190476197
422.882,93.51866428571435
425.629,110.09515142857153
428.374,139.049532857143
431.117,200.42307333333346
433.858,215.21047619047636
436.597,248.16895238095253
439.334,241.4381904761906
442.069,203.5872380952382
444.802,165.66223809523817
447.533,156.09100000000012
450.262,160.44471428571444
452.989,194.2480000000001
455.714,222.40733333333344
458.438,217.0678000000001
461.159,183.3751000000001
463.878,145.52311428571434
466.595,91.42032380952384
469.31,67.97608571428579
472.024,82.43354285714292
474.735,101.27445714285724
477.444,127.02830000000009
480.152,154.22547619047626
482.857,151.15819047619055
485.561,137.64285714285722
488.262,143.40104761904772
490.962,121.05947619047626
493.659,127.05449523809533
496.355,124.01332857142862
499.048,127.61086666666674
501.74,84.52209523809529
504.43,110.18393333333341
507.118,116.12909523809533
509.804,160.89015238095251
512.488,181.38056666666682
515.17,248.99025714285727
517.85,234.87063809523818
520.528,211.79251904761912
523.204,168.24097142857153
525.878,118.51054285714288
528.551,79.51486190476199
531.221,82.97679523809529
533.89,91.23808000000004
536.556,64.21191571428575
539.221,62.9540647619048
541.883,46.710879523809545
544.544,46.87123142857146
547.203,52.06202523809529
549.86,88.24306571428578
552.515,114.46954761904769
555.168,138.6531428571429
557.819,159.03882857142867
560.469,144.77620952380957
563.116,127.8718476190477
565.761,133.14125714285723
568.405,127.2096476190477
571.047,118.89171428571437
573.687,127.47850476190482
576.324,109.49912380952387
578.96,122.86309523809534
581.594,134.14602380952388
584.227,129.39978095238104
586.857,146.10381428571438
589.485,136.8807714285715
592.112,113.16263333333342
594.737,135.85682857142865
597.359,114.58474285714293
599.98,123.4437238095239
602.599,130.86396190476196
605.216,119.3231333333334
607.831,111.63188571428579
610.445,123.69580000000008
613.056,125.08679047619057
615.666,135.09045714285722
618.274,114.37340000000007
620.88,129.41113333333342
623.484,139.25001904761913
626.086,146.46034285714296
628.686,160.75529523809533
631.284,176.22790476190488
633.881,200.01923809523822
636.476,227.26961904761916
639.068,240.30933333333346
641.659,213.75447619047628
644.249,177.84009523809536
646.836,154.46729523809532
649.421,146.68008571428578
652.005,112.14095714285719
654.587,78.32197142857144
657.166,28.171142857142872
659.745,12.207590476190502
662.321,24.37912857142862
664.895,51.347395238095274
667.468,67.58355714285717
670.038,50.70150952380955
672.607,43.12449523809528
675.174,76.65659904761911
677.739,86.43527523809527
680.303,98.7882933333334
682.864,87.70999142857144
685.424,39.48036000000002
687.982,31.998294285714337
690.538,56.305641904761934
693.092,42.92047380952385
695.645,47.83695714285716
698.195,32.33499523809524
700.744,4.837390476190494
703.291,23.338423809523825
705.836,14.451584285714278
708.38,-4.400133571428571
710.921,-1.6031242857142782
713.461,8.837366904761925
715.999,11.535251904761932
718.535,48.91409738095241
721.069,62.44529857142861
723.602,72.40989523809529
726.133,85.80333809523812
728.662,78.33557142857144
731.189,41.81188095238097
733.714,24.942404761904776
736.238,11.675676190476214
738.759,29.864809523809576
741.279,67.7921952380953
743.798,96.02563333333339
746.314,107.27602380952385
748.829,86.58777142857144
751.342,46.9578523809524
753.853,46.621171428571486
756.362,66.4324952380953
758.869,91.91283904761912
761.375,96.77401095238098
763.879,60.204176190476204
766.381,27.5821166666667
768.882,33.048584761904806
771.38,45.41129000000004
773.877,63.57326095238098
776.372,51.675788571428576
778.866,27.431740952380963
781.357,2.1731980952381025
783.847,6.327620000000024
786.335,18.703535238095267
788.821,54.06222000000004
791.306,70.68866000000006
793.789,89.963340952381
796.27,83.40977142857149
798.749,103.8849714285715
801.227,139.48403333333343
803.702,183.873961904762
806.176,202.8642857142858
808.649,203.26538095238107
811.119,186.64885714285725
813.588,191.11085714285727
816.055,193.9377238095239
818.521,170.1779857142858
820.984,150.6897714285715
823.446,101.664980952381
825.906,94.10436190476199
828.365,104.8667571428572
830.821,94.47732857142863
833.276,83.69966666666673
835.729,109.10695714285721
838.181,108.55780476190486
840.631,142.86345238095248
843.079,160.59750476190482
845.525,127.99989047619053
847.97,113.73949523809532
850.412,122.05640476190483
852.854,123.23858000000008
855.293,101.47884428571433
857.731,85.39863142857146
860.167,72.1430033333334
862.601,82.38126476190483
865.034,86.16338714285719
867.465,107.73006095238101
869.894,76.27445714285719
872.321,65.51333809523815
874.747,78.9730952380953
877.171,82.94228571428576
879.594,79.8522714285715
882.014,90.51505238095243
884.433,93.88581904761912
886.851,103.15793809523818
889.266,141.00081904761913
891.68,161.2743000000001
894.092,164.79113333333342
896.503,136.74447619047626
898.912,128.1368095238096
901.319,132.49490476190488
903.724,168.67860000000013
906.128,178.50020000000006
908.53,150.5341571428572
910.931,108.25960000000006
913.329,113.34533809523819
915.726,131.55632380952392
918.122,151.8473476190477
920.516,143.03066666666675
922.908,105.58500000000004
925.298,82.32279047619053
927.687,83.15081428571433
930.074,67.262380952381
932.459,85.94521428571434
934.843,79.91613809523815
937.225,99.4633095238096
939.605,117.92228571428576
941.984,106.43786666666671
944.361,79.5360047619048
946.736,88.21853333333338
949.11,72.53516666666673
951.482,93.67826666666673
953.853,96.84000952380956
956.222,95.68878095238101
958.589,78.3213571428572
960.954,96.78674285714294
963.318,96.51493809523815
965.68,104.74522857142864
968.041,85.62177142857146
970.4,69.4313428571429
972.757,46.50810952380956
975.113,45.51948571428575
977.467,50.79955714285718
979.819,44.87268571428572
982.17,30.644119047619068
984.519,29.590400000000024
986.866,24.806980952380975
989.212,37.722619047619105
991.556,85.24201428571436
993.899,108.79359047619056
996.24,115.52023809523816
998.579,115.516980952381
1000.92,108.16420952380959
1003.25,106.50934285714291
1005.59,81.83746666666669
1007.92,63.243204761904785
1010.25,43.535676190476224
1012.58,37.047528571428636
1014.91,63.9683333333334
1017.24,112.34537619047626
1019.56,123.41594285714294
1021.88,124.84613333333341
1024.2,148.3016095238096
1026.52,146.73409523809534
1028.84,163.57128571428584
1031.16,191.24128571428582
1033.48,204.88600000000014
1035.79,189.45709523809532
1038.1,197.85823809523822
1040.41,220.18395238095252
1042.72,263.24271428571444
1045.03,282.41504761904775
1047.33,295.74728571428585
1049.64,267.71476190476204
1051.94,253.55452380952397
1054.24,245.07528571428585
1056.54,244.08557142857154
1058.84,215.63214285714295
1061.13,192.90433333333345
1063.43,183.90123809523823
1065.72,196.28833333333347
1068.01,193.54076190476204
1070.3,211.276761904762
1072.59,193.25680952380964
1074.87,193.38500000000016
1077.16,229.70776190476207
1079.44,262.1762857142859
1081.72,277.0275714285716
1084.0,320.0702380952383
1086.28,363.5408095238098
1088.56,454.29576190476223
1090.84,587.9049523809527
1093.11,688.748428571429
1095.38,713.7775714285717
1097.65,659.5147619047623
1099.92,558.0063809523813
1102.19,458.4419523809526
1104.46,407.86766666666693
1106.72,400.9969523809526
1108.98,419.59076190476213
1111.24,442.2188095238098
1113.5,491.3561904761908
1115.76,521.8589047619051
1118.02,538.8207619047622
1120.28,544.9072380952384
1122.53,531.7843333333336
1124.78,468.4027619047622
1127.03,410.99942857142884
1129.28,336.47804761904786
1131.53,272.1228571428573
1133.77,224.26580952380968
1136.02,220.43004761904777
1138.26,211.94752380952394
1140.5,232.72152380952397
1142.74,233.0843333333335
1144.98,237.60619047619062
1147.22,247.7140952380954
1149.45,243.4546666666668
1151.69,240.3506190476192
1153.92,223.40061904761916
1156.15,174.12742857142868
1158.38,144.6252857142858
1160.61,141.27354285714293
1162.83,117.73760952380958
1165.06,95.01639047619054
1167.28,86.63253333333337
1169.5,61.53727142857147
1171.72,72.20580000000008
1173.94,99.63661428571433
1176.16,92.87642380952386
1178.37,96.92382380952388
1180.58,90.20646666666669
1182.8,54.2470285714286
1185.01,36.85393809523812
1187.22,36.07352857142858
1189.42,4.0953142857143
1191.63,11.346528571428582
1193.84,13.969176190476208
1196.04,33.34313333333337
1198.24,49.13410000000004
1200.44,58.53166666666668
1202.64,49.630228571428596
1204.84,45.81005714285717
1207.03,27.784823809523825
1209.23,26.030171428571443
1211.42,29.117133333333346
1213.61,13.33112857142858
1215.8,14.005300000000016
1217.99,21.711071428571437
1220.18,19.019985714285735
1222.36,26.217980952380977
1224.55,26.5435761904762
1226.73,32.14014285714289
1228.91,43.77018952380955
1231.09,35.19641095238097
1233.27,37.372083809523836
1235.44,28.488746190476206
1237.62,47.02359809523817
1239.79,92.12091571428577
1241.96,103.97257047619053
1244.13,96.29436190476197
1246.3,84.04025238095241
1248.47,71.59305714285722
1250.64,94.8116238095239
1252.8,124.60251428571436
1254.96,138.11087142857153
1257.13,158.33860952380962
1259.29,191.1926190476192
1261.44,215.29480952380965
1263.6,229.9806190476192
1265.76,228.1094761904763
1267.91,227.5891047619049
1270.06,185.993080952381
1272.22,158.9909714285715
1274.37,120.72839523809532
1276.51,112.96972380952388
1278.66,99.71811904761913
1280.81,132.07190476190482
1282.95,122.22435238095245
1285.09,129.32152380952388
1287.23,134.3184095238096
1289.37,140.12305714285725
1291.51,139.9290476190477
1293.65,141.59680952380958
1295.78,97.08186666666671
1297.92,68.6254523809524
1300.05,35.94497619047621
1302.18,35.75809047619053
1304.31,61.734457142857195
1306.44,86.97286190476197
1308.57,105.23847619047626
1310.69,112.15327619047625
1312.82,123.24439523809534
1314.94,156.4675142857144
1317.06,185.58761904761917
1319.18,188.37014285714295
1321.3,178.38957142857157
1323.41,186.41066666666683
1325.53,214.8653333333335
1327.64,259.70914285714304
1329.75,303.5166666666669
1331.87,302.67185714285733
1333.98,302.3203333333335
1336.08,299.27466666666686
1338.19,271.0616666666668
1340.3,225.8267142857144
1342.4,197.04919047619057
1344.5,153.9695238095239
1346.6,154.97126666666676
1348.7,121.86669523809529
1350.8,105.37276190476197
1352.9,82.20582380952386
1354.99,78.89237142857148
1357.09,61.815419047619095
1359.18,63.69144285714289
1361.27,71.04635238095246
1363.36,106.73920476190484
1365.45,137.77191904761915
1367.54,139.19415714285722
1369.62,162.95973333333345
1371.7,189.21300000000014
1373.79,198.71728571428582
1375.87,216.71190476190486
1377.95,219.67457142857154
1380.03,190.892142857143
1382.1,184.74642857142868
1384.18,192.04751428571439
1386.25,150.08195714285722
1388.33,114.37406190476194
1390.4,88.68623904761907
1392.47,55.5899723809524
1394.54,22.65691619047622
1396.6,25.02966095238097
1398.67,30.041497142857164
1400.74,31.02530095238098
1402.8,40.45672476190478
1404.86,34.95408571428573
1406.92,44.80218190476194
1408.98,39.33336285714289
1411.04,50.355954285714326
1413.09,42.05913238095239
1415.15,39.01285428571431
1417.2,32.882186666666705
1419.25,64.66559619047624
1421.3,76.45626666666672
1423.35,100.01413809523815
1425.4,93.57522380952385
1427.45,96.470680952381
1429.49,85.88873333333338
1431.54,66.8272047619048
1433.58,56.80716666666672
1435.62,58.49280952380956
1437.66,51.83385714285719
1439.7,67.77997142857147
1441.74,67.61407619047621
1443.77,64.04762857142862
1445.81,55.506242857142894
1447.84,63.41553333333337
1449.87,67.53435714285719
1451.9,65.62157142857147
1453.93,70.19776666666672
1455.96,83.2123047619048
1457.98,82.70955714285724
1460.01,122.68639047619058
1462.03,165.28240952380963
1464.05,192.73244761904778
1466.07,221.98563809523824
1468.09,241.84828571428588
1470.11,258.98352380952394
1472.13,298.0074761904764
1474.14,311.869142857143
1476.16,300.5653809523811
1478.17,268.3786666666668
1480.18,237.2582380952382
1482.19,202.4864857142858
1484.2,175.72723809523816
1486.21,134.83445238095246
1488.21,101.4242047619048
1490.22,77.77907333333337
1492.22,46.75342333333336
1494.22,36.9634085714286
1496.22,22.977700476190495
1498.22,23.46027523809527
1500.22,35.74180904761907
1502.22,44.86734952380954
1504.21,40.31065238095242
1506.21,57.6883485714286
1508.2,46.5695823809524
1510.19,35.52357000000001
1512.18,16.83389857142857
1514.17,3.9270795238095317
1516.16,-3.0559728571428453
1518.14,21.12095000000002
1520.13,19.64658380952382
1522.11,22.13826095238097
1524.09,47.40395428571432
1526.07,58.299249047619085
1528.05,51.25130095238098
1530.03,51.63969095238095
1532.01,25.22507809523811
1533.98,11.291950952380981
1535.96,31.02975809523812
1537.93,40.43738095238098
1539.9,48.60913809523812
1541.87,62.115514285714326
1543.84,65.52711428571432
1545.81,63.41459523809527
1547.78,74.58684761904767
1549.74,67.66219047619052
1551.7,66.30677142857148
1553.67,95.09154761904769
1555.63,110.4444476190477
1557.59,120.12711428571437
1559.55,141.75835238095246
1561.5,132.29038095238104
1563.46,141.72276190476202
1565.41,168.86514285714296
1567.37,166.28866666666678
1569.32,146.1835238095239
1571.27,129.0260476190477
1573.22,119.62600000000009
1575.17,128.98319047619057
1577.11,150.90771428571438
1579.06,166.2570952380953
1581.0,161.4594761904763
1582.95,164.42035238095247
1584.89,149.85420952380957
1586.83,144.38018095238107
1588.77,116.42755238095243
1590.7,110.13980000000008
1592.64,116.70754285714295
1594.58,143.67942380952357
1596.51,162.03193809523776
1598.44,153.93221904761845
