Raman Shift,Processed Intensity
331.095,16.52626952380971
333.909,22.239779047619066
336.721,12.298396190476161
339.531,-1.511515714285715
342.339,3.667506666666675
345.145,26.121979523809557
347.949,36.99669333333334
350.751,22.723117142857134
353.55,-9.551938095238121
356.348,-26.87109047619046
359.144,-10.799642857142816
361.937,28.860219047619083
364.729,56.25998571428576
367.518,96.50447619047628
370.306,124.08114285714299
373.091,243.23991428571452
375.874,378.08968571428596
378.656,424.5500000000002
381.435,394.58925714285726
384.212,296.8436285714286
386.988,128.71293809523814
389.761,48.454852380952424
392.532,12.043309523809532
395.301,-6.97518571428569
398.068,11.185277142857164
400.833,26.264415238095243
403.596,1.1939019047619013
406.358,11.85916095238095
409.117,-1.5671980952381048
411.874,-23.244422857142858
414.629,-1.1398752380952324
417.382,4.018623809523802
420.133,-10.352457142857123
422.882,9.926557142857174
425.629,50.94130952380961
428.374,125.398342857143
431.117,227.81439047619062
433.858,277.42177142857156
436.597,283.8351904761906
439.334,255.95576190476203
442.069,219.44738095238108
444.802,203.07080952380966
447.533,200.68257142857155
450.262,223.71138095238115
452.989,257.5397619047621
455.714,289.3599047619049
458.438,285.8885904761906
461.159,216.55792380952386
463.878,147.84816190476198
466.595,92.38312857142861
469.31,59.739761904761956
472.024,68.9236333333334
474.735,93.70321904761911
477.444,110.84710000000008
480.152,151.64840952380962
482.857,166.78138095238108
485.561,166.25409523809532
488.262,156.07490476190486
490.962,146.77638095238103
493.659,155.74866666666676
496.355,163.90580952380964
499.048,167.3523333333334
501.74,156.38338095238103
504.43,150.62795238095248
507.118,151.71457142857153
509.804,187.22523809523824
512.488,200.83614285714302
515.17,235.5100476190478
517.85,245.63766666666683
520.528,251.08676190476203
523.204,225.53364761904774
525.878,189.2742190476191
528.551,143.65139047619058
531.221,138.1036857142858
533.89,118.54536190476198
536.556,109.65290476190481
539.221,104.81633333333336
541.883,73.23548571428577
544.544,91.72890476190486
547.203,127.25775238095247
549.86,144.30683809523816
552.515,145.02736190476196
555.168,149.61783809523814
557.819,125.56233333333341
560.469,124.48766666666675
563.116,127.63904761904769
565.761,127.45204761904768
568.405,112.26647619047627
571.047,115.46952380952389
573.687,138.3055238095239
576.324,156.92314285714295
578.96,161.9942857142858
581.594,167.285761904762
584.227,162.32595238095246
586.857,172.73805714285726
589.485,171.19286666666673
592.112,166.26511428571436
594.737,135.86267619047624
597.359,109.2263952380953
599.98,96.97751428571435
602.599,93.8799571428572
605.216,90.6496857142858
607.831,116.04971904761913
610.445,133.46166666666673
613.056,161.3144857142858
615.666,156.79843809523817
618.274,135.81789523809533
620.88,153.0866000000001
623.484,155.50799047619057
626.086,183.50940000000014
628.686,221.04111428571443
631.284,239.81523809523827
633.881,258.8286666666668
636.476,278.8879523809525
639.068,251.7042380952382
641.659,231.46452380952394
644.249,211.06947619047634
646.836,193.80061904761916
649.421,191.70043809523824
652.005,166.43092857142864
654.587,135.60621809523815
657.166,84.69693000000002
659.745,55.03090761904764
662.321,42.36414619047623
664.895,47.88092190476194
667.468,51.95618714285719
670.038,69.86920380952384
672.607,62.756376190476225
675.174,66.46817142857148
677.739,68.47412380952385
680.303,53.52935238095242
682.864,53.15081142857146
685.424,37.1411423809524
687.982,29.017289523809556
690.538,39.058045238095254
693.092,29.018498571428587
695.645,23.74892714285717
698.195,37.14735952380954
700.744,41.82620476190479
703.291,51.159860000000016
705.836,19.38007523809523
708.38,7.38513476190478
710.921,3.6453447619047807
713.461,26.05961761904767
715.999,53.47946285714289
718.535,97.75656190476195
721.069,82.83817619047625
723.602,103.24291428571433
726.133,92.77570952380957
728.662,88.19382857142861
731.189,60.25480000000003
733.714,50.2400904761905
736.238,37.33622857142861
738.759,54.396547619047666
741.279,71.51263619047623
743.798,67.72860285714287
746.314,68.42218190476194
748.829,67.49492571428576
751.342,73.70578190476196
753.853,83.9090790476191
756.362,110.43568380952387
758.869,89.09245238095244
761.375,86.35335714285719
763.879,56.21615238095241
766.381,68.20265238095243
768.882,81.21578095238101
771.38,94.4920428571429
773.877,105.69647619047625
776.372,110.25619047619051
778.866,78.26516190476198
781.357,114.34112380952388
783.847,118.24510476190481
786.335,111.59550476190483
788.821,120.15323809523817
791.306,116.48933333333342
793.789,110.98400476190486
796.27,138.0176476190477
798.749,139.0667142857144
801.227,166.41666666666677
803.702,195.01985714285723
806.176,192.59085714285726
808.649,200.5106666666668
811.119,203.68409523809535
813.588,196.92161904761915
816.055,198.5092380952382
818.521,196.06695238095247
820.984,167.97614285714295
823.446,137.28557142857153
825.906,141.75761904761916
828.365,139.15590476190482
830.821,146.19585714285725
833.276,155.3069238095239
835.729,135.06190000000004
838.181,96.60532380952388
840.631,107.98586190476199
843.079,122.68175238095249
845.525,149.40895714285725
847.97,161.311780952381
850.412,119.15415238095243
852.854,90.46200952380958
855.293,81.04638095238101
857.731,82.09992857142862
860.167,82.48197142857147
862.601,91.43274761904765
865.034,67.90682857142862
867.465,80.14473809523815
869.894,83.86302380952387
872.321,103.54015238095245
874.747,106.32161428571436
877.171,113.40031428571434
879.594,105.5883571428572
882.014,120.3646857142858
884.433,120.87480000000009
886.851,136.88299047619054
889.266,128.67766666666674
891.68,135.6902857142858
894.092,137.92366666666675
896.503,166.4285238095239
898.912,172.96946666666676
901.319,146.50156190476199
903.724,142.36099047619058
906.128,133.8366380952382
908.53,128.8359523809525
910.931,140.98131428571435
913.329,149.79949523809532
915.726,124.53137619047628
918.122,144.9421333333334
920.516,133.6536000000001
922.908,118.28770952380958
925.298,108.22867619047626
927.687,121.71766190476198
930.074,114.13856666666675
932.459,118.1613190476191
934.843,120.36010476190482
937.225,109.07143333333339
939.605,95.96497619047624
941.984,67.3770285714286
944.361,50.92975714285717
946.736,43.95938571428576
949.11,54.84966666666672
951.482,84.41331428571434
953.853,92.03404761904767
956.222,106.6194714285715
958.589,114.07736190476196
960.954,107.26760476190479
963.318,84.28825238095241
965.68,69.38030952380956
968.041,42.11775238095242
970.4,48.55088571428574
972.757,40.58713809523812
975.113,38.51475238095241
977.467,41.574356190476216
979.819,31.577944285714295
982.17,24.527917142857163
984.519,39.99806142857146
986.866,34.133499047619075
989.212,49.17444142857147
991.556,71.31364571428577
993.899,92.93406857142864
996.24,105.75191523809531
998.579,143.14991047619054
1000.92,130.65371428571436
1003.25,106.2649190476191
1005.59,66.46142380952385
1007.92,61.958680952381
1010.25,48.85331428571434
1012.58,72.33679523809529
1014.91,100.5054333333334
1017.24,107.50301428571434
1019.56,95.52074285714292
1021.88,100.5589190476191
1024.2,105.33237142857149
1026.52,116.46065238095245
1028.84,114.84850000000004
1031.16,112.87718095238102
1033.48,117.83227142857152
1035.79,125.37988571428582
1038.1,161.18658571428585
1040.41,218.01427619047632
1042.72,218.43357142857155
1045.03,224.0154761904763
1047.33,229.37823809523817
1049.64,196.28276190476203
1051.94,180.15709523809537
1054.24,189.42868571428582
1056.54,144.66794761904768
1058.84,128.25451428571435
1061.13,115.85390952380958
1063.43,99.08384761904769
1065.72,110.99079523809533
1068.01,122.47760476190484
1070.3,117.68569523809532
1072.59,136.37536666666676
1074.87,141.78302857142867
1077.16,153.09734761904775
1079.44,184.1737047619049
1081.72,231.62938095238115
1084.0,294.22428571428594
1086.28,366.29000000000025
1088.56,455.300285714286
1090.84,551.4910000000003
1093.11,611.2411428571432
1095.38,638.6914761904765
1097.65,586.8875714285717
1099.92,482.5415714285716
1102.19,405.55576190476216
1104.46,373.8321904761907
1106.72,360.98809523809547
1108.98,383.83033333333356
1111.24,412.92795238095266
1113.5,443.659666666667
1115.76,464.02290476190507
1118.02,476.82466666666693
1120.28,487.5865714285717
1122.53,477.1158095238098
1124.78,441.6476190476193
1127.03,388.1798571428574
1129.28,304.94776190476205
1131.53,233.33004761904775
1133.77,206.18123809523823
1136.02,176.54695238095252
1138.26,168.56723809523822
1140.5,186.0968571428573
1142.74,200.8951904761906
1144.98,221.7695714285716
1147.22,256.52700000000016
1149.45,248.9749523809525
1151.69,242.68228571428585
1153.92,211.265761904762
1156.15,181.00869523809536
1158.38,138.29005238095246
1160.61,121.86957142857149
1162.83,96.12604761904767
1165.06,91.91455714285719
1167.28,64.9474047619048
1169.5,64.7461285714286
1171.72,49.73754285714289
1173.94,57.30082857142861
1176.16,65.48162857142862
1178.37,75.37349047619051
1180.58,57.68901904761908
1182.8,49.378933333333364
1185.01,43.34645714285717
1187.22,50.49485142857146
1189.42,48.917932380952394
1191.63,48.2334504761905
1193.84,40.34492476190478
1196.04,28.298774761904777
1198.24,13.713001904761914
1200.44,19.348530952380962
1202.64,17.01398285714287
1204.84,15.137155714285726
1207.03,12.669767142857141
1209.23,5.325540952380953
1211.42,-2.7054976190476028
1213.61,12.71918095238097
1215.8,25.69457428571429
1217.99,15.36343857142857
1220.18,12.53533666666668
1222.36,17.16278047619049
1224.55,19.91267000000002
1226.73,35.49967190476193
1228.91,54.6861028571429
1231.09,61.90110952380957
1233.27,78.71681428571432
1235.44,74.13405238095241
1237.62,73.43922380952387
1239.79,68.3001428571429
1241.96,68.43219047619053
1244.13,74.59822380952387
1246.3,97.60920000000007
1248.47,111.22839523809532
1250.64,142.6952095238096
1252.8,172.63025714285726
1254.96,212.0348571428573
1257.13,238.95819047619062
1259.29,250.307142857143
1261.44,257.7500476190478
1263.6,240.47928571428588
1265.76,241.11571428571443
1267.91,248.56590476190487
1270.06,234.07009523809538
1272.22,224.48800000000014
1274.37,206.15457142857153
1276.51,179.59590476190488
1278.66,165.385761904762
1280.81,153.24061904761913
1282.95,130.44838095238106
1285.09,154.3452380952382
1287.23,166.6949523809525
1289.37,178.16690476190487
1291.51,173.90661904761913
1293.65,165.86880952380963
1295.78,135.48442857142865
1297.92,133.04190476190485
1300.05,129.06771428571437
1302.18,135.5644857142858
1304.31,121.29672380952388
1306.44,124.69540000000009
1308.57,141.14413333333346
1310.69,167.8836380952382
1312.82,179.1071523809525
1314.94,207.38905714285727
1317.06,215.922142857143
1319.18,221.56619047619063
1321.3,256.56223809523823
1323.41,279.3890000000001
1325.53,294.14423809523834
1327.64,335.06876190476214
1329.75,371.64119047619073
1331.87,364.054523809524
1333.98,378.07357142857165
1336.08,345.1293809523811
1338.19,310.51009523809546
1340.3,312.5513809523811
1342.4,305.6844285714287
1344.5,270.19757142857156
1346.6,244.28352380952393
1348.7,188.2303333333334
1350.8,150.56404761904773
1352.9,145.90590476190485
1354.99,147.3060000000001
1357.09,158.05209523809535
1359.18,160.47957142857152
1361.27,165.8284761904763
1363.36,157.10090476190487
1365.45,149.15590476190485
1367.54,137.13857142857154
1369.62,162.05028571428585
1371.7,193.9883809523811
1373.79,232.430142857143
1375.87,244.71076190476208
1377.95,276.3080476190478
1380.03,271.6519047619049
1382.1,255.93442857142867
1384.18,232.68061904761913
1386.25,201.27242857142863
1388.33,165.23461904761913
1390.4,168.85420476190484
1392.47,124.79845000000005
1394.54,82.92562380952387
1396.6,61.37925476190482
1398.67,69.20748095238102
1400.74,80.69633571428578
1402.8,111.37033333333338
1404.86,86.56290952380955
1406.92,91.98858571428576
1408.98,72.55210952380956
1411.04,67.20570000000004
1413.09,70.04440952380958
1415.15,89.21067619047625
1417.2,91.89453809523818
1419.25,130.42895238095244
1421.3,131.1938952380953
1423.35,130.71227619047627
1425.4,119.36410952380959
1427.45,108.29117142857147
1429.49,96.92065238095243
1431.54,104.25150476190484
1433.58,116.80576666666673
1435.62,121.9630190476191
1437.66,109.76937142857147
1439.7,87.84215238095241
1441.74,73.75071428571434
1443.77,61.44561428571434
1445.81,72.97254285714291
1447.84,82.2818047619048
1449.87,87.18076190476195
1451.9,91.09573809523816
1453.93,104.16720952380957
1455.96,105.10738095238102
1457.98,105.24736190476197
1460.01,116.06054285714296
1462.03,141.78261904761916
1464.05,160.03004761904774
1466.07,200.41914285714302
1468.09,240.37614285714298
1470.11,272.1364761904764
1472.13,310.6497619047621
1474.14,324.2465238095239
1476.16,295.3050000000001
1478.17,270.39380952380964
1480.18,264.0340095238097
1482.19,231.03260476190488
1484.2,199.24406666666675
1486.21,166.1889857142858
1488.21,130.43609523809533
1490.22,106.03017619047625
1492.22,100.87315714285718
1494.22,77.96244761904765
1496.22,64.39059047619052
1498.22,63.01176761904765
1500.22,44.39485095238096
1502.22,30.632340000000013
1504.21,15.3882823809524
1506.21,24.755283809523835
1508.2,30.15935904761906
1510.19,31.026573333333342
1512.18,11.592521904761908
1514.17,19.807152380952402
1516.16,17.572859047619062
1518.14,45.26829904761908
1520.13,42.93885380952382
1522.11,44.39188666666668
1524.09,24.625318571428586
1526.07,30.922863047619064
1528.05,11.520733047619066
1530.03,29.03619752380954
1532.01,29.991332666666693
1533.98,31.336905142857155
1535.96,33.35714685714289
1537.93,46.95537828571431
1539.9,35.98749047619051
1541.87,58.261795238095274
1543.84,52.63433809523811
1545.81,34.67557142857145
1547.78,35.7179904761905
1549.74,48.37986190476194
1551.7,51.612995238095294
1553.67,83.32146666666672
1555.63,85.9813190476191
1557.59,103.40180476190484
1559.55,120.3919476190477
1561.5,144.95179047619055
1563.46,142.4625238095239
1565.41,147.6380476190477
1567.37,152.76474285714295
1569.32,140.5571476190477
1571.27,120.68196190476198
1573.22,131.04480476190483
1575.17,128.78900952380963
1577.11,134.24805238095246
1579.06,153.18488571428577
1581.0,140.26679047619055
1582.95,111.44721904761911
1584.89,124.6318857142858
1586.83,116.96446666666672
1588.77,109.16019047619055
1590.7,134.0297238095239
1592.64,136.3359714285715
1594.58,136.2945666666668
1596.51,145.477966666667
1598.44,173.2206047619053
