Raman Shift,Processed Intensity
331.095,15.900369047618982
333.909,-6.364535714285681
336.721,-23.206292857142813
339.531,-30.00805238095238
342.339,-12.296180952380954
345.145,10.832028571428598
347.949,27.99488476190476
350.751,30.145103809523796
353.55,-18.382506666666668
356.348,-7.061446666666633
359.144,31.49287428571434
361.937,84.95210380952389
364.729,104.7034895238096
367.518,121.04021904761913
370.306,166.16157142857162
373.091,248.88733333333354
375.874,363.0855238095241
378.656,408.0067142857145
381.435,354.56965714285724
384.212,253.55154857142867
386.988,153.5404985714286
389.761,51.22139619047622
392.532,16.613426666666665
395.301,-17.73875238095239
398.068,-31.288923333333333
400.833,-20.06080285714286
403.596,-6.743337619047624
406.358,-15.881058095238107
409.117,-19.445595714285727
411.874,-10.359410476190472
414.629,-5.305408571428574
417.382,-7.393599047619048
420.133,-12.113486190476197
422.882,-6.429193333333291
425.629,53.7914761904763
428.374,163.9678285714287
431.117,252.90162380952393
433.858,286.4911238095239
436.597,264.540142857143
439.334,233.85438095238106
442.069,197.0968095238096
444.802,165.26519047619058
447.533,146.40628571428581
450.262,141.32904761904774
452.989,178.7483809523811
455.714,227.61849523809533
458.438,199.89366190476196
461.159,180.2914476190477
463.878,127.2920571428572
466.595,103.9470857142858
469.31,105.30984761904767
472.024,101.00509047619053
474.735,91.08675714285724
477.444,108.13317619047623
480.152,102.43750476190483
482.857,130.0551095238096
485.561,129.08950476190483
488.262,116.69239047619057
490.962,126.63467619047626
493.659,112.0210476190477
496.355,125.7658000000001
499.048,130.45044285714295
501.74,124.799361904762
504.43,121.01365238095246
507.118,154.43693333333346
509.804,159.6516809523811
512.488,202.95389523809536
515.17,208.11661904761914
517.85,214.77009523809537
520.528,192.87742857142868
523.204,198.73501904761915
525.878,153.8304238095239
528.551,130.9836095238096
531.221,116.30079523809532
533.89,99.55485238095243
536.556,79.47062380952387
539.221,98.05825238095245
541.883,107.70905714285722
544.544,115.38552857142865
547.203,130.09740952380957
549.86,117.09290476190485
552.515,120.66719047619057
555.168,138.9245714285715
557.819,161.3974285714287
560.469,181.52333333333343
563.116,194.1675238095239
565.761,199.5763809523811
568.405,209.09076190476202
571.047,201.48014285714297
573.687,202.94190476190488
576.324,193.72090476190488
578.96,174.91842857142865
581.594,166.54014285714294
584.227,164.44857142857154
586.857,162.93458095238105
589.485,146.86017619047627
592.112,136.13435238095246
594.737,118.18949047619054
597.359,106.74287619047628
599.98,125.94065238095249
602.599,173.59462857142867
605.216,195.18314285714297
607.831,210.04114285714294
610.445,191.07471428571438
613.056,125.61766666666671
615.666,95.57542857142866
618.274,117.42380952380964
620.88,143.5434761904763
623.484,173.69514285714297
626.086,195.83004761904772
628.686,225.18409523809544
631.284,278.23142857142875
633.881,360.4455714285716
636.476,383.5380952380954
639.068,399.1244285714288
641.659,360.20085714285733
644.249,337.8581904761906
646.836,285.80600000000015
649.421,231.32538095238107
652.005,163.6018476190477
654.587,132.53449047619054
657.166,99.59380000000007
659.745,78.58335238095239
662.321,45.306095238095246
664.895,6.993995238095254
667.468,12.259466666666704
670.038,35.381271428571466
672.607,55.733400952380975
675.174,50.88023904761906
677.739,28.147897142857147
680.303,17.81484190476194
682.864,43.25464000000005
685.424,73.03134857142862
687.982,82.70894000000003
690.538,64.94667476190477
693.092,25.26095428571429
695.645,-5.165050952380957
698.195,-26.243440952380954
700.744,-11.600396666666658
703.291,4.042729523809536
705.836,22.774233333333356
708.38,34.82544761904763
710.921,27.09445714285715
713.461,26.098600000000033
715.999,38.879176190476215
718.535,36.66805714285718
721.069,60.221114285714336
723.602,72.05626666666672
726.133,86.26295238095244
728.662,89.6927285714286
731.189,79.91160000000004
733.714,45.72378095238098
736.238,37.40986190476194
738.759,47.25074761904767
741.279,64.76525714285718
743.798,75.94874761904768
746.314,79.79684285714289
748.829,90.78129523809531
751.342,94.37436190476197
753.853,96.3341904761905
756.362,54.32355714285714
758.869,24.910428571428582
761.375,0.56770952380956
763.879,42.05385714285721
766.381,86.08059047619054
768.882,97.83563333333338
771.38,90.88794761904765
773.877,82.85426666666672
776.372,71.63722380952387
778.866,104.71103809523818
781.357,111.31218571428576
783.847,92.7247571428572
786.335,88.70951904761911
788.821,98.02696190476198
791.306,106.81915714285722
793.789,135.08522857142867
796.27,142.34833333333341
798.749,159.2269523809525
801.227,182.57838095238108
803.702,227.92571428571443
806.176,258.412142857143
808.649,246.3710000000001
811.119,240.6599523809525
813.588,218.99352380952394
816.055,203.32504761904775
818.521,198.70238095238108
820.984,205.55519047619057
823.446,179.1226666666668
825.906,165.45361904761913
828.365,147.07295238095247
830.821,135.64909523809533
833.276,129.61171428571438
835.729,140.8198095238096
838.181,155.79871428571437
840.631,160.1218571428572
843.079,166.55285714285725
845.525,162.99876190476198
847.97,155.31870476190485
850.412,131.80091904761912
852.854,127.9238857142858
855.293,133.73756666666674
857.731,117.29191904761912
860.167,119.87518571428578
862.601,103.25209523809527
865.034,68.13973809523813
867.465,71.73148571428578
869.894,86.93474761904767
872.321,88.08574761904771
874.747,115.7591952380953
877.171,117.14837142857151
879.594,110.54232380952391
882.014,141.37251428571437
884.433,163.02319047619056
886.851,174.64052380952393
889.266,193.27557142857154
891.68,190.74085714285724
894.092,185.468761904762
896.503,205.8430000000001
898.912,213.15304761904773
901.319,201.73557142857152
903.724,195.87985714285722
906.128,189.25609523809538
908.53,188.86761904761914
910.931,204.24142857142868
913.329,226.14347619047635
915.726,227.43398095238106
918.122,195.30724285714294
920.516,151.48089047619055
922.908,105.72013809523816
925.298,106.21903333333344
927.687,131.31448095238105
930.074,162.3431476190477
932.459,152.16540476190482
934.843,137.16580000000005
937.225,111.72856190476196
939.605,99.04748095238101
941.984,96.88774285714294
944.361,92.39547619047624
946.736,88.76425238095246
949.11,94.33076666666672
951.482,101.43120952380957
953.853,82.87822857142862
956.222,70.05583809523813
958.589,58.30020476190481
960.954,73.94766666666672
963.318,82.667561904762
965.68,109.22439047619052
968.041,116.81134285714292
970.4,98.47868095238098
972.757,96.08603809523814
975.113,72.82640952380955
977.467,39.79725714285716
979.819,11.334023809523822
982.17,27.010342857142902
984.519,40.590152380952425
986.866,74.12295238095244
989.212,80.324880952381
991.556,82.43560952380957
993.899,94.21869523809532
996.24,109.62812380952387
998.579,101.42711904761909
1000.92,92.14070000000002
1003.25,86.15098571428575
1005.59,63.982557142857196
1007.92,82.35065714285717
1010.25,55.017930952380965
1012.58,53.747004761904805
1014.91,53.68106904761908
1017.24,56.820580952380986
1019.56,51.1179928571429
1021.88,87.8593333333334
1024.2,88.9016095238096
1026.52,128.38791904761914
1028.84,151.98438095238103
1031.16,163.97657142857153
1033.48,161.74466666666677
1035.79,172.0503809523811
1038.1,205.55971428571445
1040.41,225.510142857143
1042.72,250.32938095238114
1045.03,275.8737142857144
1047.33,259.9517142857144
1049.64,240.84804761904778
1051.94,250.46623809523825
1054.24,209.56704761904774
1056.54,183.48242857142867
1058.84,151.1158095238096
1061.13,136.13242857142868
1063.43,134.95919047619057
1065.72,184.1661904761906
1068.01,198.9424285714287
1070.3,195.0955238095239
1072.59,199.2903809523811
1074.87,214.19185714285726
1077.16,224.79790476190493
1079.44,269.34500000000014
1081.72,286.0214761904764
1084.0,296.49228571428597
1086.28,348.5170952380955
1088.56,448.33209523809563
1090.84,578.8873333333338
1093.11,688.9425714285719
1095.38,724.2097142857147
1097.65,667.9248571428575
1099.92,549.3713333333336
1102.19,450.73766666666694
1104.46,401.8787142857146
1106.72,390.5540476190478
1108.98,417.618285714286
1111.24,454.5927142857145
1113.5,504.8084285714289
1115.76,535.3585714285717
1118.02,544.7644285714289
1120.28,553.9762380952384
1122.53,545.4202380952383
1124.78,519.3794761904765
1127.03,472.61347619047643
1129.28,401.5010476190478
1131.53,313.325523809524
1133.77,247.0368571428573
1136.02,213.347142857143
1138.26,201.39671428571444
1140.5,196.51676190476206
1142.74,198.51471428571443
1144.98,219.0074285714287
1147.22,231.27819047619062
1149.45,256.9438095238097
1151.69,265.43100000000015
1153.92,252.73752380952394
1156.15,217.05176190476203
1158.38,182.08614285714296
1160.61,166.98138095238104
1162.83,148.49742857142866
1165.06,134.2993095238096
1167.28,124.57538095238102
1169.5,112.70497619047624
1171.72,101.11506666666673
1173.94,108.2323666666667
1176.16,105.57919047619052
1178.37,87.34444761904764
1180.58,61.81236666666669
1182.8,30.267276190476217
1185.01,27.1365285714286
1187.22,36.51402857142861
1189.42,49.208157142857175
1191.63,52.979740952380965
1193.84,37.20873
1196.04,17.894225714285717
1198.24,-1.8216938095238113
1200.44,-4.5587619047619
1202.64,-2.0793928571428424
1204.84,14.235027619047642
1207.03,35.14609619047622
1209.23,52.41552952380954
1211.42,43.80521000000002
1213.61,33.21997523809525
1215.8,4.088662380952382
1217.99,4.316366666666692
1220.18,25.42737380952384
1222.36,43.51747114285717
1224.55,37.49215423809525
1226.73,45.971285619047634
1228.91,31.670134809523837
1231.09,37.39929514285718
1233.27,49.39806661904765
1235.44,49.90582542857145
1237.62,40.8763428571429
1239.79,47.358695238095265
1241.96,60.54501904761911
1244.13,88.0559000000001
1246.3,145.46471428571442
1248.47,171.67813333333345
1250.64,198.8884285714287
1252.8,212.52619047619064
1254.96,237.87923809523826
1257.13,278.4261904761907
1259.29,339.5977142857145
1261.44,366.5390000000002
1263.6,382.5858571428574
1265.76,369.6451904761907
1267.91,339.8149523809526
1270.06,299.002904761905
1272.22,278.4490000000002
1274.37,279.6322380952383
1276.51,256.27000000000015
1278.66,227.93619047619063
1280.81,198.11000000000013
1282.95,167.84171428571443
1285.09,160.37204761904772
1287.23,171.56133333333344
1289.37,174.69809523809533
1291.51,172.73785714285725
1293.65,181.11180952380963
1295.78,189.68014285714298
1297.92,177.82685714285725
1300.05,172.60261904761916
1302.18,171.6292857142858
1304.31,162.76700000000008
1306.44,172.44700000000012
1308.57,196.8154285714287
1310.69,199.9229523809525
1312.82,204.7724761904763
1314.94,227.2243333333335
1317.06,227.7574285714287
1319.18,236.23166666666685
1321.3,263.7450952380954
1323.41,286.5388571428573
1325.53,310.4250952380955
1327.64,365.40661904761924
1329.75,365.8670476190478
1331.87,366.0950000000002
1333.98,362.1881904761907
1336.08,374.1018571428574
1338.19,374.0287142857145
1340.3,366.4474761904763
1342.4,306.55095238095254
1344.5,229.67509523809534
1346.6,176.9649523809525
1348.7,164.0897142857144
1350.8,179.0510000000001
1352.9,183.32742857142867
1354.99,183.01600000000008
1357.09,167.88076190476198
1359.18,166.9232857142858
1361.27,171.71714285714296
1363.36,192.78733333333344
1365.45,198.8976666666668
1367.54,205.2397142857144
1369.62,199.62480952380963
1371.7,207.05380952380966
1373.79,236.05204761904776
1375.87,267.8107142857144
1377.95,288.99723809523823
1380.03,295.9458571428573
1382.1,255.7526190476192
1384.18,214.70380952380967
1386.25,196.51409523809534
1388.33,150.4218095238096
1390.4,120.04584761904772
1392.47,120.9104571428572
1394.54,93.77719333333337
1396.6,54.5982766666667
1398.67,51.70642000000003
1400.74,47.24404238095243
1402.8,66.54355809523815
1404.86,95.41373380952386
1406.92,94.85346000000001
1408.98,88.24264761904769
1411.04,88.5321952380953
1413.09,104.81594285714293
1415.15,127.9016952380953
1417.2,137.93071428571437
1419.25,136.23485238095247
1421.3,139.05016190476198
1423.35,126.42214285714293
1425.4,129.15819047619055
1427.45,140.2085238095239
1429.49,146.85676190476198
1431.54,140.8148571428572
1433.58,121.79447619047625
1435.62,108.50738095238103
1437.66,120.52242857142866
1439.7,132.55142857142866
1441.74,148.78200000000007
1443.77,146.6878571428572
1445.81,144.40895238095246
1447.84,127.94252380952389
1449.87,137.7620476190477
1451.9,132.76942857142865
1453.93,140.10433333333344
1455.96,138.71680952380962
1457.98,150.17490476190486
1460.01,171.61885714285728
1462.03,199.99804761904775
1464.05,245.64276190476207
1466.07,293.78842857142877
1468.09,336.051285714286
1470.11,380.28523809523836
1472.13,417.0117142857145
1474.14,404.2277142857145
1476.16,399.02552380952403
1478.17,387.54566666666693
1480.18,365.30909523809544
1482.19,334.7892857142859
1484.2,278.7935714285715
1486.21,206.17660952380965
1488.21,139.88810952380962
1490.22,106.68766666666673
1492.22,89.6682190476191
1494.22,81.2086666666667
1496.22,70.97360000000003
1498.22,59.96112380952383
1500.22,58.074023809523844
1502.22,58.40580476190479
1504.21,41.66907142857142
1506.21,16.814685714285716
1508.2,8.79360476190477
1510.19,0.22360000000002156
1512.18,16.00827619047621
1514.17,34.956142857142865
1516.16,27.11387619047621
1518.14,28.194971428571456
1520.13,48.19869238095241
1522.11,47.791068571428596
1524.09,44.20960571428573
1526.07,35.26336657142858
1528.05,13.094783952380958
1530.03,0.6558717142857282
1532.01,11.232034619047635
1533.98,24.822987904761934
1535.96,39.80946395238098
1537.93,52.715099904761935
1539.9,55.34930476190479
1541.87,53.188219047619086
1543.84,59.46991428571434
1545.81,82.86097142857147
1547.78,84.31390000000003
1549.74,83.68592380952386
1551.7,84.21525714285718
1553.67,82.28304761904768
1555.63,110.22299047619057
1557.59,134.3683333333334
1559.55,151.576561904762
1561.5,158.8480095238096
1563.46,140.1355333333334
1565.41,130.67759047619057
1567.37,130.6177047619048
1569.32,127.47963809523819
1571.27,138.3592952380953
1573.22,138.78096190476197
1575.17,147.88800952380964
1577.11,143.77612857142864
1579.06,134.8744000000001
1581.0,146.99301428571437
1582.95,135.2756857142858
1584.89,147.34186190476203
1586.83,155.09702857142867
1588.77,139.92275238095246
1590.7,138.6769333333334
1592.64,147.1220857142858
1594.58,153.8066333333333
1596.51,171.040661904762
1598.44,204.65813809523843
