Raman Shift,Processed Intensity
331.095,154.26273259402478
333.909,9.77224706132074
336.721,-48.79033060404436
339.531,-47.59165165318336
342.339,-29.322146029922806
345.145,36.87541664948276
347.949,44.23926602596384
350.751,59.769588974883845
353.55,66.7523447261483
356.348,85.66403236526276
359.144,109.31455357249615
361.937,143.18055155249567
364.729,117.31017853535286
367.518,161.46595851575012
370.306,224.69622142068374
373.091,296.6684420390857
375.874,369.4311503800218
378.656,406.12822298327774
381.435,373.18936470612925
384.212,301.2348762243896
386.988,203.21851677156656
389.761,95.61798592562536
392.532,14.339691110043987
395.301,-24.519342047989994
398.068,-16.957178406994444
400.833,-10.924109133032744
403.596,-18.084552128524138
406.358,-33.48371621933211
409.117,-9.499980816076004
411.874,-5.65442044881911
414.629,-11.896523673945921
417.382,7.205325056120728
420.133,4.654315273978682
422.882,26.501393307415128
425.629,121.13096969434082
428.374,229.0704366429777
431.117,362.7044502535905
433.858,495.6558794068869
436.597,573.2619927476458
439.334,597.907788525506
442.069,603.0736101500215
444.802,600.5732379362066
447.533,599.3634094215054
450.262,606.7342920637088
452.989,637.404717843644
455.714,674.9031321535622
458.438,668.0437807807707
461.159,662.7838492722112
463.878,624.2234594419069
466.595,619.2247134974555
469.31,603.9355000712849
472.024,596.6466335852429
474.735,551.7442317104264
477.444,528.8525690174897
480.152,502.1197877698087
482.857,510.78932300235465
485.561,509.3427561719918
488.262,549.8807640458749
490.962,581.7421628279417
493.659,612.5039046663537
496.355,631.6477408276037
499.048,633.7506943944313
501.74,664.3421996304132
504.43,766.046955630261
507.118,850.8706371129688
509.804,952.9141766435482
512.488,1035.7547135214195
515.17,1092.5408283830866
517.85,1174.468730185769
520.528,1244.163205095802
523.204,1286.9633272817932
525.878,1303.0653125649264
528.551,1341.379657783555
531.221,1382.102565872075
533.89,1401.4302280826669
536.556,1415.4635823975095
539.221,1426.113071941017
541.883,1404.5748319634763
544.544,1442.8068768247117
547.203,1440.5290965015506
549.86,1430.4137292857695
552.515,1430.4663106725193
555.168,1471.3590032011302
557.819,1516.668688200672
560.469,1595.6864861069516
563.116,1675.5606101128396
565.761,1784.677315056701
568.405,1878.7085129774923
571.047,2012.040341050822
573.687,2110.8683961916545
576.324,2159.673922037982
578.96,2207.1285673630696
581.594,2233.951525440065
584.227,2196.6714353113957
586.857,2150.1501878200593
589.485,2036.9638744980566
592.112,1871.3075459786392
594.737,1676.0428275514082
597.359,1490.9360109078916
599.98,1346.0866220775874
602.599,1236.2131322211626
605.216,1159.8434303284043
607.831,1115.3148197257055
610.445,1045.059728869262
613.056,1054.2723745192288
615.666,1145.3373296757845
618.274,1244.0676153247182
620.88,1435.4666017068366
623.484,1652.2518143492616
626.086,1834.6644543824464
628.686,2013.5170140952837
631.284,2102.4313686807013
633.881,2070.5054394098147
636.476,1980.2179520441955
639.068,1819.190338105257
641.659,1626.2819694769933
644.249,1389.0663453896568
646.836,1153.4501365463038
649.421,943.4350863921982
652.005,756.070388574673
654.587,587.0717310696823
657.166,473.29748316546966
659.745,354.5105967319673
662.321,305.4738408235148
664.895,262.14027437682034
667.468,200.79609986129208
670.038,145.8225645484281
672.607,109.3150046383521
675.174,81.89236557682307
677.739,74.74481761033621
680.303,61.15756181741881
682.864,28.987017092308633
685.424,22.708435700056725
687.982,13.13018549829394
690.538,15.727082857948517
693.092,12.497537541318252
695.645,43.058794247980586
698.195,47.8850329979914
700.744,50.06928038852902
703.291,28.3234204166597
705.836,8.835348159247133
708.38,27.745171071905133
710.921,95.28807985816411
713.461,129.03245837560962
715.999,158.54656779693642
718.535,168.92237362815968
721.069,174.72794415538783
723.602,161.57889651064306
726.133,165.94793797577358
728.662,153.87916919113286
731.189,147.46429212615703
733.714,112.60453233566614
736.238,87.29637073996491
738.759,37.72679921446979
741.279,-2.250471439712328
743.798,-4.495946382347029
746.314,-7.727186382532182
748.829,-30.423552465913417
751.342,-32.30237960806244
753.853,-28.747532200830847
756.362,-21.761772434072554
758.869,-11.3953227650577
761.375,-11.031574430536693
763.879,-23.768036426276467
766.381,-25.84490474732229
768.882,-10.264108991195371
771.38,28.92497177632049
773.877,41.8635998453924
776.372,41.217006694698284
778.866,9.84105415731483
781.357,7.829847967556816
783.847,67.84906559353249
786.335,124.61214220799957
788.821,186.07074316882745
791.306,220.129046023279
793.789,248.3104034646608
796.27,315.32876819374314
798.749,426.8982130182744
801.227,496.3043557143992
803.702,571.5948315071228
806.176,602.9602417412539
808.649,607.2579596952078
811.119,598.9645078233766
813.588,580.8898397604016
816.055,525.2725747064064
818.521,476.0657080027031
820.984,410.98422646940116
823.446,351.267009457305
825.906,297.3434918045705
828.365,257.0241363171781
830.821,216.73852529702344
833.276,199.202023498573
835.729,167.27291727600414
838.181,147.7619346827105
840.631,126.67033699938793
843.079,136.5232483573559
845.525,127.60774726663385
847.97,123.4490533821131
850.412,117.0009999840222
852.854,76.40793502980932
855.293,50.433288872698085
857.731,73.45957055167219
860.167,70.05979265289488
862.601,69.56889617111301
865.034,68.55993727583473
867.465,29.12979788703069
869.894,-1.4817704158290326
872.321,19.06023084860135
874.747,34.328900496394
877.171,39.944957621788035
879.594,70.29102536593109
882.014,84.0354384951338
884.433,69.846527169615
886.851,117.15451975985297
889.266,147.19915994866415
891.68,124.64875240470474
894.092,139.8382560750233
896.503,143.48356795379414
898.912,156.91961637486656
901.319,177.48131144716672
903.724,202.21782882342586
906.128,175.22594108796602
908.53,183.3166824778068
910.931,197.63439455615844
913.329,208.70434331448723
915.726,180.2422410364693
918.122,174.58281578100878
920.516,167.34647610333468
922.908,172.58216625230716
925.298,176.7197451772331
927.687,182.5223655346863
930.074,186.37218602866596
932.459,181.6037027983598
934.843,197.02755699639556
937.225,196.78767570041782
939.605,196.2184128246663
941.984,215.3207376506034
944.361,209.04794716706465
946.736,200.59137841040592
949.11,199.85659699512144
951.482,208.65387135875562
953.853,221.50769462585913
956.222,220.70440171003156
958.589,172.62550070168845
960.954,145.12862330344615
963.318,99.88085621788014
965.68,88.12064396386268
968.041,86.75302502622753
970.4,79.39724895782047
972.757,59.52963157678323
975.113,76.62641016384214
977.467,32.97326532626266
979.819,19.85579524275545
982.17,5.988085146474532
984.519,2.9412768080201204
986.866,13.286425768928439
989.212,42.30878777947237
991.556,56.29353412072942
993.899,104.24003973605977
996.24,110.95712374353161
998.579,119.15828994834646
1000.92,91.08077687908099
1003.25,88.48556020487013
1005.59,91.4668789621187
1007.92,112.30938082883904
1010.25,114.15479120851205
1012.58,107.43048707584876
1014.91,97.80188034637013
1017.24,118.22003934121949
1019.56,94.25502453768513
1021.88,90.09589098640026
1024.2,118.59830977614592
1026.52,121.47504664152393
1028.84,154.53405961824592
1031.16,175.58326336508435
1033.48,190.81148396201752
1035.79,214.88369942266308
1038.1,233.51247068290286
1040.41,255.41032497045444
1042.72,256.00404393635563
1045.03,247.95847559596905
1047.33,248.89082246046473
1049.64,243.4182630016303
1051.94,232.82462073573424
1054.24,252.67941425977324
1056.54,239.36166919247898
1058.84,234.29801582961363
1061.13,233.58173918022112
1063.43,233.54420995525334
1065.72,261.80250603239347
1068.01,290.1165577303914
1070.3,298.4367692738847
1072.59,302.9992593058373
1074.87,286.5163394952119
1077.16,274.93842171607
1079.44,302.8825918933378
1081.72,350.2516600390445
1084.0,396.32940076475916
1086.28,449.8281747463966
1088.56,519.5079787604604
1090.84,621.5097814345609
1093.11,703.2126685217452
1095.38,729.0433691272083
1097.65,671.6191152683407
1099.92,566.7952633395321
1102.19,479.09386795793375
1104.46,454.465589142558
1106.72,457.7658852076529
1108.98,449.8026342275223
1111.24,487.00280312037853
1113.5,528.4124500655414
1115.76,579.3157745396772
1118.02,651.8065483054272
1120.28,704.2643083047899
1122.53,700.0686447906046
1124.78,696.9325370770769
1127.03,637.9499750045934
1129.28,571.6911994521586
1131.53,512.4407999926877
1133.77,450.4834315959158
1136.02,409.48476942655293
1138.26,375.8724636424349
1140.5,390.9313799069637
1142.74,460.5178875206018
1144.98,524.7265285047404
1147.22,584.6995438284305
1149.45,630.1983043970217
1151.69,590.3175991836617
1153.92,536.1046852655513
1156.15,457.7973854792547
1158.38,370.49075750458087
1160.61,296.94662009132503
1162.83,242.9268888098129
1165.06,201.2888165633492
1167.28,167.74690076733896
1169.5,130.82526671886967
1171.72,117.66719382344081
1173.94,78.89226086931353
1176.16,49.405872254242695
1178.37,52.87545087887338
1180.58,64.06377389728186
1182.8,45.686117991323954
1185.01,42.93407131164804
1187.22,-8.857797438438183
1189.42,-39.783365157189564
1191.63,-37.07923764150587
1193.84,6.160966133318425
1196.04,46.17708690263544
1198.24,64.97098884028674
1200.44,50.59226681004566
1202.64,40.32871552181882
1204.84,50.89679868785856
1207.03,109.91783246468663
1209.23,156.34655393920139
1211.42,166.99492771002974
1213.61,167.48452389744148
1215.8,174.10365805802962
1217.99,195.37881681367435
1220.18,228.02703586145572
1222.36,258.90827798357304
1224.55,261.2635253429744
1226.73,239.9528717789908
1228.91,213.55075796010442
1231.09,217.53644463195678
1233.27,208.91305729392252
1235.44,247.5885356375934
1237.62,249.32801155668858
1239.79,252.13475858553193
1241.96,265.01209371848427
1244.13,337.8205173246183
1246.3,440.5634244909593
1248.47,582.0061496990647
1250.64,701.8664400730327
1252.8,839.100166722747
1254.96,1018.7584646585515
1257.13,1230.5115393725882
1259.29,1481.5058067534742
1261.44,1638.3162710962174
1263.6,1736.803665016902
1265.76,1729.923970319745
1267.91,1634.680796007016
1270.06,1468.125375336565
1272.22,1298.1184676412613
1274.37,1108.1398791960537
1276.51,960.0503650374003
1278.66,841.5678164970009
1280.81,719.1244011164722
1282.95,628.676083514416
1285.09,548.2264319677693
1287.23,513.7313773741016
1289.37,460.09921030915666
1291.51,453.61914951295466
1293.65,450.15181513781
1295.78,504.9387496153972
1297.92,574.078605190477
1300.05,655.3366647879625
1302.18,729.0972200228402
1304.31,794.8397587339032
1306.44,888.1865810889126
1308.57,979.1408918802413
1310.69,1108.753464249085
1312.82,1224.5035891239609
1314.94,1343.6800246592088
1317.06,1424.8095647211107
1319.18,1466.9903692787811
1321.3,1439.55862812838
1323.41,1410.6123674744658
1325.53,1327.0114469875462
1327.64,1210.3775568616215
1329.75,1065.9037386812588
1331.87,888.0686681934317
1333.98,740.3509380793589
1336.08,606.6100073930193
1338.19,509.9433414758428
1340.3,442.4483137761731
1342.4,367.746012430639
1344.5,299.1240944645647
1346.6,262.53678284953
1348.7,218.36676832282546
1350.8,207.47282549262718
1352.9,208.85647656221727
1354.99,175.51913124467637
1357.09,123.22398858233646
1359.18,116.35317686147346
1361.27,111.7172744793811
1363.36,123.98387843049022
1365.45,150.10617279248845
1367.54,152.89435435529322
1369.62,152.58705825002107
1371.7,198.13706929225282
1373.79,238.97322380147398
1375.87,273.1908828491055
1377.95,277.9328816969928
1380.03,251.43714590257287
1382.1,217.13192647165033
1384.18,207.82627310641874
1386.25,201.23384078680965
1388.33,162.5919344470899
1390.4,101.75674412863418
1392.47,61.87000870414204
1394.54,33.835203411363636
1396.6,48.74610833922361
1398.67,59.55347215202937
1400.74,39.207869789703636
1402.8,10.850179215629396
1404.86,5.525867688312701
1406.92,-11.481670387240229
1408.98,1.1584160300603799
1411.04,45.110155179623234
1413.09,90.84694797023667
1415.15,147.3658588145231
1417.2,223.1400017014821
1419.25,287.02330722141414
1421.3,355.3457657813228
1423.35,425.4848612964977
1425.4,430.675100120199
1427.45,372.29373044953127
1429.49,295.5750331598854
1431.54,217.5150888298558
1433.58,175.06225905187307
1435.62,156.02195345712357
1437.66,147.15187293093254
1439.7,135.0191575900667
1441.74,142.2861061885992
1443.77,151.23399076187866
1445.81,166.71544269906371
1447.84,170.15445786327973
1449.87,177.16544933082446
1451.9,172.98182393989487
1453.93,207.74170169646254
1455.96,245.96411137061295
1457.98,314.8347099024161
1460.01,376.2057875220835
1462.03,471.2153204891765
1464.05,577.8584047841939
1466.07,774.7015469430198
1468.09,1012.4064787008983
1470.11,1321.968257350689
1472.13,1626.3343184820828
1474.14,1923.8806715779522
1476.16,2165.0785718011766
1478.17,2320.970715590999
1480.18,2331.266483878432
1482.19,2203.15147101594
1484.2,1945.2874898976129
1486.21,1588.6221008888501
1488.21,1242.0552836132022
1490.22,931.2489658820568
1492.22,661.6746478624395
1494.22,477.51816910193793
1496.22,355.5844755536316
1498.22,250.48810088673508
1500.22,177.17698113057145
1502.22,151.21817408045445
1504.21,98.75024537023455
1506.21,85.76898787818072
1508.2,53.984569704294245
1510.19,30.583444052379264
1512.18,-3.438312316455722
1514.17,11.43929175065773
1516.16,5.831595489943993
1518.14,36.211195757784026
1520.13,40.71747561514326
1522.11,30.537561483421314
1524.09,15.38251839554664
1526.07,-12.512645229124928
1528.05,-39.57944900038365
1530.03,-22.011173877509236
1532.01,-2.858096773981515
1533.98,-7.551300904255868
1535.96,5.144940131938938
1537.93,-1.3906505937138718
1539.9,1.2684043790877695
1541.87,1.6915708069452648
1543.84,1.067488891708308
1545.81,13.251588000852962
1547.78,25.861320435477865
1549.74,76.27615720988865
1551.7,152.30425049784344
1553.67,187.56338179308545
1555.63,195.1000053079681
1557.59,225.1987675625562
1559.55,231.90631268801417
1561.5,250.9836591585631
1563.46,298.8585765234427
1565.41,311.1493907102979
1567.37,294.42688456666156
1569.32,265.4523888776332
1571.27,216.32063528831895
1573.22,154.5073711310299
1575.17,132.5836409191552
1577.11,125.78721069816925
1579.06,133.21304001568888
1581.0,111.95613484391674
1582.95,99.63535288303706
1584.89,95.3457802931839
1586.83,107.42063223593095
1588.77,92.62172484435473
1590.7,95.09185195499867
1592.64,63.640495173176305
1594.58,39.88667679540731
1596.51,29.473241303286613
1598.44,42.23351780972553
