Raman Shift,Processed Intensity
331.095,97.7089134516491
333.909,-57.82170338677315
336.721,-74.83544738326054
339.531,-14.665642116747222
342.339,34.211551199777205
345.145,50.391429187944595
347.949,54.302660820298115
350.751,7.564440031819686
353.55,23.46268595051697
356.348,61.23576693753148
359.144,105.31260557963378
361.937,120.55078368170962
364.729,147.66512344973125
367.518,132.08484010230495
370.306,164.90593257745968
373.091,207.6530980489615
375.874,277.32736072834996
378.656,332.12036733362766
381.435,325.0810635103485
384.212,272.1633226336485
386.988,178.98786032456292
389.761,67.60414896634211
392.532,3.061856030300987
395.301,-31.160574741198616
398.068,-48.29877072317595
400.833,-27.778611129808723
403.596,-42.45431586830273
406.358,-37.370349468988934
409.117,-21.9995186253891
411.874,-9.862027180392033
414.629,-16.049297539092095
417.382,-17.319223294648964
420.133,-13.715232561228731
422.882,45.48131335921789
425.629,127.75110004309863
428.374,249.9082667944349
431.117,381.5289617131584
433.858,510.9989573478133
436.597,629.5136473006314
439.334,708.6018523564067
442.069,728.268674230435
444.802,696.8050159831014
447.533,656.1685310058915
450.262,642.7931434359925
452.989,654.2557114280335
455.714,699.9426904258153
458.438,749.8596535769229
461.159,752.2503359568623
463.878,700.2632978408078
466.595,656.6185879753589
469.31,561.6553592312325
472.024,516.6651985416806
474.735,516.3683139837585
477.444,528.3897218595862
480.152,519.306862349049
482.857,554.9353104005731
485.561,567.3287723362
488.262,602.3028919804665
490.962,654.1971520273783
493.659,687.5891563597761
496.355,696.3422457020174
499.048,704.8912085107704
501.74,742.527991865793
504.43,768.4493171226295
507.118,863.090009851016
509.804,973.1706154875665
512.488,1101.7926340360832
515.17,1226.4385166726124
517.85,1329.733567112412
520.528,1339.9697477388208
523.204,1376.1532952559305
525.878,1396.1951934841122
528.551,1418.958789012701
531.221,1462.73597828123
533.89,1513.4376803749642
536.556,1515.260500296627
539.221,1509.8772017619458
541.883,1523.5795609475595
544.544,1547.2307440484583
547.203,1578.6462562639886
549.86,1624.0225098314963
552.515,1659.6987253933212
555.168,1673.1093095542433
557.819,1724.7362324389624
560.469,1810.4423576305048
563.116,1921.4238197277068
565.761,2021.8766876169566
568.405,2128.711246791581
571.047,2231.171043575965
573.687,2337.9757388735093
576.324,2408.0353904860062
578.96,2465.021878290144
581.594,2454.9879484616663
584.227,2413.986257699494
586.857,2334.402703164171
589.485,2213.1945143210523
592.112,2060.1283447835017
594.737,1909.1612212989485
597.359,1726.916730830164
599.98,1553.2088266841924
602.599,1388.7561108317227
605.216,1247.2770686074382
607.831,1172.1091129341776
610.445,1163.9228666423087
613.056,1203.7697781224615
615.666,1310.6535465020397
618.274,1475.5777372979564
620.88,1695.4981599741068
623.484,1924.7038169274292
626.086,2154.15023342634
628.686,2315.8880256444127
631.284,2371.920040122616
633.881,2327.391826564897
636.476,2203.7344915861318
639.068,2032.9027905553262
641.659,1836.8036956292776
644.249,1639.9630590243428
646.836,1379.5256096215276
649.421,1113.6835210001677
652.005,838.2478366144519
654.587,610.3627521128087
657.166,451.07704051443625
659.745,359.8678583382157
662.321,270.3550279220958
664.895,219.82484355200222
667.468,151.23006806693184
670.038,119.47564374976218
672.607,97.46630797995931
675.174,78.15420888629387
677.739,84.25318766621695
680.303,71.66734661954024
682.864,55.34819653400018
685.424,50.24704216607097
687.982,6.981653436062061
690.538,-0.6875339714033544
693.092,22.85688228242134
695.645,1.755953789584055
698.195,1.4839210628911133
700.744,-2.818434951200743
703.291,-41.200917366475096
705.836,-45.38008531689047
708.38,-6.072569062668208
710.921,26.86208657527777
713.461,85.18333573367909
715.999,164.88868788239324
718.535,187.689907057028
721.069,192.3939729963272
723.602,183.18880418432764
726.133,124.88136184488167
728.662,70.37384917428108
731.189,28.80657724053799
733.714,7.9865451683808715
736.238,7.387448895687157
738.759,32.95921373943611
741.279,51.46133648546902
743.798,27.462894144921393
746.314,-27.89554252744074
748.829,-76.33047170536793
751.342,-102.22497554422353
753.853,-74.53347332932663
756.362,-26.30552224332814
758.869,-28.590580967641472
761.375,-51.58086852196084
763.879,-68.70660405616036
766.381,-58.25505616600458
768.882,-13.751496970759945
771.38,20.564605713958827
773.877,34.358634298575
776.372,24.819867341931513
778.866,26.328144521295144
781.357,35.453864935681395
783.847,50.71989017109581
786.335,77.50630450862946
788.821,122.00279418016817
791.306,209.01816948125315
793.789,293.2660773601233
796.27,399.74595210199595
798.749,474.74301363239147
801.227,553.9235039156938
803.702,631.2394471632301
806.176,708.3096005175435
808.649,708.3242142604768
811.119,684.616458687924
813.588,613.1386128893446
816.055,551.3668249558459
818.521,515.4915864739824
820.984,472.32249273383695
823.446,431.09776484186295
825.906,377.76996230991926
828.365,315.24407659667395
830.821,245.99657702997456
833.276,203.31350434825208
835.729,166.0047547181225
838.181,154.02312565675038
840.631,137.98812385897463
843.079,134.90024921490885
845.525,119.23623120849697
847.97,128.3775986494038
850.412,125.18210654776249
852.854,117.93611536988556
855.293,98.35458934158032
857.731,112.39061856100807
860.167,105.52113158771363
862.601,94.93736993643051
865.034,80.40202923754669
867.465,66.77306706424088
869.894,59.71798695009011
872.321,77.66621764476758
874.747,70.42815903641758
877.171,64.09994235973545
879.594,69.06342849928842
882.014,79.03382534045613
884.433,100.82159083465967
886.851,109.5229074931658
889.266,128.3292044999439
891.68,131.57477506261648
894.092,136.5939175729436
896.503,126.76855295777113
898.912,132.9091753633229
901.319,138.58818379187005
903.724,182.09226135744848
906.128,200.32713549397113
908.53,190.7699572109491
910.931,167.23120415874746
913.329,184.2832503605041
915.726,206.87941213452768
918.122,213.97299401669625
920.516,204.70776325427641
922.908,182.46556715690122
925.298,169.0568075903925
927.687,205.14901070868655
930.074,222.6477776381348
932.459,207.98249706656134
934.843,199.10634354661033
937.225,193.7819900848076
939.605,212.34351120681004
941.984,236.6963812607528
944.361,239.88890129202082
946.736,226.3026735370663
949.11,211.0335521077036
951.482,206.7011651039743
953.853,197.49653196511008
956.222,191.94396653478225
958.589,196.09155155491771
960.954,184.46351792143014
963.318,170.7269096542218
965.68,170.1677726767257
968.041,106.02448645257618
970.4,70.202048003242
972.757,39.79587973517437
975.113,8.234684886003379
977.467,3.4233029707356764
979.819,9.504612846998043
982.17,-4.378563384291283
984.519,16.630824825775562
986.866,37.43739026369758
989.212,69.89806985544237
991.556,111.58403109628443
993.899,150.01876895683472
996.24,167.91620278906566
998.579,153.37115418472104
1000.92,125.52601530991433
1003.25,97.71360771592435
1005.59,81.74289829284817
1007.92,76.0894771280141
1010.25,83.22889250725484
1012.58,90.6842716304659
1014.91,117.64536989859425
1017.24,119.92095353396599
1019.56,118.84356315299692
1021.88,121.98380114842439
1024.2,136.15033335725502
1026.52,162.24703358585248
1028.84,186.6539376588339
1031.16,181.65581651558705
1033.48,175.82313025916937
1035.79,197.10726791949492
1038.1,209.0310253117591
1040.41,229.97432099010257
1042.72,252.26943601079347
1045.03,232.58196798113522
1047.33,213.339404155985
1049.64,213.77874215332895
1051.94,204.9464916222314
1054.24,223.6034378155423
1056.54,221.74845278165185
1058.84,194.6661160800545
1061.13,172.49814502072513
1063.43,172.291015379687
1065.72,205.90072497171695
1068.01,222.89755722305472
1070.3,247.99465426792221
1072.59,258.5242090926499
1074.87,241.67556244171692
1077.16,240.066633057118
1079.44,272.1724907748835
1081.72,293.8491677168404
1084.0,378.2384218633151
1086.28,430.8629768163255
1088.56,477.1027139437183
1090.84,575.1470549994974
1093.11,658.4235352203445
1095.38,687.1216145173721
1097.65,664.668869620265
1099.92,561.8262338404593
1102.19,446.49752254861323
1104.46,398.3484824615948
1106.72,386.1401266437583
1108.98,392.1096885558404
1111.24,410.4468141990915
1113.5,459.5316590213206
1115.76,504.41108006102786
1118.02,583.989113805837
1120.28,651.8841207175824
1122.53,694.0002154716831
1124.78,666.0510781488988
1127.03,597.60757495089
1129.28,504.0977598681611
1131.53,440.2830668241845
1133.77,417.68688277191677
1136.02,399.6897874569863
1138.26,425.1962217523096
1140.5,456.87258456413474
1142.74,495.95675830951996
1144.98,567.5914439176149
1147.22,624.1574958309488
1149.45,601.321542721003
1151.69,580.4645605847327
1153.92,526.8723506029955
1156.15,408.25935033231826
1158.38,349.72101632523345
1160.61,288.4481115125204
1162.83,243.2028973473516
1165.06,193.41437356848292
1167.28,133.6544703443965
1169.5,70.97138327458197
1171.72,64.6038607717719
1173.94,61.028824777510636
1176.16,68.67565814439104
1178.37,75.54525392305186
1180.58,59.11477893489291
1182.8,24.48053258288155
1185.01,4.119853281409178
1187.22,-24.442213209088095
1189.42,-37.728150209417436
1191.63,-1.2127299332992152
1193.84,16.676985915665227
1196.04,3.1330698307137936
1198.24,-17.50946698702637
1200.44,-1.344106510387519
1202.64,27.44050646730193
1204.84,62.37008322341808
1207.03,69.30373366234244
1209.23,96.19586880086126
1211.42,99.09619849165392
1213.61,136.81639581345644
1215.8,176.12057098502373
1217.99,221.82050718385426
1220.18,233.0137535077797
1222.36,273.17886079368645
1224.55,245.88966505529515
1226.73,195.14861853998264
1228.91,148.95821602370552
1231.09,131.79718301068442
1233.27,125.81094964737804
1235.44,176.8592674935894
1237.62,233.56382629357586
1239.79,282.4987278900194
1241.96,324.42857918560594
1244.13,382.02277558080914
1246.3,474.4745463164236
1248.47,597.3580950541996
1250.64,778.7714547431906
1252.8,949.2412472480019
1254.96,1156.8179191675276
1257.13,1394.5043109870053
1259.29,1641.9699405157953
1261.44,1871.9795720394395
1263.6,2016.393214043153
1265.76,2004.1661169353056
1267.91,1926.1106755328115
1270.06,1707.8011886893796
1272.22,1487.7643332094767
1274.37,1323.2886853813316
1276.51,1143.9961472718592
1278.66,994.8895634977603
1280.81,886.1622427585407
1282.95,736.5789079409478
1285.09,631.4756938424503
1287.23,558.3315734661592
1289.37,510.62549860144645
1291.51,520.0268737379033
1293.65,523.8717442650118
1295.78,569.7342227670497
1297.92,649.6645819846658
1300.05,743.5225858716881
1302.18,849.7870111281254
1304.31,953.3175496855492
1306.44,1041.7357588115256
1308.57,1138.4726778807167
1310.69,1279.959302288833
1312.82,1427.1980097475398
1314.94,1539.572081817469
1317.06,1618.7980825840768
1319.18,1664.5925230477997
1321.3,1658.4337636094297
1323.41,1591.133440365029
1325.53,1491.2174152103607
1327.64,1341.9733926119852
1329.75,1164.1652030450327
1331.87,999.889943573824
1333.98,879.5303565277395
1336.08,766.2786367485078
1338.19,661.3269055041687
1340.3,552.8672082125572
1342.4,466.3296074028776
1344.5,375.3345613915685
1346.6,311.93101724388544
1348.7,280.21545611643205
1350.8,248.71284336160625
1352.9,238.99567387012576
1354.99,240.63635074690956
1357.09,205.58813541553081
1359.18,184.3280024845717
1361.27,166.99949461398592
1363.36,173.74605357193514
1365.45,182.7110179582969
1367.54,152.5614304519845
1369.62,119.8689879154008
1371.7,118.4433724512819
1373.79,150.61796341191257
1375.87,234.58316845596482
1377.95,287.19594508151977
1380.03,297.78932215909754
1382.1,265.934302417063
1384.18,209.86843159370437
1386.25,173.8767485416929
1388.33,158.5774972372942
1390.4,135.44593402768078
1392.47,101.43337297347534
1394.54,44.68146928654005
1396.6,-7.858735327474733
1398.67,-24.093481612301275
1400.74,-22.8815285125811
1402.8,9.394419694234784
1404.86,29.922950077046607
1406.92,46.36869884756288
1408.98,54.87234827930024
1411.04,87.66967436373943
1413.09,125.85345625405535
1415.15,210.2306238040792
1417.2,312.5603574882143
1419.25,409.6969502261163
1421.3,458.97076444546474
1423.35,520.045379620924
1425.4,521.9175969559606
1427.45,477.53649168370384
1429.49,406.6129415582818
1431.54,311.6196315366333
1433.58,211.9339156031765
1435.62,172.5521071659016
1437.66,165.3275789762804
1439.7,172.82791066821733
1441.74,206.19203629701155
1443.77,205.46358235449816
1445.81,223.2575391175301
1447.84,234.04597961549598
1449.87,242.77711193117375
1451.9,251.73242673967206
1453.93,271.5267019902369
1455.96,275.6318171118612
1457.98,327.9481862665225
1460.01,426.9952392214593
1462.03,542.9590450785986
1464.05,689.0732693373141
1466.07,916.9525119095667
1468.09,1174.1161213255357
1470.11,1484.8929613201833
1472.13,1866.1833202769826
1474.14,2247.554154004961
1476.16,2541.9057570871923
1478.17,2726.8051008959355
1480.18,2717.9620287506423
1482.19,2568.1340225045287
1484.2,2299.8881119883004
1486.21,1922.5532606443437
1488.21,1526.220370208541
1490.22,1143.2660949158928
1492.22,833.8766557061479
1494.22,627.7145115722763
1496.22,445.72788805180926
1498.22,312.8650676229322
1500.22,234.26487057677218
1502.22,162.20904065159402
1504.21,111.3603449527127
1506.21,81.76257863430578
1508.2,45.60247434313578
1510.19,56.82875451940913
1512.18,47.39023131668364
1514.17,20.854858902728438
1516.16,6.552595284186964
1518.14,-3.6626882497041606
1520.13,12.062988030884298
1522.11,12.869431263906336
1524.09,-12.24629111980903
1526.07,-20.620323273702752
1528.05,-20.922016622159163
1530.03,-11.534879184246165
1532.01,31.014853900999015
1533.98,32.10583813759422
1535.96,6.1644743478650526
1537.93,0.0934776334174785
1539.9,-12.347172711517942
1541.87,-1.54023566769024
1543.84,50.607836669983726
1545.81,72.19070488592524
1547.78,88.44499550125875
1549.74,98.60743994545987
1551.7,127.77201352800512
1553.67,145.46136012430384
1555.63,193.7696454330612
1557.59,238.31493404316484
1559.55,287.7629950719986
1561.5,343.1606316132795
1563.46,366.84043875632733
1565.41,352.37318065294653
1567.37,330.13921520336567
1569.32,289.18563302788675
1571.27,224.4167297718668
1573.22,201.54638317260287
1575.17,189.52662060241028
1577.11,182.02380565931935
1579.06,171.6567295196744
1581.0,170.90136895740147
1582.95,148.94802531565824
1584.89,135.84417776420196
1586.83,152.11352703294415
1588.77,125.42265819312343
1590.7,89.72389391467368
1592.64,102.874338199769
1594.58,111.13587249733109
1596.51,96.65134229372688
1598.44,38.920743703459266
