Raman Shift,Processed Intensity
331.095,64.45997911955783
333.909,64.34802950150879
336.721,45.0795288105337
339.531,28.987816823992034
342.339,69.26338906441651
345.145,114.69199848168591
347.949,147.08323332561758
350.751,185.0562378757395
353.55,160.2301950757992
356.348,145.93861869209195
359.144,152.84840737655486
361.937,149.81699396796012
364.729,164.22568526930172
367.518,209.64633515851165
370.306,245.31754150871257
373.091,305.85893834656144
375.874,365.0331070582224
378.656,363.9360590239103
381.435,343.6162896810056
384.212,220.93192782526876
386.988,114.64598015013598
389.761,55.99776626221683
392.532,33.17911560155653
395.301,12.38199293332309
398.068,-1.391971398602891
400.833,-41.61718931325777
403.596,-33.52982159406156
406.358,-6.365865585414667
409.117,12.876943027862126
411.874,-6.846584713590801
414.629,-13.105282829125372
417.382,-24.944011361852063
420.133,5.925866706298166
422.882,86.65029287316383
425.629,174.04203213917117
428.374,242.9616212085357
431.117,363.2697452618959
433.858,481.0177099670291
436.597,611.1141039657664
439.334,700.943842313276
442.069,775.8443527745039
444.802,789.6293811682231
447.533,785.2080348063382
450.262,773.108587837944
452.989,760.0499056409903
455.714,750.6081073092009
458.438,768.0737043294585
461.159,758.3563583068171
463.878,701.7467815466553
466.595,657.1072090654084
469.31,600.8713944108231
472.024,570.4255578631592
474.735,545.1083822554406
477.444,537.0205326032151
480.152,541.024651924804
482.857,589.983452299648
485.561,620.4739964028417
488.262,643.1210266587136
490.962,676.406484870593
493.659,705.907603279154
496.355,751.4873765731331
499.048,774.3421767571976
501.74,818.3827013531427
504.43,867.472064458228
507.118,936.8067449463701
509.804,1025.1070584788495
512.488,1159.2838199912098
515.17,1235.1050061801484
517.85,1332.7195608475613
520.528,1416.895485958874
523.204,1450.3055517489865
525.878,1492.1463401615529
528.551,1532.7096692406403
531.221,1549.1921127604883
533.89,1575.8854722362166
536.556,1616.7005822678757
539.221,1619.5482587416277
541.883,1649.1964375071343
544.544,1679.8892178168335
547.203,1696.9659057652425
549.86,1714.8610101091895
552.515,1764.9137618975842
555.168,1805.0347769583186
557.819,1854.7536707661293
560.469,1951.5047685485565
563.116,2053.4842439633394
565.761,2166.2215434900963
568.405,2307.2936679648515
571.047,2441.372787447913
573.687,2560.5119513298264
576.324,2621.2403222468574
578.96,2674.8012671393435
581.594,2681.8666387862254
584.227,2654.965343053869
586.857,2581.9119061448755
589.485,2475.5683751802353
592.112,2257.8443140195745
594.737,2068.4587038433056
597.359,1874.4637484966925
599.98,1687.6734417386674
602.599,1512.4730868716101
605.216,1347.2478639901556
607.831,1208.3828258014441
610.445,1192.4533696358385
613.056,1234.6538046957344
615.666,1384.9878240662802
618.274,1591.5065957737124
620.88,1859.4992347960715
623.484,2120.20708459773
626.086,2353.2999034258155
628.686,2505.8758601304426
631.284,2598.9853395087534
633.881,2579.059509553727
636.476,2494.0531744172717
639.068,2340.8257226114224
641.659,2112.5696942571503
644.249,1808.4298245236532
646.836,1482.6935156390564
649.421,1160.4574993773272
652.005,915.5802138308918
654.587,757.8246563737457
657.166,633.4774271007464
659.745,477.92015321929966
662.321,353.5818658219914
664.895,260.03423380208596
667.468,218.03917872139164
670.038,194.4060134876654
672.607,180.89620007963322
675.174,135.46144060534243
677.739,121.48176836051016
680.303,102.76554364877256
682.864,86.07325912574743
685.424,65.26039276213578
687.982,29.896451283013448
690.538,4.312585035688244
693.092,27.601583809947897
695.645,59.14168529704284
698.195,54.453717351116666
700.744,40.10586219652669
703.291,12.189855122570862
705.836,31.844807725498868
708.38,52.54294006606551
710.921,79.42293319780038
713.461,81.6709040991318
715.999,112.90138597369605
718.535,147.68116569350468
721.069,208.33883552781572
723.602,218.39339249105615
726.133,191.4114091193269
728.662,136.2927756754666
731.189,57.65168044936581
733.714,5.673780534464186
736.238,-1.1694845386132329
738.759,2.926760111859039
741.279,13.053240174640905
743.798,4.348471277971839
746.314,-49.90596821342251
748.829,-43.33302008861665
751.342,-34.7458239264779
753.853,-34.43340090424272
756.362,-32.39872386792058
758.869,-47.54917255838791
761.375,-66.36318348086343
763.879,-69.31880844749048
766.381,-46.65561233843391
768.882,-41.803245999522915
771.38,-35.47669469902212
773.877,-22.86677045245733
776.372,19.02653337690117
778.866,-0.08217397714224717
781.357,26.950576728525903
783.847,51.22089808586543
786.335,71.92037698484592
788.821,119.5741466165955
791.306,202.707535309612
793.789,267.3698655574276
796.27,411.08682447484125
798.749,551.3366437779641
801.227,663.9786607166402
803.702,756.2056885306765
806.176,773.4011488108454
808.649,763.1866800503522
811.119,749.8983176248826
813.588,690.7293404393176
816.055,625.6826413839594
818.521,553.0945263621998
820.984,470.7775609372329
823.446,391.8300836454355
825.906,322.2076240716551
828.365,280.0562256863909
830.821,278.1886258258396
833.276,292.7032928147919
835.729,274.1272726133343
838.181,221.5114164159363
840.631,172.76370348863475
843.079,129.64923067288328
845.525,128.31401141320248
847.97,139.95163192769587
850.412,139.99371690236512
852.854,104.1099189949523
855.293,69.0650511959243
857.731,50.19526680850868
860.167,27.693763238245992
862.601,27.658390544449958
865.034,34.18687903929731
867.465,4.519688763163231
869.894,6.944766538731528
872.321,17.035639793814426
874.747,57.69903466860933
877.171,46.365351990626095
879.594,27.41724023208053
882.014,14.09435894347962
884.433,49.73147552053706
886.851,82.9489429234809
889.266,157.50984549683972
891.68,156.7961924082815
894.092,156.1422539445939
896.503,137.88218352194826
898.912,128.2547825533079
901.319,104.11778912535965
903.724,111.94788096115644
906.128,114.45972600180767
908.53,138.3678901310318
910.931,169.72017347112842
913.329,165.08808953609332
915.726,164.80496343235518
918.122,195.48974434522506
920.516,192.4755799301065
922.908,216.28600975132758
925.298,218.77782538763768
927.687,188.09345434723264
930.074,205.37524874467636
932.459,202.09882159687731
934.843,197.8825735952496
937.225,185.77341035407017
939.605,163.7229358493023
941.984,169.58745538124367
944.361,212.36607377525524
946.736,194.86736501107043
949.11,186.89985137591339
951.482,155.41486357000304
953.853,136.5065436692007
956.222,168.22137189717614
958.589,175.8438838737684
960.954,156.2776259585862
963.318,136.56896773746303
965.68,115.28805736605727
968.041,113.719300722978
970.4,109.19469770576006
972.757,77.7605118601823
975.113,59.558225723864325
977.467,20.205496169870912
979.819,-20.394318821117395
982.17,-13.861681007682819
984.519,-14.340868925032282
986.866,-8.833310302424707
989.212,36.13575218607048
991.556,54.802976123191456
993.899,70.50025359772462
996.24,123.70233116803183
998.579,122.64585839701294
1000.92,101.09129352992704
1003.25,91.60861869601104
1005.59,69.29162653866842
1007.92,73.1864925599466
1010.25,84.38701413168519
1012.58,69.55842093523961
1014.91,75.2230901631051
1017.24,90.14149981578021
1019.56,110.78842009386653
1021.88,117.92434288540835
1024.2,95.88119696752074
1026.52,98.2290155889591
1028.84,124.68069929079775
1031.16,160.42535015566682
1033.48,184.2711298665149
1035.79,188.4071653844244
1038.1,190.8321212930873
1040.41,208.21134357186202
1042.72,249.49590813072155
1045.03,250.7321455356887
1047.33,234.4425943056949
1049.64,222.53076373325212
1051.94,217.70970622893446
1054.24,198.45439918965985
1056.54,211.7636506765084
1058.84,189.44581461634516
1061.13,206.16641076534916
1063.43,225.35288752968881
1065.72,245.67081335762487
1068.01,235.4048300363752
1070.3,232.7919869413672
1072.59,226.25983719024225
1074.87,257.75977189210016
1077.16,290.3860686824705
1079.44,306.0425593058908
1081.72,328.10929719849173
1084.0,351.34732030867417
1086.28,404.2796043939693
1088.56,478.47677822266905
1090.84,568.366648299274
1093.11,668.7580093042061
1095.38,733.888264057352
1097.65,704.518662529204
1099.92,636.50573132821
1102.19,536.7060365214415
1104.46,467.21427978860356
1106.72,454.0299660046044
1108.98,455.9621660602361
1111.24,458.81999396855826
1113.5,490.6983220665261
1115.76,538.3587343118593
1118.02,595.8485748180128
1120.28,670.5961868653458
1122.53,690.7918661980166
1124.78,702.7211952732418
1127.03,647.1459965581903
1129.28,594.9233810649616
1131.53,504.9581302189108
1133.77,429.29793486982044
1136.02,361.75244382688516
1138.26,390.7504076317932
1140.5,438.4825366175137
1142.74,550.8062637289968
1144.98,654.2933644867358
1147.22,689.753767426505
1149.45,684.902221681963
1151.69,629.644012186302
1153.92,526.0749605881765
1156.15,419.71952140573603
1158.38,332.3403067520808
1160.61,257.9857062988194
1162.83,208.37084057295397
1165.06,155.63946663472052
1167.28,129.03064566018475
1169.5,117.7358867143189
1171.72,97.18486195264677
1173.94,83.37874087050795
1176.16,76.31876264756102
1178.37,55.57766563514042
1180.58,42.966354938858785
1182.8,33.24818904882113
1185.01,21.377075993653307
1187.22,-10.073954314997536
1189.42,-19.96036821414509
1191.63,-14.185174992582233
1193.84,-6.698927031500716
1196.04,21.2621826866839
1198.24,66.22393585314376
1200.44,58.3312272150456
1202.64,63.3956812817878
1204.84,73.60993569791526
1207.03,58.1190674731688
1209.23,65.73487635540187
1211.42,86.03112058443776
1213.61,117.5816097887955
1215.8,196.15067883479333
1217.99,245.7884235804181
1220.18,267.11641281967286
1222.36,265.89911451263106
1224.55,213.9010363012103
1226.73,202.50577078684591
1228.91,196.1921836653105
1231.09,163.53441138535072
1233.27,173.53519214064545
1235.44,201.5306254332022
1237.62,206.14255068436432
1239.79,257.23092584582355
1241.96,346.51287267729504
1244.13,443.3245791670465
1246.3,569.7165352857737
1248.47,717.0725782642799
1250.64,817.9670331092511
1252.8,1000.9742340714151
1254.96,1272.3828080184594
1257.13,1603.8623387603302
1259.29,1899.4633647078695
1261.44,2133.4745193885974
1263.6,2241.2796719624976
1265.76,2230.7864963092243
1267.91,2102.712182972459
1270.06,1926.6786749137946
1272.22,1672.4507604094701
1274.37,1422.5551183280545
1276.51,1224.5660300748118
1278.66,1054.6291867741393
1280.81,929.0331154996488
1282.95,809.4948912185187
1285.09,703.9220392120378
1287.23,615.8411041628206
1289.37,610.5405049563069
1291.51,623.9276751965431
1293.65,676.4338227695839
1295.78,738.1567846449957
1297.92,780.0038816773545
1300.05,831.4062019791695
1302.18,940.4138366747648
1304.31,1038.6006394636788
1306.44,1158.6356528507395
1308.57,1309.4259629475637
1310.69,1448.5928876073876
1312.82,1582.6148312265614
1314.94,1687.9225204984264
1317.06,1809.6609068338594
1319.18,1879.8796402103872
1321.3,1893.6759239736803
1323.41,1839.2421315438146
1325.53,1674.0086612167634
1327.64,1485.2629814420893
1329.75,1304.292485624433
1331.87,1132.3844897821573
1333.98,1005.7786111583619
1336.08,860.8572420699957
1338.19,707.1455475664998
1340.3,597.835272612253
1342.4,494.022834983301
1344.5,427.2807514974279
1346.6,390.41954043470287
1348.7,359.91629062469246
1350.8,327.0575162479531
1352.9,279.74867830419817
1354.99,259.75227750903105
1357.09,265.64023290496743
1359.18,253.79387952007482
1361.27,255.7372993599497
1363.36,244.80398573302045
1365.45,197.47017424252454
1367.54,182.06912615943293
1369.62,178.5054117953723
1371.7,169.9215748279339
1373.79,173.65051091169698
1375.87,208.69165581306243
1377.95,235.3776497355634
1380.03,252.3743349785127
1382.1,276.06170597660184
1384.18,250.2005736252172
1386.25,217.93256293909326
1388.33,187.82772975858234
1390.4,164.78932031307022
1392.47,113.10138792723637
1394.54,85.3811716320829
1396.6,35.81718906167953
1398.67,18.64542458800588
1400.74,14.054088884365228
1402.8,49.37409639915586
1404.86,67.98383048179767
1406.92,75.97581474070421
1408.98,65.58528916316209
1411.04,98.47592909235254
1413.09,140.31127849008635
1415.15,216.37380224715798
1417.2,337.56489087465843
1419.25,453.2143890048019
1421.3,538.652028653667
1423.35,593.1121958172653
1425.4,580.1625065914232
1427.45,505.5133356726119
1429.49,445.63686866830267
1431.54,368.0528210739867
1433.58,324.0903477263878
1435.62,284.411857018579
1437.66,284.489206067484
1439.7,264.7465625480336
1441.74,246.36993319400176
1443.77,231.2119303940733
1445.81,241.17272926410533
1447.84,237.43816757653235
1449.87,251.1464171183461
1451.9,246.67370266812236
1453.93,295.1581162111463
1455.96,365.1662882973935
1457.98,480.7886308280879
1460.01,588.0679131755878
1462.03,713.9516478270862
1464.05,847.1492379330716
1466.07,1053.7986486653135
1468.09,1322.8473642891358
1470.11,1685.3381071404465
1472.13,2081.5516994599184
1474.14,2491.721353798588
1476.16,2820.1755348520255
1478.17,3037.7189165326126
1480.18,3064.2990533275224
1482.19,2906.4825754662324
1484.2,2580.359955516604
1486.21,2133.307417838105
1488.21,1667.5583718445578
1490.22,1288.9177024097469
1492.22,963.9998697968338
1494.22,746.7527238734833
1496.22,555.9336992793747
1498.22,403.7764867841845
1500.22,289.5148475027147
1502.22,205.85880806240175
1504.21,138.51847481844356
1506.21,106.53737187845672
1508.2,71.57816007950532
1510.19,82.63692739370185
1512.18,84.09081266714338
1514.17,67.8884865016962
1516.16,47.835870232026764
1518.14,17.691378712150254
1520.13,-6.262646421824684
1522.11,-8.267551108005136
1524.09,-20.993126072166206
1526.07,-3.2995075341557367
1528.05,1.524730768081099
1530.03,-17.761230910301038
1532.01,-15.779029047275799
1533.98,-1.5787351992214553
1535.96,-6.9245714146809405
1537.93,18.37175368432986
1539.9,-3.9299103849500625
1541.87,0.9780309037785173
1543.84,19.0461515747254
1545.81,35.51085829148451
1547.78,41.22771968898019
1549.74,56.24289094351593
1551.7,66.50739548567572
1553.67,130.44854957037137
1555.63,200.92233922783953
1557.59,272.2610353098796
1559.55,323.46366567894097
1561.5,351.71982073054505
1563.46,330.5525065347524
1565.41,311.3895694062048
1567.37,295.8017871408392
1569.32,259.31238882402545
1571.27,204.77800321013729
1573.22,175.72198805450557
1575.17,125.7153784929867
1577.11,95.85307351677193
1579.06,92.37287959005471
1581.0,83.6078876010315
1582.95,80.08170695575222
1584.89,100.50846157673914
1586.83,104.07850018730778
1588.77,94.5060113578013
1590.7,74.17187664705648
1592.64,29.59985707720216
1594.58,-7.59102991534769
1596.51,-7.73413352889861
1598.44,55.5038740211844
