Raman Shift,Processed Intensity
331.095,47.1620114285714
333.909,9.417661666666646
336.721,-13.83841761904764
339.531,-19.64307476190475
342.339,18.323803809523838
345.145,26.906386666666666
347.949,23.830458095238104
350.751,24.441416190476186
353.55,-4.200443809523808
356.348,3.5372495238095656
359.144,37.95423904761907
361.937,44.87479142857147
364.729,71.26676190476198
367.518,92.14630476190484
370.306,146.72098571428586
373.091,234.58030476190493
375.874,304.50491428571445
378.656,340.2762380952383
381.435,315.8670571428572
384.212,218.15566666666675
386.988,143.1168476190477
389.761,78.01228571428575
392.532,36.05688571428573
395.301,-9.676290476190497
398.068,-30.160657142857147
400.833,-19.74957904761903
403.596,3.0143876190476364
406.358,24.73273238095238
409.117,14.103388571428544
411.874,-19.650772380952386
414.629,-27.686640952380944
417.382,-14.82659333333332
420.133,17.91760952380956
422.882,46.82103333333337
425.629,68.87414761904769
428.374,121.49687619047629
431.117,181.63398095238108
433.858,237.56450952380968
436.597,268.94933333333347
439.334,246.64090476190484
442.069,201.11109523809532
444.802,166.64242857142867
447.533,149.3274285714287
450.262,174.1639523809525
452.989,206.86523809523823
455.714,233.33549523809538
458.438,215.62218571428576
461.159,182.67855238095245
463.878,121.41031428571434
466.595,79.67609523809529
469.31,48.85913333333337
472.024,50.24757142857147
474.735,58.558757142857196
477.444,70.65324761904766
480.152,83.43952380952386
482.857,94.77880952380957
485.561,94.67571428571436
488.262,107.84908571428579
490.962,144.16120952380962
493.659,150.093361904762
496.355,133.17478571428578
499.048,108.45876190476196
501.74,68.09414761904766
504.43,71.22978095238103
507.118,94.77656666666675
509.804,128.40711428571439
512.488,138.17560000000006
515.17,152.7073238095239
517.85,157.58038095238103
520.528,146.42036190476196
523.204,113.5192190476191
525.878,82.97853333333336
528.551,58.23359047619054
531.221,85.81451428571437
533.89,118.25150952380957
536.556,113.88399047619055
539.221,141.52764285714292
541.883,114.6649190476191
544.544,94.96860476190483
547.203,86.06361428571432
549.86,70.47942857142863
552.515,74.98341428571437
555.168,129.53325714285722
557.819,140.84849523809532
560.469,146.07711428571434
563.116,133.128380952381
565.761,123.24514285714295
568.405,126.71785714285724
571.047,143.16971428571438
573.687,143.9378095238096
576.324,140.26406666666674
578.96,122.77076190476197
581.594,96.50880476190481
584.227,83.19560952380957
586.857,76.73879523809529
589.485,98.75963809523819
592.112,125.73635238095245
594.737,124.81374095238101
597.359,84.51720285714286
599.98,62.27674857142861
602.599,56.09349238095244
605.216,94.20631047619055
607.831,117.32995523809528
610.445,115.36941619047622
613.056,57.94373000000002
615.666,38.48132190476194
618.274,19.69565571428575
620.88,52.44304571428578
623.484,93.67476333333342
626.086,133.38956571428582
628.686,162.2525047619049
631.284,192.92837142857152
633.881,186.03390476190486
636.476,188.23338095238103
639.068,168.8573333333334
641.659,138.04604761904767
644.249,145.12999047619056
646.836,121.43917142857148
649.421,108.54151904761909
652.005,87.38584761904765
654.587,65.77773333333337
657.166,37.760961904761935
659.745,55.807766666666694
662.321,35.723342857142875
664.895,47.50343333333336
667.468,46.191214285714324
670.038,58.829804761904796
672.607,51.27178571428574
675.174,58.036316190476214
677.739,35.92829000000002
680.303,32.085899047619066
682.864,43.12346523809528
685.424,44.464866190476215
687.982,42.438810000000025
690.538,52.08822523809526
693.092,43.2181104761905
695.645,32.062086190476215
698.195,48.472821904761915
700.744,16.207947619047612
703.291,-4.6414761904761885
705.836,-1.7938095238095153
708.38,7.794709523809548
710.921,26.453647619047654
713.461,58.70323809523813
715.999,71.7781190476191
718.535,82.10361428571434
721.069,96.2479952380953
723.602,91.63682380952385
726.133,94.36242857142862
728.662,76.08872285714288
731.189,56.57490085714287
733.714,26.675588238095244
736.238,12.578762190476201
738.759,5.75828461904765
741.279,31.116603142857183
743.798,77.4611282380953
746.314,95.17066752380957
748.829,72.57655000000003
751.342,60.10540476190478
753.853,40.27922523809526
756.362,28.810516190476235
758.869,57.17387761904765
761.375,63.843831428571455
763.879,52.91408095238099
766.381,62.811714285714324
768.882,73.91650000000006
771.38,78.89366190476196
773.877,86.74194761904766
776.372,100.31739047619054
778.866,91.71410952380957
781.357,85.78830476190481
783.847,106.11071142857149
786.335,85.06114000000004
788.821,85.25789904761912
791.306,91.46218380952385
793.789,81.86389904761913
796.27,103.1292257142858
798.749,114.6861828571429
801.227,102.34374285714293
803.702,136.95881904761916
806.176,152.57869523809535
808.649,177.2984666666668
811.119,207.403561904762
813.588,191.60838095238105
816.055,181.24597142857155
818.521,161.9832333333334
820.984,132.77262857142864
823.446,109.09050952380959
825.906,86.41320476190481
828.365,91.12234761904767
830.821,99.74169047619053
833.276,84.93846190476197
835.729,97.28456666666673
838.181,122.7327857142858
840.631,123.28393809523817
843.079,124.41496190476197
845.525,116.88846190476195
847.97,85.75277619047624
850.412,65.9134952380953
852.854,70.6094285714286
855.293,42.93699047619051
857.731,55.56371904761912
860.167,70.4908666666667
862.601,71.43378571428576
865.034,68.44129523809528
867.465,85.70500952380958
869.894,64.55960952380958
872.321,97.0065333333334
874.747,92.80897619047622
877.171,75.39692380952386
879.594,65.96235714285719
882.014,57.60196190476192
884.433,46.93654285714291
886.851,68.39640952380958
889.266,77.74493333333339
891.68,107.41262857142864
894.092,114.9725428571429
896.503,102.76006666666673
898.912,121.5862952380953
901.319,129.16762857142865
903.724,112.17258571428579
906.128,107.03215238095245
908.53,124.17650476190485
910.931,123.13189523809532
913.329,142.80482857142866
915.726,153.95982857142863
918.122,124.45611904761911
920.516,98.62931428571434
922.908,110.62452857142863
925.298,90.82520000000005
927.687,85.32891428571435
930.074,81.94778571428577
932.459,83.16022380952387
934.843,91.11158571428577
937.225,95.37605714285719
939.605,87.52762857142862
941.984,70.18799047619049
944.361,52.74073333333336
946.736,29.28364761904762
949.11,16.29580952380954
951.482,24.446609523809556
953.853,42.02460000000005
956.222,65.5088190476191
958.589,92.9020428571429
960.954,106.6358571428572
963.318,103.28446190476194
965.68,83.08882619047621
968.041,44.33749047619048
970.4,29.128545238095263
972.757,10.655142857142884
975.113,46.58688809523814
977.467,67.64055238095241
979.819,66.00923333333336
982.17,59.31448095238098
984.519,53.65400000000002
986.866,16.17297380952383
989.212,28.445200000000032
991.556,31.377454761904787
993.899,45.30528095238101
996.24,76.80191190476195
998.579,90.34531809523813
1000.92,65.17531333333336
1003.25,52.29346000000001
1005.59,18.653591428571442
1007.92,15.304807619047654
1010.25,46.057680000000055
1012.58,80.53234666666673
1014.91,81.15833809523814
1017.24,90.50787619047624
1019.56,63.96257142857145
1021.88,53.18963809523815
1024.2,68.0942428571429
1026.52,72.01004761904767
1028.84,93.17529523809534
1031.16,132.59003809523819
1033.48,116.96851904761911
1035.79,106.31076666666672
1038.1,122.28294285714293
1040.41,123.45622857142868
1042.72,145.87763809523818
1045.03,173.02278095238103
1047.33,171.17680952380962
1049.64,157.33914285714297
1051.94,166.12785714285724
1054.24,169.39909523809533
1056.54,177.1040000000001
1058.84,184.0035238095239
1061.13,177.9538095238096
1063.43,156.81061904761916
1065.72,140.2395714285715
1068.01,139.85800000000012
1070.3,159.80719047619058
1072.59,173.37119047619058
1074.87,172.50119047619057
1077.16,172.10009523809532
1079.44,206.78533333333348
1081.72,235.17438095238114
1084.0,273.1222380952383
1086.28,318.5791428571431
1088.56,403.0199047619051
1090.84,495.58538095238134
1093.11,631.654428571429
1095.38,686.7966190476194
1097.65,637.1522380952383
1099.92,519.9100476190479
1102.19,417.1629523809526
1104.46,342.05190476190506
1106.72,327.193904761905
1108.98,342.68157142857166
1111.24,358.2270476190479
1113.5,402.25690476190505
1115.76,469.1971904761908
1118.02,527.9983809523812
1120.28,548.9441428571431
1122.53,513.5080000000003
1124.78,439.30666666666684
1127.03,358.2425714285716
1129.28,283.5518571428573
1131.53,234.18457142857156
1133.77,192.32919047619058
1136.02,171.3167142857144
1138.26,165.04942857142868
1140.5,168.62047619047632
1142.74,184.7897142857144
1144.98,213.31680952380964
1147.22,207.05709523809534
1149.45,217.0558571428573
1151.69,215.21604761904774
1153.92,197.77352380952394
1156.15,187.3932380952382
1158.38,182.02540000000008
1160.61,153.7159476190477
1162.83,130.7960857142858
1165.06,117.64533809523816
1167.28,110.69025714285722
1169.5,98.50090000000007
1171.72,98.36111428571432
1173.94,75.6980047619048
1176.16,80.55788571428579
1178.37,77.27251904761911
1180.58,80.8881047619048
1182.8,77.35575904761909
1185.01,60.721932857142875
1187.22,44.366449523809564
1189.42,37.81226523809525
1191.63,35.391657142857184
1193.84,55.198953809523864
1196.04,73.13807904761907
1198.24,68.30363142857148
1200.44,75.7426504761905
1202.64,54.930871428571464
1204.84,44.48713333333337
1207.03,60.60156190476193
1209.23,26.416923809523805
1211.42,12.552342857142875
1213.61,16.484204761904774
1215.8,24.498614285714318
1217.99,26.405633333333366
1220.18,60.872571428571455
1222.36,38.61457619047622
1224.55,49.06096666666672
1226.73,71.59370952380957
1228.91,74.02346190476194
1231.09,79.77998095238102
1233.27,101.24531428571433
1235.44,96.80159523809529
1237.62,96.40223809523816
1239.79,99.62011904761911
1241.96,89.4088095238096
1244.13,106.48411904761915
1246.3,132.51438095238103
1248.47,146.88166666666675
1250.64,151.15909523809532
1252.8,163.0149523809525
1254.96,186.68861904761917
1257.13,204.27704761904775
1259.29,228.2109047619049
1261.44,234.34838095238106
1263.6,212.54861904761916
1265.76,207.19442857142872
1267.91,203.33500000000012
1270.06,189.73404761904774
1272.22,173.77485714285726
1274.37,190.0777142857144
1276.51,172.5018095238096
1278.66,167.7158095238096
1280.81,179.48333333333346
1282.95,166.56814285714296
1285.09,152.92517142857153
1287.23,154.31776666666673
1289.37,132.50996190476198
1291.51,114.64651904761912
1293.65,134.96740000000005
1295.78,120.4745857142858
1297.92,134.2182190476191
1300.05,117.15223333333338
1302.18,98.23117142857149
1304.31,104.21871904761913
1306.44,120.78378095238104
1308.57,147.07119523809536
1310.69,188.89245714285724
1312.82,197.15438095238105
1314.94,186.19214285714295
1317.06,197.8173809523811
1319.18,191.69880952380964
1321.3,228.21942857142875
1323.41,236.0000000000001
1325.53,241.8046666666668
1327.64,240.49204761904778
1329.75,278.8737619047621
1331.87,294.14223809523827
1333.98,326.6327142857145
1336.08,331.77571428571446
1338.19,327.71595238095256
1340.3,307.12142857142874
1342.4,272.8511428571429
1344.5,225.47866666666678
1346.6,181.91009523809535
1348.7,169.05238095238107
1350.8,164.81180952380961
1352.9,167.42771428571436
1354.99,149.0445238095239
1357.09,153.33076190476197
1359.18,139.04966666666678
1361.27,158.20285714285725
1363.36,178.60138095238105
1365.45,175.6749523809525
1367.54,186.18671428571443
1369.62,204.80471428571443
1371.7,216.62561904761924
1373.79,271.69790476190497
1375.87,314.1180952380954
1377.95,324.3635714285716
1380.03,317.8164761904763
1382.1,279.9535714285716
1384.18,232.4904761904763
1386.25,206.71328571428583
1388.33,197.19433333333347
1390.4,175.69661904761915
1392.47,161.41133333333343
1394.54,159.6244952380953
1396.6,148.47947619047628
1398.67,124.73842380952387
1400.74,131.1164190476191
1402.8,112.47065238095246
1404.86,115.89698095238103
1406.92,127.44311904761912
1408.98,116.25185238095243
1411.04,95.51372857142862
1413.09,87.56221904761908
1415.15,66.96820000000004
1417.2,63.6844571428572
1419.25,99.71015238095245
1421.3,121.8546095238096
1423.35,129.49830476190482
1425.4,129.49789047619052
1427.45,95.8050047619048
1429.49,80.75249047619054
1431.54,92.00578571428574
1433.58,83.42128095238098
1435.62,75.80746190476195
1437.66,66.87756190476192
1439.7,46.1064285714286
1441.74,39.96904285714287
1443.77,16.74964761904763
1445.81,6.113380952380975
1447.84,42.91571238095243
1449.87,47.2978385714286
1451.9,57.25793428571433
1453.93,75.74638047619052
1455.96,77.52322952380958
1457.98,80.72923380952388
1460.01,112.74328857142864
1462.03,110.7060571428572
1464.05,120.37707619047629
1466.07,145.32534285714297
1468.09,174.16797142857155
1470.11,194.37861904761917
1472.13,222.8598571428573
1474.14,222.22828571428582
1476.16,217.95733333333345
1478.17,212.56852380952392
1480.18,198.8690000000001
1482.19,187.76109523809535
1484.2,183.527961904762
1486.21,150.40547619047626
1488.21,125.43865714285722
1490.22,99.05389047619052
1492.22,68.8201047619048
1494.22,60.639908571428606
1496.22,50.03459190476192
1498.22,29.52590165714287
1500.22,12.96877418095238
1502.22,5.313496933333349
1504.21,15.605665152380976
1506.21,29.605178838095256
1508.2,43.64348799047621
1510.19,32.67114927619048
1512.18,17.781658095238107
1514.17,16.592420952380966
1516.16,21.720891428571445
1518.14,17.49890285714287
1520.13,23.163137142857146
1522.11,9.56941047619048
1524.09,8.33548761904763
1526.07,14.936413333333348
1528.05,15.847235238095255
1530.03,27.11457238095241
1532.01,35.975562857142876
1533.98,45.61980952380956
1535.96,45.23692857142859
1537.93,53.826194285714315
1539.9,39.19642761904764
1541.87,31.632721904761922
1543.84,25.42022000000003
1545.81,30.70126476190479
1547.78,35.237337142857186
1549.74,72.408760952381
1551.7,89.21536666666672
1553.67,107.84741904761911
1555.63,126.49490952380958
1557.59,111.25299523809528
1559.55,102.74046666666673
1561.5,101.81423333333339
1563.46,94.80767619047626
1565.41,111.67326190476197
1567.37,134.41069523809531
1569.32,123.54407142857151
1571.27,123.16853333333341
1573.22,107.33182380952387
1575.17,108.55816190476199
1577.11,113.41903333333337
1579.06,115.39072380952386
1581.0,118.33076190476199
1582.95,130.00114285714292
1584.89,134.3069333333334
1586.83,133.24890476190478
1588.77,111.63679047619053
1590.7,93.80415238095244
1592.64,97.94227619047626
1594.58,119.93233333333336
1596.51,138.87019047619043
1598.44,141.5897142857141
