Raman Shift,Processed Intensity
331.095,166.1643390476181
333.909,5.87349999999924
336.721,-20.820346428571952
339.531,24.71304476190482
342.339,58.41322904761906
345.145,40.053378095238095
347.949,38.45512238095239
350.751,6.821666666666669
353.55,1.0235506666666807
356.348,8.64630566666666
359.144,-11.533234380952392
361.937,-21.404145190476164
364.729,6.383583714285749
367.518,53.51408566666677
370.306,145.19591400000013
373.091,257.54361428571445
375.874,341.1966952380954
378.656,345.79504761904775
381.435,282.742161904762
384.212,176.58483333333336
386.988,74.20407142857144
389.761,3.387076190476198
392.532,-19.982628571428577
395.301,-30.306599999999996
398.068,-12.460890476190482
400.833,-11.511366666666675
403.596,-12.236887619047636
406.358,-17.17711761904763
409.117,-24.346855238095237
411.874,3.002147142857164
414.629,21.80960142857144
417.382,21.34960666666668
420.133,20.373414761904783
422.882,26.10943190476194
425.629,41.64409285714293
428.374,123.7791585714287
431.117,191.74548190476204
433.858,239.1081190476192
436.597,250.76623809523815
439.334,218.8104952380953
442.069,147.2844714285715
444.802,115.51818095238102
447.533,130.17552857142869
450.262,154.25403809523823
452.989,192.99023333333346
455.714,207.24030476190487
458.438,180.4322857142858
461.159,153.0424476190477
463.878,118.26192380952385
466.595,85.37700000000007
469.31,77.67486666666672
472.024,68.63331428571435
474.735,80.8733333333334
477.444,129.06430666666674
480.152,105.68518761904767
482.857,100.4532133333334
485.561,106.8955552380953
488.262,90.06362285714292
490.962,79.86594952380958
493.659,77.83060666666667
496.355,45.81894761904766
499.048,47.78798571428576
501.74,69.21834761904766
504.43,81.829080952381
507.118,98.67300476190482
509.804,108.23130476190484
512.488,134.366161904762
515.17,154.3212571428572
517.85,143.91109523809533
520.528,128.9501428571429
523.204,114.96809047619055
525.878,101.49402380952387
528.551,82.81899523809528
531.221,78.51975714285719
533.89,68.83970000000004
536.556,55.87917619047623
539.221,59.59596190476195
541.883,76.09040952380958
544.544,79.3675333333334
547.203,87.19400952380957
549.86,83.19391904761908
552.515,55.80051904761909
555.168,73.68524285714295
557.819,110.47135714285722
560.469,154.68717619047626
563.116,155.33679523809528
565.761,122.32898095238099
568.405,67.33424761904766
571.047,74.54692380952389
573.687,94.16071428571438
576.324,140.17909523809533
578.96,161.36687619047626
581.594,164.15578095238104
584.227,137.73882857142866
586.857,125.78516190476196
589.485,106.05896190476194
592.112,84.22889047619053
594.737,83.20150476190483
597.359,61.45483333333337
599.98,79.99014285714293
602.599,99.23714285714293
605.216,116.9587114285715
607.831,103.82228047619051
610.445,82.20929904761907
613.056,26.548638571428608
615.666,26.602346666666705
618.274,52.989142380952444
620.88,84.66121142857148
623.484,104.38003809523816
626.086,102.76381904761911
628.686,123.71623809523818
631.284,130.75997142857153
633.881,164.65554285714296
636.476,186.02080952380965
639.068,183.85395238095248
641.659,150.29571428571438
644.249,143.9156095238096
646.836,108.3303047619048
649.421,82.4898790476191
652.005,50.91575047619049
654.587,36.605077142857176
657.166,19.888416190476228
659.745,70.76317238095245
662.321,74.03566476190478
664.895,81.7981104761905
667.468,56.47594333333335
670.038,35.73262952380953
672.607,-1.673167142857114
675.174,34.11236666666669
677.739,15.704901904761922
680.303,29.57723904761908
682.864,59.24974142857147
685.424,82.52841714285721
687.982,82.26691000000004
690.538,70.27115285714285
693.092,51.20411238095241
695.645,37.91935571428576
698.195,52.79414476190481
700.744,56.58664333333335
703.291,43.5788161904762
705.836,31.67158190476195
708.38,52.81339809523813
710.921,56.524284761904795
713.461,59.27650857142859
715.999,50.49471428571431
718.535,29.93685714285718
721.069,69.74194761904769
723.602,105.95349047619055
726.133,110.99607619047626
728.662,117.62774761904767
731.189,109.17773904761908
733.714,62.68970809523814
736.238,57.20745904761908
738.759,43.29837761904764
741.279,42.00610666666674
743.798,95.13643666666675
746.314,137.0189295238096
748.829,136.3641095238096
751.342,121.54925714285717
753.853,74.6183523809524
756.362,49.424819047619096
758.869,44.39377619047623
761.375,64.61713809523815
763.879,82.71059047619053
766.381,111.86158095238102
768.882,115.44800000000006
771.38,133.9906571428572
773.877,109.82012857142863
776.372,74.7908285714286
778.866,30.233514285714303
781.357,26.098276190476227
783.847,37.001976190476256
786.335,73.22816190476196
788.821,95.82275714285718
791.306,103.68863809523816
793.789,107.82434285714295
796.27,124.56194285714295
798.749,146.94744761904772
801.227,167.36095238095248
803.702,158.56342857142863
806.176,158.6970000000001
808.649,151.57047619047626
811.119,149.56466666666677
813.588,152.0597142857144
816.055,164.34142857142865
818.521,150.9810476190477
820.984,142.93109523809534
823.446,124.76285714285723
825.906,128.19147619047627
828.365,119.83609523809531
830.821,116.22128571428578
833.276,122.91935238095246
835.729,123.97863809523815
838.181,103.9238952380953
840.631,102.89935238095244
843.079,95.14387619047625
845.525,80.27798571428578
847.97,75.35083809523815
850.412,85.3637190476191
852.854,82.27090476190482
855.293,85.12166190476196
857.731,124.4418752380953
860.167,114.32863476190481
862.601,87.54587904761908
865.034,80.09557000000002
867.465,53.26582190476194
869.894,45.63039666666673
872.321,81.62041809523815
874.747,97.0476952380953
877.171,87.05770952380958
879.594,101.7960571428572
882.014,67.83682857142858
884.433,70.2307714285715
886.851,87.0281333333334
889.266,118.51740952380962
891.68,127.51129047619055
894.092,167.58423809523816
896.503,142.9774476190477
898.912,131.0273714285715
901.319,115.11812380952387
903.724,113.01499047619056
906.128,129.245161904762
908.53,160.43087619047628
910.931,166.28947619047625
913.329,146.062380952381
915.726,135.89595523809533
918.122,104.60333380952383
920.516,75.37835333333337
922.908,57.938666190476226
925.298,62.00182952380957
927.687,69.3808814285715
930.074,96.41260761904766
932.459,95.1003428571429
934.843,82.78087142857147
937.225,70.21947619047623
939.605,58.752971428571456
941.984,51.8607904761905
944.361,29.97488095238098
946.736,44.05070000000005
949.11,72.0917190476191
951.482,79.10112380952386
953.853,73.32019523809528
956.222,71.70440000000004
958.589,65.06630000000007
960.954,61.8849571428572
963.318,97.92522380952389
965.68,104.09482380952386
968.041,110.11085333333341
970.4,97.30932238095241
972.757,73.1214542857143
975.113,31.64503952380955
977.467,15.596640000000003
979.819,3.7406376190476336
982.17,9.793570952380957
984.519,-1.575779047619036
986.866,19.539591904761945
989.212,52.474797142857184
991.556,81.51735095238101
993.899,86.14516761904764
996.24,82.35984761904764
998.579,65.35332952380956
1000.92,56.84140095238098
1003.25,38.20606857142859
1005.59,36.87694190476192
1007.92,23.04546380952383
1010.25,25.99814380952384
1012.58,44.35462952380955
1014.91,41.59162380952382
1017.24,35.66189047619051
1019.56,37.42269047619051
1021.88,52.92195238095243
1024.2,79.68314761904769
1026.52,91.13483333333338
1028.84,113.84795238095245
1031.16,135.6319333333334
1033.48,148.81951428571438
1035.79,169.07687619047633
1038.1,198.49825714285726
1040.41,187.89214285714297
1042.72,190.4480000000001
1045.03,186.6412857142858
1047.33,162.1850000000001
1049.64,144.74466666666677
1051.94,142.74752380952387
1054.24,123.66809523809532
1056.54,115.6005238095239
1058.84,126.78095238095247
1061.13,142.683761904762
1063.43,174.30742857142866
1065.72,173.4120000000001
1068.01,173.13838095238106
1070.3,180.10390476190486
1072.59,190.7824285714287
1074.87,204.26719047619062
1077.16,220.0321904761906
1079.44,219.07514285714302
1081.72,249.34633333333352
1084.0,301.51028571428594
1086.28,382.1360000000003
1088.56,463.2687619047622
1090.84,578.0485238095242
1093.11,646.8063809523812
1095.38,649.1117142857146
1097.65,596.676047619048
1099.92,512.5921428571431
1102.19,404.5240000000002
1104.46,360.1353809523812
1106.72,349.32890476190505
1108.98,384.05423809523836
1111.24,427.6897142857145
1113.5,449.37571428571454
1115.76,454.44285714285735
1118.02,451.6026190476193
1120.28,466.0430476190479
1122.53,483.28519047619073
1124.78,448.6597619047621
1127.03,384.68814285714296
1129.28,317.0820952380954
1131.53,246.12476190476207
1133.77,206.09928571428583
1136.02,183.3840000000001
1138.26,163.2620000000001
1140.5,163.11209523809532
1142.74,188.74104761904775
1144.98,203.5753809523811
1147.22,238.13657142857159
1149.45,247.2319047619049
1151.69,238.2398571428573
1153.92,230.87261904761917
1156.15,213.22304761904772
1158.38,194.62285714285724
1160.61,199.87931428571437
1162.83,170.84774285714295
1165.06,152.14510476190483
1167.28,136.48392380952387
1169.5,108.43375238095246
1171.72,91.99327142857149
1173.94,111.44621904761912
1176.16,112.7436714285715
1178.37,106.36048571428577
1180.58,106.34302380952386
1182.8,101.73728571428576
1185.01,76.30423809523815
1187.22,76.85217619047624
1189.42,86.66610476190479
1191.63,77.31641428571433
1193.84,64.27876666666668
1196.04,43.02852857142857
1198.24,27.04142857142859
1200.44,20.507542857142887
1202.64,14.569652380952391
1204.84,31.703576190476213
1207.03,40.43311333333336
1209.23,38.18688476190479
1211.42,46.012683809523836
1213.61,51.57738190476193
1215.8,45.4529171428572
1217.99,79.92540380952389
1220.18,107.85245142857148
1222.36,109.75845714285722
1224.55,120.69176190476198
1226.73,110.03414285714294
1228.91,103.83442857142863
1231.09,110.42658095238102
1233.27,102.66891428571435
1235.44,96.1340190476191
1237.62,97.77532380952387
1239.79,102.88006666666674
1241.96,126.97343809523818
1244.13,136.58010476190483
1246.3,152.7497142857144
1248.47,160.3405714285715
1250.64,144.25928571428582
1252.8,161.84100000000012
1254.96,173.46833333333342
1257.13,179.52352380952397
1259.29,204.7232380952382
1261.44,230.59280952380965
1263.6,224.65819047619058
1265.76,235.30214285714297
1267.91,203.76485714285727
1270.06,184.7624761904763
1272.22,164.2022380952382
1274.37,159.89571428571438
1276.51,165.13066666666677
1278.66,193.1951904761906
1280.81,187.75795238095247
1282.95,181.86885714285725
1285.09,173.57790476190485
1287.23,173.3159523809525
1289.37,169.99009523809534
1291.51,179.79333333333344
1293.65,163.965761904762
1295.78,144.22423809523818
1297.92,134.95190476190484
1300.05,116.96088095238099
1302.18,97.4918095238096
1304.31,104.59464285714293
1306.44,117.98595238095248
1308.57,129.954261904762
1310.69,156.45404761904774
1312.82,166.4402857142858
1314.94,176.29633333333342
1317.06,195.5957142857144
1319.18,203.6743333333335
1321.3,234.29671428571447
1323.41,266.7985714285716
1325.53,288.8963809523811
1327.64,313.4499523809526
1329.75,325.080142857143
1331.87,339.6946190476193
1333.98,354.34300000000013
1336.08,361.9322380952383
1338.19,318.797761904762
1340.3,283.1327142857144
1342.4,246.93885714285727
1344.5,225.55200000000013
1346.6,195.16476190476203
1348.7,196.82666666666677
1350.8,173.63476190476197
1352.9,142.73414285714293
1354.99,159.65042857142868
1357.09,154.43314285714297
1359.18,164.17961904761916
1361.27,171.31995238095246
1363.36,191.2844761904763
1365.45,176.02714285714296
1367.54,189.31161904761916
1369.62,215.8060476190478
1371.7,247.17857142857156
1373.79,248.43071428571443
1375.87,264.0402857142859
1377.95,278.15114285714304
1380.03,274.0028571428573
1382.1,289.69147619047635
1384.18,290.122761904762
1386.25,248.2024761904763
1388.33,210.31257142857154
1390.4,182.31138095238106
1392.47,151.7710476190477
1394.54,130.1205714285715
1396.6,128.59838095238104
1398.67,119.7289714285715
1400.74,108.27456666666673
1402.8,118.04518095238103
1404.86,104.3267428571429
1406.92,82.02389523809529
1408.98,82.8510190476191
1411.04,97.47485714285722
1413.09,90.89495714285721
1415.15,111.72980000000005
1417.2,97.45541428571433
1419.25,77.69028571428576
1421.3,80.00544285714291
1423.35,86.73345714285718
1425.4,72.68297142857146
1427.45,61.32918571428574
1429.49,53.29035238095241
1431.54,66.75587142857148
1433.58,75.01030476190479
1435.62,75.62395238095242
1437.66,70.07170952380955
1439.7,50.82850952380956
1441.74,56.51182857142864
1443.77,87.64426190476195
1445.81,94.41476190476195
1447.84,92.05992380952382
1449.87,73.76859523809526
1451.9,58.20575238095243
1453.93,65.79822380952386
1455.96,88.30613333333339
1457.98,100.77544285714292
1460.01,127.34729523809531
1462.03,135.49604761904772
1464.05,150.64823809523818
1466.07,138.18314285714294
1468.09,156.24133333333344
1470.11,165.01157142857156
1472.13,217.49219047619061
1474.14,232.25257142857157
1476.16,249.90976190476204
1478.17,249.89028571428585
1480.18,233.19195238095247
1482.19,204.574761904762
1484.2,190.941780952381
1486.21,141.529161904762
1488.21,119.9539238095239
1490.22,115.4046190476191
1492.22,81.30783333333338
1494.22,66.75691428571432
1496.22,58.60718571428575
1498.22,51.952045714285745
1500.22,39.69421952380954
1502.22,36.260686666666686
1504.21,27.554399523809536
1506.21,21.716496190476217
1508.2,29.31674809523812
1510.19,40.11539333333335
1512.18,48.49181904761909
1514.17,59.53970095238098
1516.16,50.30514333333334
1518.14,24.548570476190484
1520.13,11.935232857142863
1522.11,-2.964853333333318
1524.09,14.989866190476212
1526.07,16.559957619047626
1528.05,34.50607428571432
1530.03,33.68413571428574
1532.01,57.71179238095243
1533.98,59.58803952380955
1535.96,76.74034190476195
1537.93,74.97705238095243
1539.9,77.7256666666667
1541.87,62.556504761904804
1543.84,65.32553809523813
1545.81,62.22229047619053
1547.78,83.00777142857149
1549.74,98.25237142857148
1551.7,105.8123857142858
1553.67,127.49626666666674
1555.63,138.35080000000008
1557.59,142.85140000000007
1559.55,138.8542571428572
1561.5,133.59676190476196
1563.46,126.31633333333342
1565.41,142.34509523809533
1567.37,161.92061904761914
1569.32,166.85185714285723
1571.27,158.6142857142858
1573.22,166.06423809523818
1575.17,148.01090476190484
1577.11,145.1199523809525
1579.06,150.81971428571435
1581.0,149.20462857142866
1582.95,136.03620476190486
1584.89,128.5993190476191
1586.83,97.51286666666671
1588.77,88.44284285714294
1590.7,106.9604857142858
1592.64,139.35084285714294
1594.58,169.58978333333357
1596.51,176.70074047619073
1598.44,142.68333095238106
