Raman Shift,Processed Intensity
331.095,109.28672904761882
333.909,-14.526109285714455
336.721,-38.426694285714404
339.531,-3.7854109523809143
342.339,37.83671809523813
345.145,51.069364761904765
347.949,41.82846761904764
350.751,35.36392095238097
353.55,22.354715238095253
356.348,33.528107619047645
359.144,29.469164761904757
361.937,4.668380952380971
364.729,8.045557142857168
367.518,42.330752380952454
370.306,86.4929142857144
373.091,193.93040000000016
375.874,277.0899904761907
378.656,316.56199047619066
381.435,293.7949523809525
384.212,226.04780476190484
386.988,118.05655714285717
389.761,34.843909523809536
392.532,-1.6617438095237915
395.301,-7.86451285714284
398.068,3.451783809523822
400.833,22.2662461904762
403.596,11.98755047619046
406.358,-3.545989047619054
409.117,-26.82826285714288
411.874,-19.161561904761896
414.629,-17.18045238095238
417.382,0.6721142857142937
420.133,1.8591095238095408
422.882,40.84439523809529
425.629,54.85519047619054
428.374,124.78607619047631
431.117,170.10426666666677
433.858,205.80120952380963
436.597,209.9175238095239
439.334,201.54195238095247
442.069,169.28795238095253
444.802,150.1982380952382
447.533,157.41195238095253
450.262,173.44909523809537
452.989,212.78361904761917
455.714,221.6995238095239
458.438,232.0043714285715
461.159,194.88812857142864
463.878,153.11258571428576
466.595,103.3921952380953
469.31,76.44214761904766
472.024,58.07370952380958
474.735,83.43083333333338
477.444,99.51625714285721
480.152,107.28486666666672
482.857,109.88242857142862
485.561,108.12182857142864
488.262,96.43570000000005
490.962,99.20857142857147
493.659,91.73092857142862
496.355,93.29299047619054
499.048,106.37569047619054
501.74,105.31724761904766
504.43,92.50400952380959
507.118,90.36990476190483
509.804,97.68246666666676
512.488,119.06663809523819
515.17,165.2901142857144
517.85,170.54919047619057
520.528,179.9928761904763
523.204,164.34175428571436
525.878,107.60199476190479
528.551,75.82739428571435
531.221,66.69097190476194
533.89,68.24662285714294
536.556,77.9291947619048
539.221,75.79266380952384
541.883,54.03360000000006
544.544,72.9437333333334
547.203,96.00561904761912
549.86,105.65397142857148
552.515,114.22830476190484
555.168,120.11525714285722
557.819,128.93939047619054
560.469,140.9443333333334
563.116,131.8976666666667
565.761,127.94758095238105
568.405,121.48047619047625
571.047,117.97736190476198
573.687,119.06204761904769
576.324,124.119961904762
578.96,123.63170476190486
581.594,137.315780952381
584.227,100.60494761904765
586.857,87.83618095238101
589.485,91.0131952380953
592.112,85.94873809523816
594.737,98.69336666666672
597.359,82.53583809523812
599.98,70.14521904761911
602.599,79.5238190476191
605.216,88.62630952380957
607.831,91.07350952380958
610.445,81.34324761904765
613.056,67.05574285714292
615.666,78.45011428571433
618.274,70.6225666666667
620.88,77.33542380952387
623.484,93.44629047619054
626.086,97.3362095238096
628.686,131.1473476190477
631.284,145.9748857142858
633.881,157.96057142857154
636.476,170.15104761904772
639.068,164.45009523809534
641.659,161.2372000000001
644.249,156.5578095238096
646.836,121.31499047619054
649.421,108.12525238095243
652.005,81.22442857142862
654.587,58.13372380952384
657.166,40.13600476190478
659.745,36.70424761904764
662.321,28.21610952380955
664.895,23.953847619047643
667.468,44.9616047619048
670.038,63.61635142857146
672.607,48.7712466666667
675.174,61.32696952380955
677.739,49.993534285714304
680.303,35.147588571428614
682.864,50.594360952380995
685.424,58.32912285714289
687.982,55.49012380952385
690.538,62.45358095238097
693.092,38.50041904761907
695.645,44.102090476190526
698.195,65.63465714285718
700.744,69.95040000000003
703.291,50.71111904761904
705.836,28.626204761904766
708.38,16.83368571428575
710.921,28.42406190476194
713.461,43.58303809523812
715.999,61.16311904761908
718.535,57.25488571428575
721.069,62.758561904761955
723.602,67.3839285714286
726.133,81.46003809523815
728.662,64.31577619047621
731.189,45.61362380952384
733.714,32.82560952380954
736.238,20.328642857142874
738.759,21.6902571428572
741.279,73.47808095238102
743.798,101.78359047619054
746.314,100.79369523809528
748.829,104.83823809523813
751.342,58.29480000000002
753.853,52.54120000000006
756.362,65.76462380952384
758.869,70.67646666666671
761.375,64.22624285714289
763.879,85.26843809523814
766.381,86.51491904761912
768.882,123.86794285714294
771.38,139.22987142857147
773.877,123.12240000000004
776.372,87.30540000000003
778.866,56.53899523809528
781.357,65.63083809523816
783.847,76.05554761904766
786.335,74.19256190476196
788.821,83.27852857142862
791.306,100.31231904761911
793.789,119.81631428571438
796.27,135.69427142857148
798.749,129.75488571428576
801.227,119.61640000000008
803.702,122.5637238095239
806.176,138.21540952380963
808.649,149.9518857142858
811.119,160.5344761904763
813.588,157.05833333333342
816.055,157.61838095238107
818.521,184.16690476190487
820.984,179.5610714285715
823.446,160.75357142857155
825.906,157.64912857142863
828.365,119.67678571428576
830.821,88.97952857142863
833.276,89.60555238095243
835.729,80.36492380952387
838.181,75.87739047619053
840.631,83.76285238095242
843.079,82.68858571428576
845.525,86.32220952380959
847.97,93.42659047619054
850.412,95.24088095238099
852.854,78.71854761904765
855.293,74.86089523809528
857.731,83.47872857142863
860.167,77.85892380952386
862.601,83.66951428571431
865.034,75.15008095238097
867.465,52.92125714285717
869.894,68.4608333333334
872.321,73.62777619047623
874.747,60.042747619047674
877.171,70.61213333333339
879.594,87.43316666666672
882.014,85.3173333333334
884.433,115.88528095238101
886.851,109.56781428571432
889.266,119.65258095238104
891.68,151.0940523809525
894.092,186.08483809523818
896.503,177.3893333333334
898.912,162.34271428571435
901.319,152.61395238095247
903.724,142.25290476190486
906.128,140.02385714285725
908.53,146.4052380952382
910.931,141.59019047619057
913.329,128.29538095238104
915.726,146.99915238095247
918.122,130.0851666666667
920.516,102.36539047619054
922.908,94.84237619047626
925.298,110.70917142857151
927.687,123.7781095238096
930.074,138.8131428571429
932.459,135.29346666666672
934.843,120.8880952380953
937.225,114.55218571428578
939.605,109.95511428571436
941.984,102.4329190476191
944.361,104.5596095238096
946.736,111.19510476190484
949.11,103.48473809523816
951.482,111.43119523809531
953.853,115.75145238095246
956.222,123.63878095238104
958.589,103.57212380952386
960.954,79.5064523809524
963.318,59.20644285714291
965.68,62.864947619047676
968.041,78.43708095238101
970.4,95.8303285714286
972.757,63.38057142857145
975.113,35.995152380952405
977.467,21.914738095238114
979.819,33.66563809523814
982.17,54.2977666666667
984.519,63.43250000000003
986.866,68.54827142857145
989.212,61.64725714285717
991.556,59.969800000000056
993.899,77.23215238095241
996.24,85.10274285714291
998.579,93.63107523809529
1000.92,86.86649485714288
1003.25,52.09636509523811
1005.59,45.79852780952383
1007.92,27.069478238095257
1010.25,21.672464000000044
1012.58,46.751561285714324
1014.91,67.92679342857149
1017.24,101.34187619047627
1019.56,125.52162857142862
1021.88,105.80005238095244
1024.2,93.55886190476195
1026.52,80.75081904761912
1028.84,94.94757619047627
1031.16,126.38738095238101
1033.48,133.07055238095245
1035.79,121.14004761904769
1038.1,127.83390476190485
1040.41,144.7235238095239
1042.72,175.28466666666677
1045.03,205.27897142857154
1047.33,199.99181904761912
1049.64,154.4704095238096
1051.94,140.52358095238102
1054.24,134.24619047619058
1056.54,134.16090476190487
1058.84,146.9812000000001
1061.13,160.7538476190477
1063.43,137.71614285714296
1065.72,145.34323809523818
1068.01,157.34866666666676
1070.3,168.0642380952382
1072.59,178.86961904761918
1074.87,194.7157142857144
1077.16,195.12547619047632
1079.44,185.2876190476192
1081.72,215.29647619047637
1084.0,271.4357619047621
1086.28,339.60900000000026
1088.56,420.81428571428603
1090.84,539.3838095238099
1093.11,609.02980952381
1095.38,649.1793333333337
1097.65,624.7354285714289
1099.92,531.4583333333336
1102.19,420.34604761904785
1104.46,353.25423809523824
1106.72,306.37128571428593
1108.98,307.45704761904784
1111.24,339.6055238095241
1113.5,394.6716190476193
1115.76,422.1294761904764
1118.02,427.1203333333336
1120.28,430.45166666666694
1122.53,429.16895238095265
1124.78,407.12785714285735
1127.03,400.04047619047634
1129.28,335.80961904761915
1131.53,263.0524285714287
1133.77,210.3859047619049
1136.02,186.71314285714297
1138.26,151.17519047619058
1140.5,162.96038095238106
1142.74,165.01938095238108
1144.98,170.7789523809525
1147.22,203.95128571428586
1149.45,228.7731904761906
1151.69,218.14747619047637
1153.92,213.45333333333343
1156.15,176.59347619047628
1158.38,143.99523809523822
1160.61,149.37100000000007
1162.83,141.62384761904772
1165.06,126.22861428571434
1167.28,109.66010476190482
1169.5,74.86890476190482
1171.72,64.94914761904766
1173.94,78.32812380952387
1176.16,82.1945666666667
1178.37,80.59509095238099
1180.58,60.385585000000006
1182.8,33.89822714285716
1185.01,21.94149738095241
1187.22,26.895535714285725
1189.42,23.568727857142875
1191.63,22.15075333333333
1193.84,4.926549523809531
1196.04,8.657275714285742
1198.24,39.00903619047622
1200.44,54.457456666666694
1202.64,70.85923523809525
1204.84,47.11879523809523
1207.03,19.093010476190486
1209.23,0.6388604761904833
1211.42,8.327759047619068
1213.61,24.921644285714315
1215.8,33.46826857142859
1217.99,38.348922380952416
1220.18,63.516148571428616
1222.36,83.73228095238102
1224.55,96.47394761904768
1226.73,109.97971428571434
1228.91,95.7263714285715
1231.09,96.33388571428578
1233.27,91.75500000000007
1235.44,102.13354285714291
1237.62,93.42257619047624
1239.79,110.71799047619056
1241.96,128.7827714285715
1244.13,122.99905238095242
1246.3,103.22491428571433
1248.47,105.22352857142863
1250.64,104.75749523809534
1252.8,138.6376523809525
1254.96,162.7222952380953
1257.13,167.774761904762
1259.29,181.558142857143
1261.44,199.8834285714287
1263.6,209.37076190476202
1265.76,207.25995238095248
1267.91,176.98057142857152
1270.06,162.5344285714287
1272.22,163.1132857142858
1274.37,159.76642857142866
1276.51,157.49533333333343
1278.66,135.53995238095246
1280.81,129.61571428571438
1282.95,143.15338095238104
1285.09,151.63042857142867
1287.23,151.14371428571437
1289.37,156.07600000000008
1291.51,176.00057142857156
1293.65,193.06161904761916
1295.78,208.92766666666674
1297.92,208.45764761904772
1300.05,165.4151714285715
1302.18,139.6592476190477
1304.31,141.19159047619056
1306.44,142.44243809523823
1308.57,162.55645714285725
1310.69,183.01198095238107
1312.82,186.00095238095253
1314.94,197.57266666666678
1317.06,209.53847619047633
1319.18,224.70961904761919
1321.3,234.04028571428586
1323.41,251.0083333333335
1325.53,265.28223809523826
1327.64,295.9589523809526
1329.75,330.5640952380955
1331.87,338.337523809524
1333.98,347.9474761904764
1336.08,336.9670476190478
1338.19,305.0644285714287
1340.3,281.95566666666684
1342.4,256.7375238095239
1344.5,218.31633333333346
1346.6,212.45557142857155
1348.7,203.44247619047633
1350.8,205.08809523809535
1352.9,205.67961904761916
1354.99,195.17080952380962
1357.09,178.94414285714296
1359.18,183.04842857142864
1361.27,159.62795238095248
1363.36,179.73180952380966
1365.45,194.45604761904772
1367.54,223.42095238095254
1369.62,266.48504761904775
1371.7,302.3160952380954
1373.79,293.96285714285733
1375.87,311.8550000000002
1377.95,304.27895238095255
1380.03,304.4258571428573
1382.1,288.8682857142859
1384.18,282.98814285714303
1386.25,268.3572857142858
1388.33,243.54821904761917
1390.4,201.79957619047627
1392.47,160.30210476190484
1394.54,131.53275714285724
1396.6,135.39686666666677
1398.67,136.5611952380953
1400.74,144.88340952380958
1402.8,136.64923809523816
1404.86,127.90661904761913
1406.92,132.70319047619054
1408.98,133.5152857142858
1411.04,126.91426666666673
1413.09,121.75692857142862
1415.15,102.80493333333337
1417.2,80.01050952380957
1419.25,85.1352571428572
1421.3,86.70247619047626
1423.35,114.94981904761913
1425.4,129.97158571428577
1427.45,129.48175238095243
1429.49,125.81253333333339
1431.54,103.15369047619049
1433.58,64.74217142857147
1435.62,63.053176190476236
1437.66,72.22806666666673
1439.7,83.7420952380953
1441.74,98.78418095238099
1443.77,71.16241904761907
1445.81,66.16084285714291
1447.84,72.01622380952386
1449.87,78.01237619047625
1451.9,81.86183809523816
1453.93,99.13431428571435
1455.96,94.25640476190483
1457.98,106.22610476190484
1460.01,113.46999047619056
1462.03,129.51008571428582
1464.05,159.58230476190488
1466.07,197.7798285714287
1468.09,223.0052380952382
1470.11,242.39947619047632
1472.13,249.05542857142873
1474.14,249.78090476190494
1476.16,263.0021904761906
1478.17,252.33600000000015
1480.18,243.63752380952394
1482.19,232.28580952380966
1484.2,217.32619047619056
1486.21,185.70933333333343
1488.21,147.5284095238096
1490.22,93.35274761904766
1492.22,58.990085714285755
1494.22,60.581480952381014
1496.22,56.41068571428574
1498.22,60.99996190476193
1500.22,40.10953809523811
1502.22,36.97597142857146
1504.21,49.931056190476234
1506.21,67.0210823809524
1508.2,50.00657142857145
1510.19,33.74341714285714
1512.18,14.182868571428598
1514.17,20.419049523809544
1516.16,27.593755238095245
1518.14,17.42035904761905
1520.13,13.85034952380953
1522.11,4.978150000000017
1524.09,22.041114285714315
1526.07,42.89567380952383
1528.05,39.350735714285726
1530.03,32.45334761904764
1532.01,41.583892857142885
1533.98,39.31336666666671
1535.96,69.35538333333339
1537.93,88.32879047619052
1539.9,88.23319523809529
1541.87,68.97306190476193
1543.84,77.64322857142862
1545.81,62.386400000000044
1547.78,90.3449714285715
1549.74,88.80467619047623
1551.7,97.90820952380957
1553.67,104.75064285714292
1555.63,108.3793571428572
1557.59,100.84218571428579
1559.55,118.32925238095244
1561.5,112.36463809523819
1563.46,121.4245095238096
1565.41,138.60391428571438
1567.37,131.52214285714294
1569.32,134.0365714285715
1571.27,133.29014285714294
1573.22,135.33080000000007
1575.17,119.25368095238099
1577.11,111.05898095238103
1579.06,117.88989047619056
1581.0,124.5561714285715
1582.95,126.10591904761912
1584.89,121.06291428571433
1586.83,87.57028095238101
1588.77,82.10480000000007
1590.7,93.57152857142866
1592.64,121.20897142857152
1594.58,152.37475714285708
1596.51,153.1881999999998
1598.44,98.31629999999944
