Raman Shift,Processed Intensity
331.095,183.73588571428527
333.909,63.65959999999963
336.721,23.26854285714262
339.531,31.19351428571433
342.339,45.041285714285756
345.145,70.25225714285716
347.949,24.45811904761905
350.751,-2.1373476190476244
353.55,-19.47244285714287
356.348,-10.532352380952359
359.144,-7.30140476190475
361.937,4.189285714285719
364.729,15.052480952380996
367.518,56.73482380952391
370.306,127.25590952380966
373.091,259.3022619047621
375.874,339.2286476190478
378.656,349.4854952380953
381.435,291.81032857142867
384.212,197.27453333333338
386.988,76.76049809523812
389.761,18.055746666666685
392.532,-20.669638571428568
395.301,3.2786514285714627
398.068,13.929821428571447
400.833,40.8852181904762
403.596,40.84253842857142
406.358,11.071903523809507
409.117,-6.631781285714265
411.874,-0.5202483809523863
414.629,12.108216047619084
417.382,19.194354857142876
420.133,56.10825523809528
422.882,75.55455380952388
425.629,110.09557523809531
428.374,151.771161904762
431.117,188.95470476190482
433.858,172.4970000000001
436.597,164.91566666666677
439.334,145.01552380952387
442.069,111.50623809523817
444.802,122.33652380952388
447.533,135.02695238095248
450.262,144.33690476190486
452.989,179.64523809523823
455.714,199.5694285714287
458.438,199.7750476190477
461.159,195.64271428571436
463.878,163.98190476190484
466.595,133.8882952380953
469.31,105.3149666666667
472.024,64.5484047619048
474.735,49.44721428571434
477.444,76.53749047619054
480.152,96.96390000000008
482.857,124.25287142857148
485.561,146.78794285714292
488.262,122.57198571428577
490.962,113.13195238095247
493.659,110.99524761904767
496.355,91.21299523809529
499.048,87.07464761904768
501.74,101.25097142857148
504.43,76.0793285714286
507.118,69.08775238095242
509.804,74.89981904761912
512.488,113.09122380952394
515.17,188.9520380952382
517.85,221.24911428571437
520.528,218.7011714285715
523.204,146.83681428571433
525.878,73.56577142857147
528.551,54.702233333333396
531.221,69.29854285714292
533.89,81.31213809523815
536.556,82.03327142857144
539.221,51.99066190476192
541.883,15.808180952380978
544.544,39.44282380952386
547.203,45.66129047619051
549.86,78.5634333333334
552.515,111.24895238095246
555.168,143.29382857142866
557.819,137.03579523809532
560.469,143.43139047619053
563.116,102.58006666666672
565.761,93.34270476190483
568.405,84.4375190476191
571.047,109.5826095238096
573.687,126.25761428571437
576.324,135.6090857142858
578.96,136.87787142857152
581.594,139.68610476190483
584.227,104.60820952380958
586.857,105.45626666666674
589.485,85.32795714285717
592.112,70.74953333333337
594.737,68.48464761904766
597.359,84.34466666666673
599.98,104.95049523809531
602.599,130.73192380952386
605.216,113.73783333333338
607.831,102.87394761904766
610.445,74.33148571428576
613.056,78.58710000000006
615.666,80.92700476190481
618.274,81.73213809523814
620.88,90.19282380952387
623.484,88.40400952380956
626.086,81.0794714285715
628.686,80.64713333333336
631.284,86.96305714285721
633.881,89.54987619047628
636.476,142.92998095238107
639.068,160.38760000000008
641.659,165.25451428571432
644.249,143.10009047619053
646.836,113.44596190476194
649.421,76.81357142857148
652.005,76.96230476190479
654.587,55.1753285714286
657.166,46.16431428571432
659.745,60.926047619047665
662.321,61.31482380952385
664.895,71.94651904761909
667.468,67.15111428571429
670.038,40.401461904761916
672.607,13.265457142857159
675.174,22.834580952380982
677.739,25.67682380952383
680.303,34.26460476190479
682.864,53.30841904761908
685.424,67.23305238095242
687.982,50.93942380952383
690.538,37.804585714285714
693.092,29.110442857142882
695.645,24.66263809523813
698.195,50.93352380952385
700.744,66.91930952380955
703.291,50.71145095238096
705.836,23.11571857142858
708.38,5.176067142857142
710.921,-12.682591904761896
713.461,-0.08285380952378674
715.999,26.686090952380983
718.535,45.049420952380984
721.069,67.67045809523813
723.602,76.06977142857146
726.133,71.5299247619048
728.662,50.285955714285734
731.189,34.76346380952383
733.714,53.29294428571434
736.238,56.82395428571432
738.759,57.63954142857147
741.279,39.78472952380953
743.798,39.352480952381
746.314,42.81648571428577
748.829,83.50787333333336
751.342,64.9483542857143
753.853,66.08828952380956
756.362,49.54488952380956
758.869,50.507021428571456
761.375,41.68710380952383
763.879,53.13124619047622
766.381,37.59987809523814
768.882,50.520165238095274
771.38,54.98614380952383
773.877,40.28233809523812
776.372,34.83618952380955
778.866,35.02769428571429
781.357,34.80833142857145
783.847,27.605867619047633
786.335,18.229117142857167
788.821,40.58226571428577
791.306,66.04565142857147
793.789,86.47608095238104
796.27,116.82543809523817
798.749,137.28403809523817
801.227,123.4230190476191
803.702,139.19458380952386
806.176,102.97973380952384
808.649,69.2071628571429
811.119,60.59125190476196
813.588,86.03714380952388
816.055,102.49699095238104
818.521,141.68575523809528
820.984,128.36565238095244
823.446,105.3466952380953
825.906,93.96290952380957
828.365,90.78635047619052
830.821,60.57929095238098
833.276,65.20013904761909
835.729,55.268432857142884
838.181,55.88035333333338
840.631,65.7987766666667
843.079,64.45329333333335
845.525,49.463985714285755
847.97,53.6415904761905
850.412,53.22531904761909
852.854,50.835457142857166
855.293,50.52093333333336
857.731,39.80688095238098
860.167,42.599433333333366
862.601,49.32859047619051
865.034,54.42438095238098
867.465,47.50738571428574
869.894,40.10297142857144
872.321,31.022247619047643
874.747,23.362047619047647
877.171,45.12417142857147
879.594,77.16724285714291
882.014,83.73113809523814
884.433,77.67475714285717
886.851,81.95216666666671
889.266,82.51748571428578
891.68,107.56348095238104
894.092,149.2820571428572
896.503,131.15148571428577
898.912,112.88780000000004
901.319,87.44519523809528
903.724,86.63527619047628
906.128,106.74560476190483
908.53,123.25414285714291
910.931,109.02013809523814
913.329,81.14060952380954
915.726,65.28432380952387
918.122,70.54853333333338
920.516,73.88727619047624
922.908,82.01690000000005
925.298,78.46315238095242
927.687,58.608919047619096
930.074,70.64665238095243
932.459,75.00676190476196
934.843,69.16735238095242
937.225,69.65412571428574
939.605,43.04035190476192
941.984,29.280275238095264
944.361,29.709030952380974
946.736,27.280834285714306
949.11,31.23554619047622
951.482,38.47970476190478
953.853,36.77692285714289
956.222,40.84321619047622
958.589,54.48975428571431
960.954,52.81344285714289
963.318,57.101619047619096
965.68,75.16523333333339
968.041,95.67259238095244
970.4,89.62519476190482
972.757,63.07207999999999
975.113,29.4908861904762
977.467,8.3115085714286
979.819,28.58278047619053
982.17,59.59176857142861
984.519,60.62537619047622
986.866,55.1133047619048
989.212,47.91377619047623
991.556,62.456438095238155
993.899,84.02790952380957
996.24,77.20041428571432
998.579,76.35581428571435
1000.92,88.732780952381
1003.25,73.85576190476193
1005.59,73.3920523809524
1007.92,70.77063714285715
1010.25,34.56330380952384
1012.58,33.960955238095266
1014.91,47.011291428571454
1017.24,52.047879047619084
1019.56,49.832660952381
1021.88,78.41338000000005
1024.2,90.3137714285715
1026.52,90.72408095238102
1028.84,113.12041428571438
1031.16,130.40719047619052
1033.48,102.01270952380959
1035.79,96.6988095238096
1038.1,116.94118571428581
1040.41,144.3583523809525
1042.72,201.80703333333346
1045.03,227.7147714285715
1047.33,194.74785714285724
1049.64,159.6678095238096
1051.94,146.04533333333342
1054.24,146.02242857142866
1056.54,158.07442857142865
1058.84,158.20038095238104
1061.13,144.25661904761913
1063.43,148.05190476190486
1065.72,144.58509523809533
1068.01,144.42642857142866
1070.3,158.67033333333342
1072.59,158.12547619047626
1074.87,168.36214285714294
1077.16,182.6170000000001
1079.44,176.03171428571443
1081.72,217.3670000000002
1084.0,303.8599523809526
1086.28,381.65195238095265
1088.56,490.8846190476194
1090.84,599.3658095238098
1093.11,655.5707619047623
1095.38,677.1171904761908
1097.65,631.4800476190479
1099.92,532.0384761904766
1102.19,441.3151428571432
1104.46,390.356285714286
1106.72,368.54109523809547
1108.98,360.6302380952383
1111.24,364.6220952380955
1113.5,383.7055238095241
1115.76,431.92700000000025
1118.02,486.5229523809527
1120.28,506.68233333333364
1122.53,481.165523809524
1124.78,415.8757142857145
1127.03,333.14476190476205
1129.28,291.1617142857144
1131.53,241.16290476190485
1133.77,192.3852380952382
1136.02,182.49342857142864
1138.26,155.15285714285724
1140.5,147.4095238095239
1142.74,173.64290476190487
1144.98,191.70885714285725
1147.22,192.4154285714287
1149.45,217.5228095238096
1151.69,219.17229523809533
1153.92,183.2195095238096
1156.15,162.90125714285725
1158.38,156.69241428571436
1160.61,113.87732380952389
1162.83,105.8828333333334
1165.06,113.13641904761911
1167.28,110.92228571428578
1169.5,111.47748095238103
1171.72,112.51470476190482
1173.94,96.93749047619055
1176.16,103.45896190476199
1178.37,114.79231428571435
1180.58,111.36463333333337
1182.8,78.98443809523812
1185.01,53.74568095238098
1187.22,27.21870476190478
1189.42,18.68844285714288
1191.63,24.153680952380967
1193.84,34.042033333333364
1196.04,40.400219047619075
1198.24,39.65597380952383
1200.44,38.66565238095239
1202.64,14.047659999999993
1204.84,-8.150974523809518
1207.03,-2.549808571428567
1209.23,6.803205476190492
1211.42,12.95545571428574
1213.61,36.38304452380954
1215.8,30.70508142857144
1217.99,36.54078571428575
1220.18,43.461904761904805
1222.36,75.80214285714291
1224.55,96.27636190476196
1226.73,101.6947666666667
1228.91,81.77238095238097
1231.09,70.36723333333336
1233.27,30.004138095238122
1235.44,52.96968761904767
1237.62,45.93193285714288
1239.79,60.03495142857149
1241.96,87.80412904761911
1244.13,111.57392285714292
1246.3,112.86973285714295
1248.47,143.97898761904767
1250.64,95.04616666666672
1252.8,89.07300000000008
1254.96,105.01397619047626
1257.13,134.48957142857154
1259.29,161.16859523809535
1261.44,198.8152857142858
1263.6,187.38400000000013
1265.76,169.35319047619055
1267.91,161.5820000000001
1270.06,159.69179047619056
1272.22,137.39914761904768
1274.37,132.56353333333342
1276.51,123.85413809523817
1278.66,104.13067619047627
1280.81,122.72874761904771
1282.95,133.1272047619048
1285.09,116.13805714285719
1287.23,101.04947142857148
1289.37,82.10225238095244
1291.51,77.8704714285715
1293.65,95.54734761904768
1295.78,107.18310952380958
1297.92,99.63763333333338
1300.05,86.38979523809529
1302.18,69.06135238095243
1304.31,74.70254761904768
1306.44,94.64939047619056
1308.57,105.42863809523816
1310.69,131.1857238095239
1312.82,136.78055238095246
1314.94,142.12052380952392
1317.06,146.01780952380963
1319.18,171.47509523809535
1321.3,193.97157142857156
1323.41,221.0809047619049
1325.53,239.09152380952398
1327.64,247.4346190476192
1329.75,247.73171428571447
1331.87,275.2712380952383
1333.98,275.76995238095253
1336.08,258.9444285714287
1338.19,245.9877142857144
1340.3,234.0450476190478
1342.4,212.6426666666668
1344.5,211.87797142857153
1346.6,167.41985238095245
1348.7,126.65137142857151
1350.8,109.00332857142865
1352.9,99.47769523809531
1354.99,110.69569047619056
1357.09,144.13545714285723
1359.18,149.08431428571438
1361.27,148.3536095238096
1363.36,147.61180000000007
1365.45,132.71771428571435
1367.54,131.48242857142867
1369.62,164.76485714285727
1371.7,207.4230476190478
1373.79,255.41080952380972
1375.87,277.5388095238097
1377.95,279.76061904761923
1380.03,253.74404761904776
1382.1,238.633142857143
1384.18,229.33304761904776
1386.25,220.65386666666677
1388.33,166.88210476190483
1390.4,128.68482857142865
1392.47,108.34822857142865
1394.54,104.01579047619056
1396.6,105.78242380952388
1398.67,112.79097142857148
1400.74,82.37486190476194
1402.8,77.00983809523815
1404.86,76.93357142857148
1406.92,93.47928571428577
1408.98,97.8362714285715
1411.04,119.00415238095245
1413.09,97.17232380952385
1415.15,94.62542857142864
1417.2,90.12401428571434
1419.25,98.09535238095243
1421.3,97.49012857142863
1423.35,108.40230000000004
1425.4,81.92507142857147
1427.45,74.96126666666672
1429.49,77.4609952380953
1431.54,86.99349523809528
1433.58,77.60410952380956
1435.62,63.861800000000024
1437.66,51.85924761904765
1439.7,59.498533333333384
1441.74,63.91974761904766
1443.77,65.50099047619051
1445.81,69.09658571428577
1447.84,74.41772380952386
1449.87,79.08035238095243
1451.9,83.84322380952385
1453.93,86.94130000000007
1455.96,80.79987142857148
1457.98,91.84436666666673
1460.01,129.54756190476198
1462.03,145.19160000000008
1464.05,158.63044761904771
1466.07,176.9558761904763
1468.09,185.92657142857155
1470.11,192.7771904761906
1472.13,249.78976190476212
1474.14,266.10371428571443
1476.16,275.33476190476205
1478.17,263.47961904761917
1480.18,232.29690476190484
1482.19,197.402142857143
1484.2,188.7920476190477
1486.21,174.32033809523818
1488.21,131.22195952380957
1490.22,91.63683333333337
1492.22,55.94263571428575
1494.22,50.041104761904805
1496.22,65.83425000000007
1498.22,89.0807047619048
1500.22,75.53980000000004
1502.22,55.78016190476193
1504.21,51.56108095238099
1506.21,42.6895285714286
1508.2,52.6392285714286
1510.19,35.45546552380953
1512.18,11.897892190476192
1514.17,1.202446285714304
1516.16,11.986146857142876
1518.14,26.8185367619048
1520.13,57.5073207619048
1522.11,55.09847504761907
1524.09,50.4952428571429
1526.07,69.07692380952386
1528.05,80.93761904761911
1530.03,98.74283333333341
1532.01,115.87227142857148
1533.98,112.22972380952388
1535.96,120.24287142857153
1537.93,137.29197142857151
1539.9,124.23352857142862
1541.87,110.87629523809531
1543.84,112.31504285714294
1545.81,104.64443809523819
1547.78,123.14981428571437
1549.74,147.831361904762
1551.7,158.7362380952382
1553.67,162.05480952380964
1555.63,161.93019047619055
1557.59,143.4574761904763
1559.55,169.160761904762
1561.5,170.37390476190487
1563.46,183.28752380952392
1565.41,180.47338095238104
1567.37,160.02738095238104
1569.32,154.42580952380962
1571.27,164.24085714285724
1573.22,161.94966666666676
1575.17,152.79100000000008
1577.11,169.57485714285724
1579.06,170.1598095238096
1581.0,186.5461904761906
1582.95,170.59219047619058
1584.89,171.2990476190477
1586.83,145.00119047619057
1588.77,136.84242857142863
1590.7,121.68138095238102
1592.64,117.28100000000008
1594.58,110.30900000000017
1596.51,122.02850000000035
1598.44,164.27400000000065
