Raman Shift,Processed Intensity
331.095,28.968236666666428
333.909,-20.724431666666618
336.721,-4.4622838095236546
339.531,41.55121857142862
342.339,61.326730476190505
345.145,44.75613809523809
347.949,28.993699047619053
350.751,6.908510952380962
353.55,0.6558666666666935
356.348,15.772574285714295
359.144,27.748410476190486
361.937,0.4547509523809654
364.729,23.47765809523814
367.518,54.49952666666675
370.306,125.96507142857158
373.091,264.5577300000002
375.874,362.6759514285716
378.656,394.2906571428573
381.435,347.7065761904763
384.212,234.80112857142868
386.988,119.92853333333342
389.761,82.72954761904766
392.532,18.46493714285716
395.301,0.8252966666666669
398.068,-12.9742019047619
400.833,2.3303890476190663
403.596,4.099364761904775
406.358,37.122734761904766
409.117,1.715451428571411
411.874,-1.8540285714285538
414.629,15.683938095238114
417.382,15.933514285714288
420.133,5.023866666666699
422.882,41.466357142857184
425.629,75.05918095238107
428.374,153.17288571428585
431.117,229.0837380952382
433.858,239.83138095238104
436.597,228.78957142857152
439.334,198.09500000000008
442.069,178.59942857142866
444.802,145.53609523809533
447.533,152.28223809523823
450.262,177.50176190476205
452.989,215.14490476190488
455.714,228.92428571428584
458.438,237.2678380952382
461.159,191.07988571428578
463.878,149.74199047619055
466.595,113.8264571428572
469.31,81.81100000000005
472.024,81.55453333333341
474.735,101.6788190476191
477.444,142.75819047619058
480.152,140.46259047619054
482.857,134.50990476190483
485.561,142.80896190476201
488.262,140.65006190476197
490.962,130.60919047619058
493.659,148.6914714285715
496.355,101.33080476190482
499.048,109.91338571428581
501.74,121.06405238095243
504.43,97.74111904761912
507.118,103.52179523809531
509.804,108.5075857142858
512.488,108.84764761904772
515.17,165.16716666666676
517.85,149.04426190476198
520.528,122.29467619047625
523.204,107.30613809523815
525.878,79.94235238095243
528.551,69.44785238095243
531.221,78.30528571428576
533.89,79.33068571428579
536.556,97.48257142857149
539.221,109.62471428571436
541.883,130.71589523809533
544.544,109.0002952380953
547.203,111.95999047619057
549.86,119.26774285714292
552.515,126.5003238095239
555.168,131.33030476190487
557.819,167.4298761904763
560.469,159.13757142857153
563.116,174.22033333333346
565.761,178.25442857142866
568.405,177.9110476190477
571.047,197.38525714285728
573.687,197.58587619047628
576.324,183.6599904761906
578.96,159.08750476190485
581.594,149.53819047619058
584.227,128.20607619047627
586.857,138.9034952380953
589.485,109.156980952381
592.112,87.73102380952385
594.737,67.53260476190482
597.359,78.27762380952387
599.98,113.06336666666677
602.599,133.89114761904767
605.216,134.09541428571436
607.831,131.96275238095242
610.445,105.16051428571436
613.056,91.2128476190477
615.666,103.78673333333339
618.274,79.11999523809529
620.88,74.498180952381
623.484,99.68222380952388
626.086,123.52864761904772
628.686,146.84616666666676
631.284,164.01421904761915
633.881,177.41228571428582
636.476,182.75328571428582
639.068,190.3207333333334
641.659,169.5888047619048
644.249,149.50751428571434
646.836,92.88397619047625
649.421,76.85847142857146
652.005,56.61893809523813
654.587,60.495887619047664
657.166,36.676659047619076
659.745,53.96757523809526
662.321,24.746564761904782
664.895,38.2958847619048
667.468,66.89816857142861
670.038,77.12124476190479
672.607,71.7711190476191
675.174,86.36803333333337
677.739,63.194114285714335
680.303,74.38837619047625
682.864,85.09038761904765
685.424,61.201035238095265
687.982,30.049951428571433
690.538,13.252483809523817
693.092,10.709660952380982
695.645,17.17960190476192
698.195,39.61116571428575
700.744,46.905459047619054
703.291,29.963651428571442
705.836,19.782207619047632
708.38,23.35758000000001
710.921,12.924406666666695
713.461,31.431611428571465
715.999,59.637780952381014
718.535,83.3489333333334
721.069,102.75217142857149
723.602,97.41565714285717
726.133,83.85990000000004
728.662,66.17695714285718
731.189,60.41139047619052
733.714,67.41693809523815
736.238,80.52398571428576
738.759,73.30096666666671
741.279,58.07821904761907
743.798,72.32904761904766
746.314,61.66962857142862
748.829,72.239880952381
751.342,66.37056666666669
753.853,65.48757619047623
756.362,50.54080000000005
758.869,65.19441428571433
761.375,64.11277142857148
763.879,75.1983428571429
766.381,70.40137619047624
768.882,89.91027142857148
771.38,79.81836190476194
773.877,71.88570000000003
776.372,46.58682380952382
778.866,30.30106666666668
781.357,11.884171428571436
783.847,10.382457142857156
786.335,10.604280952380982
788.821,48.977257142857184
791.306,54.54809047619052
793.789,87.5539190476191
796.27,95.9942714285715
798.749,112.3926571428572
801.227,108.9866333333334
803.702,136.2996095238096
806.176,119.09350000000006
808.649,124.27271428571437
811.119,129.64717142857154
813.588,150.16957142857152
816.055,145.41141904761915
818.521,151.8970095238096
820.984,130.2459666666667
823.446,90.31581904761909
825.906,95.8692333333334
828.365,101.9068952380953
830.821,88.38205238095243
833.276,73.67686190476194
835.729,77.93496190476196
838.181,61.15764285714293
840.631,102.63167619047627
843.079,124.97751428571434
845.525,124.05363333333338
847.97,88.90910952380956
850.412,66.73582380952385
852.854,54.63046190476195
855.293,67.97566190476195
857.731,78.916080952381
860.167,74.69149523809526
862.601,58.3513285714286
865.034,44.040280952380975
867.465,41.331428571428596
869.894,38.94121428571432
872.321,39.3001142857143
874.747,36.50540952380956
877.171,47.03530952380956
879.594,74.60632857142863
882.014,88.88709047619054
884.433,85.07020000000006
886.851,94.34838095238102
889.266,99.24764285714292
891.68,116.38912857142867
894.092,148.584880952381
896.503,141.31315714285722
898.912,119.7189333333334
901.319,129.28099523809533
903.724,119.76339523809531
906.128,129.40652857142865
908.53,123.06992857142862
910.931,104.08905714285721
913.329,105.08510952380959
915.726,122.72720952380959
918.122,116.92251428571434
920.516,113.81622380952388
922.908,87.55338095238099
925.298,64.70757142857148
927.687,65.75714285714291
930.074,74.03750476190481
932.459,90.02727619047627
934.843,94.96656190476196
937.225,106.85764761904768
939.605,89.79768095238099
941.984,77.50299047619052
944.361,70.54697714285717
946.736,57.83644857142859
949.11,27.563768571428604
951.482,46.77856095238098
953.853,33.815892380952405
956.222,51.82022952380958
958.589,75.03157238095241
960.954,69.16590476190478
963.318,58.46289047619052
965.68,77.40038095238098
968.041,73.69406666666671
970.4,78.48803333333338
972.757,46.40287142857144
975.113,37.059143809523846
977.467,18.21980571428574
979.819,38.69573523809528
982.17,51.29744190476193
984.519,67.64511142857145
986.866,57.50172952380958
989.212,99.39228666666673
991.556,106.50790000000008
993.899,126.80177142857148
996.24,124.41764761904767
998.579,118.87990952380956
1000.92,83.90349523809527
1003.25,61.01278095238097
1005.59,53.874695238095285
1007.92,56.918238095238145
1010.25,62.905771428571484
1012.58,92.17042380952387
1014.91,85.42680952380957
1017.24,79.10350000000005
1019.56,85.0098047619048
1021.88,83.90758571428577
1024.2,82.22506190476197
1026.52,104.81902380952388
1028.84,117.26048095238103
1031.16,149.644161904762
1033.48,140.44584285714294
1035.79,149.3314000000001
1038.1,152.44310952380962
1040.41,165.4471142857144
1042.72,189.48508095238105
1045.03,215.65167619047628
1047.33,177.99338095238102
1049.64,178.84238095238106
1051.94,163.38838095238106
1054.24,177.48723809523824
1056.54,199.70919047619057
1058.84,192.29133333333343
1061.13,172.4701904761906
1063.43,165.6258095238096
1065.72,153.61390476190488
1068.01,175.57576190476203
1070.3,211.1290000000001
1072.59,221.51028571428586
1074.87,224.33728571428583
1077.16,208.51347619047633
1079.44,201.08438095238108
1081.72,243.47709523809544
1084.0,303.4517619047622
1086.28,383.1021428571431
1088.56,458.9029523809527
1090.84,552.5668095238099
1093.11,630.9010952380955
1095.38,675.7613333333336
1097.65,635.0504761904765
1099.92,557.0524761904765
1102.19,471.57538095238124
1104.46,410.61738095238127
1106.72,395.27190476190503
1108.98,412.48923809523836
1111.24,422.12480952380974
1113.5,435.2243809523812
1115.76,477.9290476190479
1118.02,488.0940952380955
1120.28,500.09885714285736
1122.53,504.03657142857173
1124.78,453.667523809524
1127.03,372.7040476190478
1129.28,308.90609523809536
1131.53,275.84328571428586
1133.77,237.65704761904775
1136.02,214.77428571428584
1138.26,192.47904761904775
1140.5,178.34080952380964
1142.74,186.88171428571445
1144.98,239.10009523809538
1147.22,259.32776190476204
1149.45,272.9439047619049
1151.69,274.1375714285716
1153.92,262.81204761904775
1156.15,227.68014285714298
1158.38,196.1688095238096
1160.61,155.46723809523817
1162.83,142.3835238095239
1165.06,137.01161904761912
1167.28,132.7788095238096
1169.5,134.77887619047627
1171.72,126.67723333333339
1173.94,113.75866666666674
1176.16,96.68889523809528
1178.37,94.41899619047625
1180.58,65.47193428571433
1182.8,67.41813523809527
1185.01,62.63779428571433
1187.22,66.74905904761907
1189.42,52.27507714285718
1191.63,59.78637238095238
1193.84,15.330171428571429
1196.04,6.048723809523826
1198.24,-2.7250571428571297
1200.44,29.15121047619052
1202.64,42.534460476190496
1204.84,57.2816542857143
1207.03,34.059401428571434
1209.23,33.534368571428594
1211.42,28.563865238095282
1213.61,68.19563142857146
1215.8,61.95392333333336
1217.99,55.26775142857145
1220.18,36.709095714285745
1222.36,56.992813333333395
1224.55,68.02450428571434
1226.73,105.70972095238102
1228.91,110.23993333333337
1231.09,94.18764285714289
1233.27,82.60145238095244
1235.44,96.95869047619053
1237.62,79.78464285714291
1239.79,97.12826190476197
1241.96,106.84828571428577
1244.13,103.85095238095245
1246.3,106.66142857142864
1248.47,127.70976190476199
1250.64,139.09333333333342
1252.8,157.00438095238104
1254.96,160.68309523809535
1257.13,182.94057142857156
1259.29,190.7311904761906
1261.44,208.77120952380963
1263.6,192.2059476190477
1265.76,170.46599047619054
1267.91,140.83943333333343
1270.06,143.0900857142858
1272.22,136.83961428571436
1274.37,159.70906666666679
1276.51,153.3201904761906
1278.66,153.5323333333334
1280.81,157.348161904762
1282.95,144.96039523809532
1285.09,119.37173333333341
1287.23,103.10819523809528
1289.37,93.1251333333334
1291.51,96.56788095238103
1293.65,112.86772380952388
1295.78,121.83668571428578
1297.92,111.19173809523812
1300.05,94.98292380952387
1302.18,88.11790000000005
1304.31,84.40890952380958
1306.44,88.6204428571429
1308.57,99.94588095238102
1310.69,113.53061904761911
1312.82,116.09136190476197
1314.94,125.39310476190482
1317.06,126.67629047619056
1319.18,156.0388000000001
1321.3,185.34070952380966
1323.41,199.7274000000001
1325.53,203.3920000000001
1327.64,220.718142857143
1329.75,244.94604761904782
1331.87,280.7450952380954
1333.98,292.1180476190478
1336.08,286.7816190476192
1338.19,271.88123809523825
1340.3,226.51438095238106
1342.4,207.06447619047628
1344.5,175.15290476190484
1346.6,143.68673333333345
1348.7,129.28718571428578
1350.8,120.0994571428572
1352.9,96.03032857142864
1354.99,102.22511428571434
1357.09,99.82852857142865
1359.18,110.69947619047628
1361.27,131.9830380952382
1363.36,132.72870476190485
1365.45,134.4622380952382
1367.54,151.1377142857144
1369.62,165.18514285714298
1371.7,199.08252380952393
1373.79,233.30752380952396
1375.87,233.4331904761906
1377.95,240.46090476190494
1380.03,250.01100000000014
1382.1,223.32247619047627
1384.18,206.30161904761914
1386.25,180.90162857142866
1388.33,155.50464761904766
1390.4,127.3970333333334
1392.47,100.96075714285718
1394.54,74.1485952380953
1396.6,63.67553809523813
1398.67,48.44686904761907
1400.74,38.03433333333335
1402.8,31.533373809523837
1404.86,40.039404761904805
1406.92,50.266745238095275
1408.98,61.35817619047623
1411.04,52.742047619047646
1413.09,35.132373809523834
1415.15,24.957233333333356
1417.2,32.16851190476192
1419.25,32.00361047619051
1421.3,34.03315571428573
1423.35,40.446692380952406
1425.4,53.052722857142896
1427.45,56.469130476190514
1429.49,62.78992000000003
1431.54,57.0612961904762
1433.58,40.472238095238126
1435.62,31.354482857142877
1437.66,29.087235238095243
1439.7,22.430608571428582
1441.74,19.62076476190477
1443.77,12.655646666666682
1445.81,16.29506380952382
1447.84,20.29874476190478
1449.87,21.331047619047638
1451.9,38.58010000000002
1453.93,39.805342857142875
1455.96,41.95661904761907
1457.98,37.1265666666667
1460.01,54.31270000000006
1462.03,83.79783809523818
1464.05,121.19824285714296
1466.07,146.27316190476202
1468.09,183.1624666666668
1470.11,204.7679047619049
1472.13,231.80142857142872
1474.14,242.1166666666668
1476.16,227.85361904761913
1478.17,205.5810476190477
1480.18,197.29561904761914
1482.19,185.8514000000001
1484.2,162.81703333333337
1486.21,120.04621904761909
1488.21,84.67895238095242
1490.22,54.85525238095242
1492.22,40.714861904761946
1494.22,58.159804761904816
1496.22,65.09157619047623
1498.22,59.983452380952414
1500.22,58.1658523809524
1502.22,44.588261904761914
1504.21,31.200285714285744
1506.21,34.951657142857165
1508.2,34.55374761904764
1510.19,37.7181923809524
1512.18,27.63283523809525
1514.17,15.199856190476202
1516.16,14.702493333333347
1518.14,25.471663809523836
1520.13,26.314557142857158
1522.11,37.038438095238114
1524.09,27.26015142857143
1526.07,10.691883333333342
1528.05,5.85540095238097
1530.03,23.55833761904764
1532.01,30.60837333333337
1533.98,41.90849476190479
1535.96,55.50462857142861
1537.93,63.82377142857147
1539.9,66.76912857142861
1541.87,67.81549523809528
1543.84,78.4377005714286
1545.81,51.58680628571431
1547.78,54.73795542857147
1549.74,70.03265276190481
1551.7,111.94609352380962
1553.67,120.0488015238096
1555.63,149.8159672380953
1557.59,140.9611476190477
1559.55,132.91222857142867
1561.5,128.62061428571437
1563.46,145.94320952380957
1565.41,144.1174857142858
1567.37,139.66658095238103
1569.32,129.82811428571435
1571.27,111.98260952380959
1573.22,127.70135238095247
1575.17,141.3652000000001
1577.11,166.02158095238104
1579.06,171.09861904761914
1581.0,158.7870476190477
1582.95,141.32466666666676
1584.89,137.18795238095245
1586.83,137.71028571428582
1588.77,145.32038095238107
1590.7,152.44695238095247
1592.64,153.18561904761913
1594.58,141.17921428571435
1596.51,124.309142857143
1598.44,105.742404761905
