Raman Shift,Processed Intensity
331.095,64.06440304761881
333.909,-14.638535333333593
336.721,-43.02702090476208
339.531,-37.987984
342.339,-12.004253238095242
345.145,-15.795803619047614
347.949,12.396002476190489
350.751,15.855489333333331
353.55,10.535505523809523
356.348,1.1525917142857056
359.144,-12.431973285714292
361.937,-17.83132752380949
364.729,24.200590904761956
367.518,61.57780104761914
370.306,141.31184576190492
373.091,247.32046790476207
375.874,346.28494285714305
378.656,402.36466666666684
381.435,378.2923333333335
384.212,268.9921142857144
386.988,169.4856047619048
389.761,69.60510000000002
392.532,28.327304761904795
395.301,24.630761904761926
398.068,27.35258571428575
400.833,35.950395238095275
403.596,57.64520476190477
406.358,37.326135714285726
409.117,10.169419047619051
411.874,18.638387142857162
414.629,10.007158571428585
417.382,26.360700476190516
420.133,39.308998571428596
422.882,59.55862190476198
425.629,91.67403000000013
428.374,203.17361809523825
431.117,260.4813714285716
433.858,319.1653047619049
436.597,293.46076190476197
439.334,241.98504761904775
442.069,184.9752380952382
444.802,195.38395238095254
447.533,198.02142857142871
450.262,226.3654285714287
452.989,255.08485714285732
455.714,267.3725714285715
458.438,244.51785714285722
461.159,212.04866666666672
463.878,169.44566666666674
466.595,131.76130476190485
469.31,116.52520476190482
472.024,104.4572190476191
474.735,91.13525238095244
477.444,88.09010476190483
480.152,91.85253809523817
482.857,116.57240952380961
485.561,129.25746666666674
488.262,159.43949523809536
490.962,191.6504285714287
493.659,203.9464761904763
496.355,175.85966666666675
499.048,151.2080476190477
501.74,147.71465714285725
504.43,124.10268095238104
507.118,131.99993333333342
509.804,141.98679523809534
512.488,161.83393333333348
515.17,218.7886333333335
517.85,252.43118095238103
520.528,232.6751047619049
523.204,197.57668095238103
525.878,133.66842857142865
528.551,89.48277619047623
531.221,68.7426380952381
533.89,22.932561904761933
536.556,32.34626666666671
539.221,48.563423809523854
541.883,91.97278095238104
544.544,133.05810000000008
547.203,160.49336190476197
549.86,132.6193714285715
552.515,120.776361904762
555.168,129.16177142857157
557.819,192.87745714285728
560.469,218.59589523809535
563.116,240.84699047619057
565.761,192.493761904762
568.405,170.39849523809534
571.047,147.56623333333343
573.687,145.47827619047627
576.324,134.138661904762
578.96,115.45660000000007
581.594,104.05507142857152
584.227,127.22288571428578
586.857,118.53486666666673
589.485,105.56547142857148
592.112,107.55500000000006
594.737,95.31556666666674
597.359,88.03920000000006
599.98,146.9655285714287
602.599,192.00046666666677
605.216,180.4307238095239
607.831,190.35206666666676
610.445,181.86027619047627
613.056,121.14525714285725
615.666,133.49243809523819
618.274,112.90093809523815
620.88,88.70328571428581
623.484,124.0889285714287
626.086,185.9606190476192
628.686,220.17369047619061
631.284,277.72595238095255
633.881,258.615142857143
636.476,228.88619047619062
639.068,219.441142857143
641.659,213.562142857143
644.249,202.34140952380966
646.836,192.2992000000001
649.421,133.5270190476191
652.005,71.02093809523814
654.587,53.491271428571466
657.166,40.74334285714289
659.745,29.8206761904762
662.321,22.147465714285723
664.895,7.528860952380954
667.468,-6.6586257142857015
670.038,12.628177142857165
672.607,28.28960285714288
675.174,41.41641333333338
677.739,73.19460380952385
680.303,91.00074761904767
682.864,94.02089047619053
685.424,94.53636190476195
687.982,61.20950952380954
690.538,29.750295238095248
693.092,11.535392380952388
695.645,-0.20118857142855617
698.195,11.250746666666686
700.744,21.982421904761914
703.291,24.132803809523825
705.836,31.936211428571443
708.38,21.388930476190477
710.921,15.15403333333335
713.461,8.228052380952388
715.999,21.798047619047658
718.535,44.8608428571429
721.069,66.27050000000004
723.602,68.07161904761908
726.133,74.68990952380955
728.662,51.884509523809555
731.189,53.27175714285718
733.714,69.27775238095242
736.238,65.09053476190479
738.759,54.755378095238115
741.279,31.984370000000006
743.798,14.680130476190497
746.314,11.459702380952411
748.829,36.89259523809527
751.342,52.78653047619051
753.853,71.56838380952384
756.362,66.85556190476194
758.869,71.12275714285718
761.375,64.84477619047622
763.879,53.30599047619051
766.381,49.02897142857147
768.882,59.58402380952384
771.38,63.732007619047664
773.877,58.04341000000002
776.372,35.469746190476194
778.866,21.248342380952394
781.357,14.75939857142859
783.847,21.002338571428595
786.335,34.83378809523811
788.821,19.681820952380953
791.306,18.165180000000035
793.789,37.28347904761908
796.27,67.7984514285715
798.749,83.9479971428572
801.227,114.11304000000007
803.702,128.05540476190484
806.176,153.96584761904774
808.649,182.748961904762
811.119,185.83360476190484
813.588,152.17239047619054
816.055,126.71799523809531
818.521,105.28039047619053
820.984,90.14600476190483
823.446,114.69592380952388
825.906,117.40691428571435
828.365,106.51770952380957
830.821,81.88601904761909
833.276,68.98894761904766
835.729,64.01774761904767
838.181,70.7350428571429
840.631,82.09390952380957
843.079,87.71460000000005
845.525,87.35962380952387
847.97,125.36374285714292
850.412,123.72773333333336
852.854,88.59554952380955
855.293,49.82529285714287
857.731,12.275494761904767
860.167,-7.862521428571404
862.601,5.222373333333334
865.034,11.435954761904776
867.465,11.874765714285724
869.894,28.921061904761935
872.321,32.95712714285717
874.747,44.508167619047654
877.171,69.8611952380953
879.594,83.49386190476196
882.014,82.93130000000006
884.433,94.27018095238101
886.851,101.6074476190477
889.266,128.13486666666677
891.68,172.9014857142858
894.092,187.8611904761906
896.503,190.4440476190477
898.912,176.22314285714296
901.319,162.91428571428582
903.724,156.1855238095239
906.128,153.5148571428572
908.53,157.9986666666668
910.931,181.59114285714298
913.329,174.53195238095248
915.726,183.0129523809525
918.122,184.65466666666677
920.516,186.93523809523822
922.908,180.18923809523818
925.298,158.6563095238096
927.687,134.1951238095239
930.074,122.33095714285722
932.459,103.44608571428577
934.843,100.30414285714292
937.225,106.85912380952385
939.605,79.92174761904766
941.984,95.49342857142862
944.361,85.71849047619051
946.736,66.02689047619052
949.11,70.46760000000006
951.482,96.5183952380953
953.853,92.41840952380959
956.222,106.35952857142863
958.589,111.53338095238102
960.954,106.70315238095246
963.318,108.8699333333334
965.68,132.27322666666674
968.041,109.48535047619052
970.4,85.93616095238099
972.757,53.86461904761906
975.113,23.938559047619066
977.467,15.920761904761946
979.819,39.43137523809526
982.17,39.42352190476193
984.519,47.18375523809526
986.866,55.80833333333337
989.212,48.91694285714291
991.556,76.84358095238102
993.899,115.20808095238102
996.24,129.3920095238096
998.579,161.53884285714298
1000.92,181.36391428571437
1003.25,168.81988571428582
1005.59,149.8596714285715
1007.92,147.6742000000001
1010.25,122.26399523809532
1012.58,119.24834285714293
1014.91,112.72333809523818
1017.24,143.16550476190486
1019.56,144.2892857142858
1021.88,165.19042857142864
1024.2,174.72622857142866
1026.52,149.70630000000008
1028.84,118.75031428571438
1031.16,131.81079523809535
1033.48,161.31617142857158
1035.79,204.07672857142873
1038.1,244.8064190476192
1040.41,271.8389047619049
1042.72,295.7934761904763
1045.03,297.1938095238097
1047.33,316.56347619047636
1049.64,292.61719047619056
1051.94,249.16428571428582
1054.24,217.20490476190488
1056.54,192.78661904761915
1058.84,164.86166666666682
1061.13,183.0964761904763
1063.43,188.6817142857144
1065.72,221.0934285714287
1068.01,229.28361904761917
1070.3,238.20457142857154
1072.59,227.28480952380966
1074.87,230.71447619047632
1077.16,209.2078571428573
1079.44,231.76471428571446
1081.72,245.19376190476208
1084.0,312.7808095238098
1086.28,388.2400476190479
1088.56,501.76161904761943
1090.84,617.9165714285718
1093.11,725.0380000000004
1095.38,729.8872380952384
1097.65,681.5116190476193
1099.92,577.8157619047622
1102.19,465.56109523809545
1104.46,395.7470952380954
1106.72,385.8497619047621
1108.98,393.58285714285745
1111.24,455.6602857142861
1113.5,499.5578571428575
1115.76,553.6560952380955
1118.02,591.5259047619052
1120.28,590.2621904761909
1122.53,578.4358571428575
1124.78,554.2370476190479
1127.03,488.56990476190504
1129.28,456.5767619047622
1131.53,402.3047619047621
1133.77,343.70590476190495
1136.02,300.06557142857156
1138.26,255.47823809523823
1140.5,217.41980952380968
1142.74,227.7943333333335
1144.98,237.5063333333335
1147.22,257.8407619047621
1149.45,277.03542857142867
1151.69,252.37533333333346
1153.92,204.14585714285724
1156.15,175.68000000000006
1158.38,143.07219047619054
1160.61,113.84585714285723
1162.83,131.14352380952388
1165.06,137.67859047619058
1167.28,121.73646190476195
1169.5,104.12631428571432
1171.72,87.56165238095244
1173.94,84.37566666666675
1176.16,102.80595238095245
1178.37,111.70891904761908
1180.58,86.7509904761905
1182.8,55.360223809523845
1185.01,51.91707428571433
1187.22,37.0401123809524
1189.42,43.10992000000004
1191.63,60.07845428571433
1193.84,65.8500485714286
1196.04,61.94812190476194
1198.24,68.13414095238097
1200.44,63.21724761904767
1202.64,51.768466666666704
1204.84,68.50173142857147
1207.03,60.083324285714305
1209.23,34.465262857142875
1211.42,42.2660947619048
1213.61,48.81892000000001
1215.8,27.123360000000023
1217.99,26.41718857142857
1220.18,11.604811904761913
1222.36,9.49543333333337
1224.55,41.51725476190478
1226.73,47.62252857142858
1228.91,39.95386190476192
1231.09,50.844280952381
1233.27,70.81766666666672
1235.44,79.73078571428577
1237.62,108.10745238095245
1239.79,97.42359047619051
1241.96,93.48873333333343
1244.13,122.01678095238105
1246.3,148.91298095238105
1248.47,139.70070952380962
1250.64,165.52325714285723
1252.8,139.90409523809532
1254.96,153.0339523809525
1257.13,182.24604761904772
1259.29,206.25485714285728
1261.44,221.01276190476204
1263.6,243.75809523809536
1265.76,236.4430952380954
1267.91,236.687142857143
1270.06,241.01414285714299
1272.22,234.85295238095253
1274.37,224.77528571428587
1276.51,223.25733333333346
1278.66,238.2044285714287
1280.81,235.61647619047633
1282.95,248.68438095238105
1285.09,230.50361904761914
1287.23,214.07447619047628
1289.37,198.96852380952393
1291.51,210.1862380952382
1293.65,210.8706666666668
1295.78,197.45085714285725
1297.92,169.11766666666676
1300.05,172.25266666666676
1302.18,147.37961904761914
1304.31,172.1654761904763
1306.44,196.8013809523811
1308.57,215.28766666666684
1310.69,252.2915714285716
1312.82,272.76580952380965
1314.94,277.4250000000002
1317.06,306.3170476190478
1319.18,309.823523809524
1321.3,339.516523809524
1323.41,365.39647619047645
1325.53,374.8444761904765
1327.64,430.5754761904765
1329.75,485.9708095238098
1331.87,510.9359047619051
1333.98,533.4711428571431
1336.08,518.3390000000003
1338.19,484.77795238095274
1340.3,461.4077142857145
1342.4,435.5143809523812
1344.5,402.81280952380973
1346.6,387.6367142857145
1348.7,365.7486666666669
1350.8,337.2919047619049
1352.9,327.93366666666685
1354.99,346.0075714285717
1357.09,363.94309523809545
1359.18,372.50266666666687
1361.27,346.6870000000002
1363.36,330.35323809523834
1365.45,324.21619047619066
1367.54,335.51452380952406
1369.62,349.0584285714288
1371.7,375.5148571428574
1373.79,405.97985714285744
1375.87,429.1681428571431
1377.95,439.2230952380955
1380.03,430.9548095238098
1382.1,409.36352380952405
1384.18,400.83047619047636
1386.25,383.9279047619049
1388.33,349.8467142857145
1390.4,338.2065714285716
1392.47,301.96019047619063
1394.54,264.8223809523811
1396.6,228.88871428571443
1398.67,215.30266666666682
1400.74,231.77852380952396
1402.8,276.3648095238097
1404.86,275.29966666666684
1406.92,275.34561904761915
1408.98,259.693523809524
1411.04,259.0103333333335
1413.09,257.2009523809526
1415.15,276.98076190476206
1417.2,274.4925714285716
1419.25,267.49861904761923
1421.3,281.18971428571444
1423.35,286.85161904761924
1425.4,281.6752380952383
1427.45,268.37528571428584
1429.49,267.1424761904764
1431.54,233.1676666666668
1433.58,232.1176666666668
1435.62,219.7069047619049
1437.66,210.65004761904774
1439.7,191.04233333333343
1441.74,221.74128571428585
1443.77,222.55647619047633
1445.81,243.20233333333348
1447.84,246.9646190476192
1449.87,236.4626666666668
1451.9,231.55361904761918
1453.93,234.66609523809535
1455.96,219.18104761904777
1457.98,218.67028571428585
1460.01,211.9432380952382
1462.03,231.3330000000002
1464.05,292.0777142857145
1466.07,347.0821428571431
1468.09,370.6319523809526
1470.11,380.34619047619066
1472.13,369.3673333333336
1474.14,365.6000952380955
1476.16,365.66328571428585
1478.17,346.79519047619067
1480.18,299.47152380952394
1482.19,244.73980952380964
1484.2,214.4092000000001
1486.21,167.38436666666675
1488.21,140.99787619047626
1490.22,137.67849047619058
1492.22,137.33002857142864
1494.22,119.0002095238096
1496.22,114.16476666666671
1498.22,95.72798571428578
1500.22,80.45123809523817
1502.22,95.81036666666672
1504.21,90.18545238095241
1506.21,70.29049047619051
1508.2,51.743823809523846
1510.19,73.73552857142862
1512.18,57.26474761904764
1514.17,58.52133333333336
1516.16,56.361719047619076
1518.14,47.451961904761944
1520.13,42.74374761904767
1522.11,61.6651523809524
1524.09,53.07260476190479
1526.07,45.060800000000036
1528.05,54.105319047619076
1530.03,47.58654761904764
1532.01,63.408819047619104
1533.98,75.857180952381
1535.96,93.8835571428572
1537.93,96.34459523809528
1539.9,88.049280952381
1541.87,84.5211476190477
1543.84,91.18828095238102
1545.81,87.95492380952388
1547.78,92.72544285714294
1549.74,114.40427619047628
1551.7,138.13380952380962
1553.67,155.96138095238103
1555.63,146.7435714285715
1557.59,141.14695238095248
1559.55,128.36180952380963
1561.5,146.86386666666678
1563.46,157.17662857142864
1565.41,142.44254285714294
1567.37,127.13765714285721
1569.32,128.8330857142858
1571.27,111.62395714285722
1573.22,118.5098095238096
1575.17,111.63343333333339
1577.11,108.47080000000008
1579.06,117.30766190476197
1581.0,129.61959047619058
1582.95,141.73976190476202
1584.89,144.1920000000001
1586.83,144.8810000000001
1588.77,151.42566666666676
1590.7,173.30209523809535
1592.64,180.0337142857144
1594.58,203.21561904761916
1596.51,215.84790476190489
1598.44,206.09723809523794
