Raman Shift,Processed Intensity
331.095,16.883834142857108
333.909,5.832847333333357
336.721,-1.6577543809523583
339.531,-6.311178666666673
342.339,-17.85128114285714
345.145,0.11802342857143255
347.949,-1.8856725714285911
350.751,-11.247681523809522
353.55,-18.684694857142865
356.348,2.4695285714285813
359.144,-24.831014285714303
361.937,-8.916252380952358
364.729,24.21954285714292
367.518,85.5364380952382
370.306,161.37742857142874
373.091,287.75425714285734
375.874,351.96600000000024
378.656,385.21857142857164
381.435,382.5294761904763
384.212,280.53666190476196
386.988,170.40384285714293
389.761,90.53457142857147
392.532,56.57190952380957
395.301,46.446742857142894
398.068,48.56761428571429
400.833,34.58247142857145
403.596,35.52193904761906
406.358,25.322885238095253
409.117,18.92360285714286
411.874,21.12099380952381
414.629,-1.143775238095232
417.382,-1.9282328571428473
420.133,-2.145736190476173
422.882,22.196167619047685
425.629,87.75816666666678
428.374,196.2496571428573
431.117,271.8095333333335
433.858,307.6731904761906
436.597,270.0292380952382
439.334,197.87633333333343
442.069,155.97676190476201
444.802,141.4742380952382
447.533,141.5608571428573
450.262,202.28709523809542
452.989,262.7034285714288
455.714,295.81366666666685
458.438,310.860361904762
461.159,244.51533809523815
463.878,159.0697238095239
466.595,150.48251904761918
469.31,175.0456666666668
472.024,174.4806857142858
474.735,208.93758095238104
477.444,183.13889047619057
480.152,166.28274285714298
482.857,184.997061904762
485.561,189.2428476190477
488.262,165.1717142857144
490.962,199.12628571428584
493.659,193.25885714285727
496.355,195.62638095238106
499.048,182.52438095238102
501.74,145.86733333333342
504.43,111.99814285714295
507.118,116.59361904761914
509.804,162.7109047619049
512.488,211.88385714285727
515.17,263.7890476190478
517.85,276.91219047619063
520.528,249.21542857142867
523.204,183.66100000000012
525.878,151.21083809523816
528.551,109.3028571428572
531.221,92.041580952381
533.89,67.10252380952384
536.556,51.68517619047621
539.221,51.46491428571434
541.883,76.16506190476197
544.544,93.07934285714292
547.203,112.59688095238101
549.86,100.91606666666671
552.515,68.0445571428572
555.168,84.46576190476199
557.819,120.56800476190486
560.469,154.9771142857144
563.116,195.74726190476198
565.761,189.02744761904768
568.405,161.87138095238103
571.047,138.80852380952388
573.687,155.12949523809536
576.324,160.03001428571434
578.96,139.8003190476191
581.594,133.53989047619058
584.227,118.30034285714292
586.857,107.37096666666676
589.485,125.99274285714291
592.112,113.45441904761908
594.737,75.28227142857149
597.359,77.19279047619054
599.98,102.56871428571439
602.599,153.9349523809525
605.216,195.05440952380962
607.831,178.35642857142867
610.445,171.74621904761915
613.056,142.22381904761914
615.666,145.83615238095248
618.274,142.6775190476191
620.88,129.1755714285715
623.484,93.42409047619057
626.086,139.706961904762
628.686,185.49838571428586
631.284,223.27188571428584
633.881,235.26276190476204
636.476,248.4681904761906
639.068,243.50371428571444
641.659,248.1274380952382
644.249,201.81184285714292
646.836,147.93387619047627
649.421,103.96507142857149
652.005,101.94843333333341
654.587,91.49812857142862
657.166,87.22812761904764
659.745,37.133265714285734
662.321,26.01782000000002
664.895,18.40008095238096
667.468,13.274340476190485
670.038,10.539650476190502
672.607,33.428296666666704
675.174,55.17253333333339
677.739,99.29043476190482
680.303,110.10918666666672
682.864,91.81330476190479
685.424,64.87304285714288
687.982,47.18728095238097
690.538,18.98834761904763
693.092,15.937323809523816
695.645,3.6950038095238087
698.195,-7.363172380952378
700.744,3.852617142857164
703.291,18.9561961904762
705.836,32.27578380952384
708.38,32.568365714285726
710.921,25.876737142857152
713.461,21.101023809523834
715.999,33.71296190476194
718.535,44.47011428571434
721.069,89.17793809523818
723.602,113.40388095238103
726.133,120.95368095238102
728.662,115.5379666666667
731.189,91.10563809523813
733.714,70.89133809523815
736.238,81.7016095238096
738.759,90.19979047619053
741.279,90.14488095238099
743.798,84.86743333333338
746.314,59.84099523809526
748.829,62.63468095238102
751.342,73.15093333333338
753.853,92.43476190476197
756.362,97.2938285714286
758.869,84.96428095238097
761.375,49.87291428571431
763.879,32.11345714285716
766.381,9.493714285714317
768.882,43.96462857142863
771.38,69.33454761904767
773.877,87.22134857142862
776.372,72.10026285714288
778.866,47.11329714285716
781.357,22.164475238095278
783.847,44.872392380952434
786.335,62.712667619047664
788.821,90.589800952381
791.306,95.50355238095244
793.789,95.73963809523815
796.27,106.96466666666674
798.749,117.36938095238102
801.227,120.81117619047627
803.702,148.00486666666677
806.176,161.09361904761914
808.649,178.93538095238105
811.119,187.38795238095247
813.588,181.30933333333343
816.055,181.4144285714287
818.521,184.65704761904772
820.984,176.085761904762
823.446,177.4161904761906
825.906,156.26835238095248
828.365,124.69132857142866
830.821,122.8768476190477
833.276,127.73157619047629
835.729,130.63799047619057
838.181,150.2643761904763
840.631,158.37411428571437
843.079,144.39795238095246
845.525,142.5758095238096
847.97,145.81403809523817
850.412,126.0670190476191
852.854,108.90814761904767
855.293,93.33956190476194
857.731,67.3159666666667
860.167,44.410900000000034
862.601,43.19773809523812
865.034,25.488314285714303
867.465,32.1421428571429
869.894,55.87566190476194
872.321,65.88166666666672
874.747,71.49580476190481
877.171,74.19667142857148
879.594,65.70079047619055
882.014,91.58219523809532
884.433,136.60515714285725
886.851,179.34360476190486
889.266,183.99015238095248
891.68,176.45214285714295
894.092,174.44609523809532
896.503,181.11728571428586
898.912,202.99228571428583
901.319,205.74014285714296
903.724,168.3630000000001
906.128,157.19657142857153
908.53,171.05261904761915
910.931,186.55252380952393
913.329,189.41314285714293
915.726,161.4460952380953
918.122,132.2727142857144
920.516,135.32385714285726
922.908,150.79209523809533
925.298,152.63195238095247
927.687,150.17895238095247
930.074,150.81574285714294
932.459,131.5920285714286
934.843,125.41486666666673
937.225,117.28575238095243
939.605,98.44475238095244
941.984,89.98900476190482
944.361,96.92000952380955
946.736,73.09667619047624
949.11,78.3300952380953
951.482,97.24054285714293
953.853,106.68683809523816
956.222,87.9084285714286
958.589,73.19225238095241
960.954,59.06329523809529
963.318,54.808190476190525
965.68,77.57069523809528
968.041,97.35190476190482
970.4,88.7240447619048
972.757,59.78309714285716
975.113,43.76782285714289
977.467,39.8694028571429
979.819,49.659584761904796
982.17,56.37711619047622
984.519,72.78405904761908
986.866,69.16689047619053
989.212,74.8114857142858
991.556,112.81349047619055
993.899,143.31606666666676
996.24,160.8906666666668
998.579,172.7280000000001
1000.92,167.35223809523816
1003.25,166.47743809523823
1005.59,149.72274761904768
1007.92,139.99278095238103
1010.25,125.04953809523816
1012.58,106.13106666666675
1014.91,113.95146190476203
1017.24,161.70115238095246
1019.56,200.332142857143
1021.88,204.27261904761914
1024.2,198.33228571428583
1026.52,193.17700000000013
1028.84,200.47338095238112
1031.16,218.74476190476204
1033.48,291.8953809523811
1035.79,300.5441904761907
1038.1,322.833285714286
1040.41,351.04785714285737
1042.72,373.28290476190494
1045.03,338.87090476190497
1047.33,341.2398571428573
1049.64,295.34190476190486
1051.94,238.55695238095254
1054.24,212.5512380952382
1056.54,195.18128571428582
1058.84,168.54133333333345
1061.13,202.48771428571445
1063.43,232.9723333333335
1065.72,242.9943333333335
1068.01,240.88666666666677
1070.3,234.029142857143
1072.59,235.42104761904776
1074.87,245.10919047619063
1077.16,256.997142857143
1079.44,289.0364761904764
1081.72,299.79809523809547
1084.0,357.18547619047644
1086.28,441.81733333333364
1088.56,544.788047619048
1090.84,668.9057619047624
1093.11,765.2173809523814
1095.38,760.769428571429
1097.65,686.7513333333336
1099.92,575.4006190476193
1102.19,477.8590952380955
1104.46,433.6970952380955
1106.72,406.34238095238123
1108.98,436.55580952380984
1111.24,461.62223809523834
1113.5,494.493285714286
1115.76,539.5011904761909
1118.02,599.0735238095242
1120.28,603.9711904761908
1122.53,620.7169047619051
1124.78,557.262285714286
1127.03,490.74923809523835
1129.28,445.8913333333336
1131.53,399.1161428571431
1133.77,381.8036666666669
1136.02,357.762523809524
1138.26,295.2773809523811
1140.5,273.9188095238097
1142.74,273.1146190476192
1144.98,269.72119047619066
1147.22,303.83290476190496
1149.45,297.44904761904775
1151.69,286.52090476190494
1153.92,267.4286190476192
1156.15,245.3618571428573
1158.38,209.5582380952382
1160.61,179.87414285714294
1162.83,166.64209523809535
1165.06,166.52798095238103
1167.28,152.81683333333342
1169.5,118.79379047619052
1171.72,94.69648095238102
1173.94,76.0480333333334
1176.16,99.99065238095247
1178.37,127.04756666666673
1180.58,133.12300000000005
1182.8,101.0259666666667
1185.01,89.18463809523813
1187.22,59.78899047619053
1189.42,64.17204285714291
1191.63,79.38111428571432
1193.84,92.55847142857148
1196.04,85.56110952380955
1198.24,76.10311428571433
1200.44,85.13643333333339
1202.64,76.08958571428576
1204.84,92.15299523809531
1207.03,95.89770476190479
1209.23,70.70475714285718
1211.42,47.05025009523812
1213.61,36.83874247619048
1215.8,3.546664952380967
1217.99,12.031315238095242
1220.18,1.8641193333333366
1222.36,8.759576000000019
1224.55,11.670247619047627
1226.73,27.215463047619075
1228.91,34.9669386666667
1231.09,63.63937390476195
1233.27,67.89970809523814
1235.44,86.93882952380957
1237.62,68.13813809523813
1239.79,63.73619047619052
1241.96,69.54308095238102
1244.13,96.84494285714294
1246.3,114.023461904762
1248.47,154.8886761904763
1250.64,162.10809523809533
1252.8,170.967761904762
1254.96,183.2304761904763
1257.13,195.6109523809525
1259.29,216.77704761904778
1261.44,236.30052380952395
1263.6,243.8490952380954
1265.76,247.94714285714304
1267.91,236.02447619047632
1270.06,232.65314285714297
1272.22,213.45323809523825
1274.37,198.9969047619049
1276.51,205.47552380952393
1278.66,218.9854285714287
1280.81,223.1942380952382
1282.95,241.1504761904763
1285.09,213.80738095238107
1287.23,214.73752380952394
1289.37,209.94200000000012
1291.51,210.0884285714287
1293.65,205.98757142857156
1295.78,203.54519047619058
1297.92,196.0481904761906
1300.05,200.40219047619058
1302.18,191.75133333333346
1304.31,195.3344761904763
1306.44,199.96257142857155
1308.57,206.30333333333348
1310.69,230.0726666666668
1312.82,231.84261904761917
1314.94,252.7572857142859
1317.06,285.9607619047621
1319.18,290.7400000000002
1321.3,315.7150000000002
1323.41,348.60147619047643
1325.53,362.68609523809545
1327.64,424.35104761904796
1329.75,488.9308095238098
1331.87,507.8554285714289
1333.98,509.6495714285718
1336.08,488.3621904761907
1338.19,442.18485714285737
1340.3,405.3093333333336
1342.4,382.8793333333336
1344.5,357.705904761905
1346.6,309.7426666666668
1348.7,266.1333333333335
1350.8,255.0219047619049
1352.9,246.88590476190492
1354.99,262.2500476190478
1357.09,284.7347142857144
1359.18,273.34104761904774
1361.27,271.07000000000016
1363.36,288.97028571428586
1365.45,285.04295238095256
1367.54,293.7651904761907
1369.62,330.0907619047621
1371.7,348.11571428571455
1373.79,393.5554285714288
1375.87,416.5060000000002
1377.95,420.06380952380977
1380.03,396.2298571428574
1382.1,376.67166666666685
1384.18,333.0090952380954
1386.25,312.5286190476192
1388.33,272.2314761904763
1390.4,244.69004761904776
1392.47,196.76233333333346
1394.54,175.16304761904772
1396.6,147.7502857142858
1398.67,136.81057142857154
1400.74,155.96380952380963
1402.8,169.63933333333344
1404.86,190.88519047619062
1406.92,220.17838095238105
1408.98,201.66238095238106
1411.04,172.71885714285725
1413.09,165.7290952380953
1415.15,150.36052380952393
1417.2,178.80380952380966
1419.25,201.29800000000012
1421.3,209.03404761904775
1423.35,214.15485714285725
1425.4,204.184761904762
1427.45,195.12404761904776
1429.49,206.87757142857154
1431.54,193.39828571428583
1433.58,192.01985714285723
1435.62,198.1232380952382
1437.66,175.66114285714295
1439.7,170.2049523809525
1441.74,181.99285714285725
1443.77,168.40595238095247
1445.81,180.3486666666668
1447.84,189.2497142857144
1449.87,184.1564761904763
1451.9,204.97361904761914
1453.93,220.5584285714287
1455.96,198.43452380952388
1457.98,189.41057142857153
1460.01,172.20090476190487
1462.03,177.70971428571443
1464.05,225.6033809523811
1466.07,267.64323809523825
1468.09,295.7336666666668
1470.11,310.1593809523811
1472.13,296.87238095238115
1474.14,269.3960000000002
1476.16,285.68195238095257
1478.17,275.1575714285716
1480.18,261.3936666666668
1482.19,231.62728571428582
1484.2,189.42881904761916
1486.21,126.22608095238101
1488.21,106.87511428571433
1490.22,104.32688095238102
1492.22,87.10407619047625
1494.22,85.91990000000007
1496.22,98.1061666666667
1498.22,72.18525714285718
1500.22,59.87013333333338
1502.22,72.77823619047622
1504.21,45.098476666666684
1506.21,25.591322380952395
1508.2,21.778747142857153
1510.19,16.135312857142875
1512.18,15.183143333333353
1514.17,24.111033809523825
1516.16,33.67914761904764
1518.14,35.314321190476214
1520.13,34.824345261904774
1522.11,25.159886333333333
1524.09,17.36686611904763
1526.07,11.634041761904777
1528.05,20.24545611904764
1530.03,26.437552047619057
1532.01,18.113417523809535
1533.98,36.27163809523813
1535.96,41.14855714285716
1537.93,44.647395238095264
1539.9,51.57626190476192
1541.87,44.79088095238098
1543.84,37.81367142857148
1545.81,75.11981428571433
1547.78,74.99348571428577
1549.74,99.10005714285721
1551.7,117.62914761904767
1553.67,117.05586666666674
1555.63,112.8074190476191
1557.59,121.1211333333334
1559.55,109.09128571428579
1561.5,122.71686666666673
1563.46,119.61650952380958
1565.41,108.02730476190482
1567.37,114.42444285714294
1569.32,123.2362095238096
1571.27,126.03322380952388
1573.22,130.86243809523816
1575.17,133.10438095238104
1577.11,138.28191428571438
1579.06,147.3947571428572
1581.0,123.25226666666673
1582.95,103.7107952380953
1584.89,89.62753333333342
1586.83,114.00219523809534
1588.77,150.8339238095239
1590.7,157.83720000000005
1592.64,150.96390476190487
1594.58,142.0470952380954
1596.51,157.5393095238099
1598.44,217.27388095238177
