Raman Shift,Processed Intensity
331.095,-14.783342380952279
333.909,-42.16863095238115
336.721,-52.224400952381146
339.531,-50.841239047619084
342.339,-40.220011428571446
345.145,-47.917622857142895
347.949,-31.70253142857144
350.751,-30.198475238095213
353.55,31.925598095238108
356.348,37.478869523809536
359.144,44.9389142857143
361.937,20.07119523809525
364.729,18.309571428571473
367.518,42.61395238095247
370.306,128.75506666666683
373.091,238.07733333333354
375.874,336.6409714285716
378.656,370.2700476190478
381.435,361.4090476190477
384.212,278.0284523809525
386.988,178.19504761904767
389.761,84.02541904761907
392.532,28.113661904761933
395.301,8.865166666666703
398.068,26.924728571428602
400.833,55.510338095238126
403.596,35.84138466666666
406.358,5.138861095238087
409.117,-15.041430190476195
411.874,-8.618432047619022
414.629,13.29991266666671
417.382,55.27372300000002
420.133,42.9596703809524
422.882,33.63490952380957
425.629,68.43464285714296
428.374,156.3528571428573
431.117,224.67006190476204
433.858,281.7630761904763
436.597,249.39096190476195
439.334,199.26601904761915
442.069,151.38703809523818
444.802,150.7539238095239
447.533,173.50991428571444
450.262,202.7516761904763
452.989,222.24347619047637
455.714,269.27390476190493
458.438,281.9414761904763
461.159,275.4883809523811
463.878,260.6334285714287
466.595,199.1438476190477
469.31,142.88250000000008
472.024,95.47460952380959
474.735,87.78352857142866
477.444,108.53082857142867
480.152,151.77112857142868
482.857,209.08342857142867
485.561,215.9992476190477
488.262,230.47914285714302
490.962,221.24576190476205
493.659,220.1646666666668
496.355,230.52996190476202
499.048,206.01712857142866
501.74,149.5874476190477
504.43,137.24953809523817
507.118,112.6314476190477
509.804,109.64674761904772
512.488,168.1613904761906
515.17,204.18414285714297
517.85,218.34326666666678
520.528,188.07555238095244
523.204,152.10386666666673
525.878,120.43688571428581
528.551,102.08281904761911
531.221,79.71625238095243
533.89,73.72647619047623
536.556,70.59729047619055
539.221,92.14560952380961
541.883,139.33121428571437
544.544,168.82755238095248
547.203,152.45099047619053
549.86,146.16069523809531
552.515,137.10558095238102
555.168,146.24417142857155
557.819,169.7252285714287
560.469,188.41089523809535
563.116,193.11609523809534
565.761,176.1311857142858
568.405,128.98416190476198
571.047,108.727061904762
573.687,114.31621904761911
576.324,135.32650952380962
578.96,149.8563714285715
581.594,136.0991047619048
584.227,128.62864761904768
586.857,122.87567619047627
589.485,114.0803476190477
592.112,129.95884761904767
594.737,96.98829523809528
597.359,71.36023809523817
599.98,92.93237142857151
602.599,128.1810761904763
605.216,129.01131428571435
607.831,136.4231714285715
610.445,117.98699523809529
613.056,101.8449190476191
615.666,80.71019523809528
618.274,71.24808095238099
620.88,49.93311904761907
623.484,40.14448095238099
626.086,36.87969523809528
628.686,60.993638095238154
631.284,96.62657142857151
633.881,149.53741904761915
636.476,153.19953809523815
639.068,153.0382476190477
641.659,142.52641904761913
644.249,99.32681428571433
646.836,70.62613809523813
649.421,82.08694761904765
652.005,47.56255714285719
654.587,68.47737047619054
657.166,83.73192285714288
659.745,57.7501647619048
662.321,41.33712000000004
664.895,73.20248857142863
667.468,66.43673238095244
670.038,96.84443714285719
672.607,101.99220952380956
675.174,96.30369047619052
677.739,78.44053333333338
680.303,91.6357666666667
682.864,54.78896190476194
685.424,82.22836666666674
687.982,107.66310476190482
690.538,111.5642571428572
693.092,105.640980952381
695.645,108.50712095238099
698.195,64.82438285714291
700.744,48.492680000000014
703.291,26.792688571428577
705.836,3.6719942857143053
708.38,35.64977809523814
710.921,41.292825714285726
713.461,42.59666666666671
715.999,48.176171428571465
718.535,72.07492380952388
721.069,119.86010476190486
723.602,176.19460000000007
726.133,167.55126666666675
728.662,140.97419047619053
731.189,124.69819047619058
733.714,115.48228571428581
736.238,135.51366666666678
738.759,141.3608571428572
741.279,150.6406380952382
743.798,131.0644952380953
746.314,118.01080000000007
748.829,123.52526666666675
751.342,132.415161904762
753.853,140.20236952380958
756.362,124.88520952380956
758.869,66.27141952380954
761.375,24.74040571428575
763.879,30.909934761904807
766.381,52.39772571428577
768.882,92.48844580952385
771.38,80.46688914285717
773.877,62.57017447619051
776.372,56.607305142857186
778.866,70.5300935238096
781.357,101.90963009523817
783.847,135.07865295238102
786.335,125.98967142857151
788.821,147.40431428571438
791.306,145.60838095238105
793.789,159.26876190476202
796.27,163.76671428571436
798.749,169.2930000000001
801.227,166.5627142857144
803.702,180.4334285714287
806.176,191.19138095238105
808.649,207.02776190476203
811.119,201.41985714285724
813.588,196.17842857142867
816.055,170.20909523809533
818.521,159.08471428571437
820.984,156.56804761904772
823.446,141.0413333333334
825.906,131.88747619047626
828.365,143.3459523809525
830.821,152.9894761904763
833.276,174.29614285714294
835.729,178.36271428571436
838.181,163.52438095238102
840.631,131.06914285714294
843.079,142.85575238095248
845.525,128.93377619047627
847.97,125.59101904761914
850.412,122.30581428571436
852.854,104.8421190476191
855.293,79.24989047619053
857.731,90.48364761904766
860.167,80.45056190476197
862.601,71.01021428571433
865.034,79.49815238095242
867.465,72.34550952380957
869.894,75.07845714285722
872.321,90.98517142857149
874.747,96.11597142857147
877.171,69.56882380952388
879.594,106.44137142857153
882.014,129.11700000000008
884.433,149.78885714285724
886.851,187.03085714285723
889.266,185.32214285714295
891.68,158.76090476190487
894.092,190.25428571428583
896.503,185.23338095238105
898.912,167.22485714285722
901.319,144.56457142857147
903.724,139.30314285714294
906.128,138.0625238095239
908.53,157.0829523809525
910.931,186.7484285714287
913.329,199.96614285714298
915.726,193.4529047619049
918.122,205.92589523809534
920.516,180.43549047619052
922.908,149.7461238095239
925.298,138.0032714285715
927.687,125.68574285714294
930.074,126.22434761904772
932.459,138.33594285714295
934.843,138.83255238095248
937.225,133.62165238095244
939.605,112.89581428571435
941.984,93.03861428571435
944.361,82.62370000000007
946.736,98.41508095238103
949.11,115.8435714285715
951.482,120.14946666666671
953.853,116.85874761904766
956.222,101.49723809523816
958.589,104.97196666666673
960.954,110.99886190476195
963.318,98.29412857142862
965.68,81.71663809523814
968.041,62.3158428571429
970.4,55.0934190476191
972.757,66.9558428571429
975.113,83.90451428571433
977.467,68.70278952380954
979.819,33.49487523809524
982.17,3.1868552380952497
984.519,13.779762857142893
986.866,32.274817142857195
989.212,75.6732133333334
991.556,102.7850371428572
993.899,126.1350095238096
996.24,157.34293333333346
998.579,190.50426666666675
1000.92,187.33376190476196
1003.25,164.8798095238096
1005.59,131.9518571428572
1007.92,114.02604761904769
1010.25,127.24549523809533
1012.58,128.56225714285722
1014.91,140.1190857142858
1017.24,125.77307619047627
1019.56,116.33318095238106
1021.88,139.56068571428585
1024.2,184.97892380952393
1026.52,211.20657142857158
1028.84,250.38585714285728
1031.16,244.23004761904772
1033.48,247.40476190476207
1035.79,261.861523809524
1038.1,297.74200000000025
1040.41,346.61704761904787
1042.72,404.6760000000003
1045.03,389.53638095238114
1047.33,336.6252857142859
1049.64,255.70357142857154
1051.94,207.48380952380967
1054.24,181.53628571428584
1056.54,203.47857142857154
1058.84,209.6422380952382
1061.13,207.88285714285726
1063.43,205.2943333333335
1065.72,229.11242857142872
1068.01,246.90738095238112
1070.3,247.24838095238113
1072.59,226.65757142857154
1074.87,223.22857142857157
1077.16,220.62595238095255
1079.44,243.22833333333352
1081.72,308.6058571428574
1084.0,348.08938095238125
1086.28,406.2008571428575
1088.56,512.2717619047622
1090.84,627.1571428571432
1093.11,688.1880000000003
1095.38,737.4578571428575
1097.65,684.3929047619051
1099.92,608.3721904761908
1102.19,511.0123809523812
1104.46,433.93061904761925
1106.72,360.12480952380974
1108.98,380.1165714285717
1111.24,426.95133333333365
1113.5,496.24604761904794
1115.76,542.998285714286
1118.02,565.1588095238099
1120.28,566.820666666667
1122.53,556.7911428571431
1124.78,524.306666666667
1127.03,473.1266666666669
1129.28,408.9159047619049
1131.53,349.86309523809547
1133.77,293.72766666666683
1136.02,269.55533333333346
1138.26,244.67800000000014
1140.5,227.95057142857158
1142.74,237.32357142857157
1144.98,238.7477142857144
1147.22,229.50671428571442
1149.45,260.64652380952396
1151.69,247.5464761904763
1153.92,215.10957142857154
1156.15,196.47690476190485
1158.38,171.59957142857155
1160.61,163.09490476190487
1162.83,175.53321428571437
1165.06,132.81767857142862
1167.28,91.8516428571429
1169.5,82.58610714285722
1171.72,100.11540476190484
1173.94,117.00955952380959
1176.16,145.8869952380953
1178.37,124.36542857142862
1180.58,96.25330952380959
1182.8,88.16880952380956
1185.01,74.8732904761905
1187.22,33.41355714285716
1189.42,11.598738095238105
1191.63,8.428114285714313
1193.84,37.42533333333339
1196.04,75.87556666666671
1198.24,93.96910000000003
1200.44,91.94390000000003
1202.64,77.70472380952384
1204.84,68.53733809523816
1207.03,82.0611952380953
1209.23,81.75250000000004
1211.42,56.46880952380955
1213.61,54.11526666666669
1215.8,34.59714761904764
1217.99,28.248390476190515
1220.18,55.1649047619048
1222.36,65.25218380952384
1224.55,52.653893333333365
1226.73,43.98997238095239
1228.91,14.68992095238097
1231.09,26.421600952381
1233.27,33.900298095238114
1235.44,44.84154571428574
1237.62,49.008580952380974
1239.79,57.11693333333338
1241.96,66.16827619047625
1244.13,92.54531904761909
1246.3,81.34485714285718
1248.47,74.71163333333337
1250.64,71.50453809523815
1252.8,87.29705238095244
1254.96,99.47220952380958
1257.13,100.31782380952386
1259.29,94.2646666666667
1261.44,95.69609047619053
1263.6,93.90005714285721
1265.76,93.35543809523814
1267.91,88.63599047619053
1270.06,70.36334285714292
1272.22,81.54029523809533
1274.37,109.2645333333334
1276.51,136.34867619047628
1278.66,145.12863333333337
1280.81,149.60736190476197
1282.95,127.54957142857151
1285.09,134.05371428571436
1287.23,131.74157142857152
1289.37,137.28295238095245
1291.51,143.58574285714292
1293.65,122.93867142857148
1295.78,77.67815238095241
1297.92,41.75987619047622
1300.05,28.234866666666715
1302.18,52.86765714285721
1304.31,90.04294285714292
1306.44,110.95432857142865
1308.57,126.98618095238102
1310.69,134.99859047619057
1312.82,159.99506666666676
1314.94,154.55001904761912
1317.06,145.80968571428582
1319.18,135.34894285714293
1321.3,170.07592380952394
1323.41,198.32691428571442
1325.53,250.4860095238097
1327.64,279.508904761905
1329.75,330.63657142857164
1331.87,355.96757142857166
1333.98,389.3144285714288
1336.08,372.68028571428596
1338.19,355.5441904761907
1340.3,333.14723809523827
1342.4,301.11119047619064
1344.5,244.62957142857158
1346.6,194.41938095238103
1348.7,154.1498571428573
1350.8,145.25225714285725
1352.9,137.20528095238103
1354.99,129.43980000000008
1357.09,139.91071904761915
1359.18,144.4298000000001
1361.27,157.71361428571439
1363.36,157.09763809523815
1365.45,164.86961904761918
1367.54,180.41214285714298
1369.62,219.6316190476192
1371.7,247.29171428571442
1373.79,275.72742857142873
1375.87,267.41657142857156
1377.95,270.5032857142859
1380.03,260.3219047619049
1382.1,260.8258571428573
1384.18,242.68290476190487
1386.25,215.65523809523822
1388.33,179.83914285714295
1390.4,150.80642857142868
1392.47,135.17643809523818
1394.54,117.04460476190481
1396.6,89.7444952380953
1398.67,84.79912857142862
1400.74,81.11327619047627
1402.8,100.92464285714294
1404.86,119.51819523809529
1406.92,93.65493333333339
1408.98,65.04835714285718
1411.04,72.79215238095243
1413.09,73.31380476190482
1415.15,82.75479523809528
1417.2,103.78009523809529
1419.25,86.57847142857148
1421.3,75.90994285714294
1423.35,91.20128095238101
1425.4,117.87878095238104
1427.45,115.51164761904766
1429.49,118.76417142857149
1431.54,83.44349047619053
1433.58,75.02305714285721
1435.62,88.97690000000009
1437.66,130.6353238095239
1439.7,129.94799047619054
1441.74,132.19759047619056
1443.77,128.9051000000001
1445.81,125.16241904761914
1447.84,139.7287666666668
1449.87,133.36260000000007
1451.9,118.48949523809532
1453.93,119.2010857142858
1455.96,138.58925714285724
1457.98,137.84105714285724
1460.01,169.7629142857144
1462.03,186.11314285714298
1464.05,219.41228571428587
1466.07,258.89461904761924
1468.09,278.27080952380965
1470.11,269.1564761904763
1472.13,262.02409523809536
1474.14,247.3464285714287
1476.16,219.16757142857153
1478.17,181.24576190476202
1480.18,157.10155238095248
1482.19,131.77892380952386
1484.2,104.36935714285721
1486.21,104.05999047619052
1488.21,87.32347142857147
1490.22,61.06108571428576
1492.22,66.17437142857146
1494.22,68.8979190476191
1496.22,70.46657142857148
1498.22,88.591320952381
1500.22,72.03089952380954
1502.22,41.63930380952384
1504.21,29.93723857142861
1506.21,45.350299047619096
1508.2,58.16129000000005
1510.19,82.03401142857147
1512.18,77.77520476190479
1514.17,54.477452380952414
1516.16,43.4238666666667
1518.14,45.89770476190479
1520.13,42.89654952380955
1522.11,33.180023333333345
1524.09,33.22208952380956
1526.07,55.163590952381
1528.05,53.52635619047622
1530.03,49.832337619047635
1532.01,58.69886857142859
1533.98,35.74342380952385
1535.96,48.5358714285715
1537.93,87.36067142857148
1539.9,92.93096666666672
1541.87,111.055161904762
1543.84,145.256361904762
1545.81,140.1526190476191
1547.78,135.60042857142864
1549.74,119.78938095238104
1551.7,128.528761904762
1553.67,153.6276190476192
1555.63,191.65738095238106
1557.59,196.37985714285725
1559.55,206.4140000000001
1561.5,200.7597142857144
1563.46,202.89352380952388
1565.41,180.52985714285722
1567.37,160.00223809523817
1569.32,138.69242857142868
1571.27,152.17204761904776
1573.22,180.20380952380964
1575.17,185.93142857142865
1577.11,164.02242857142866
1579.06,166.85831428571439
1581.0,147.8211476190477
1582.95,149.19743809523823
1584.89,172.27394761904773
1586.83,177.43286666666677
1588.77,161.53276666666676
1590.7,174.76521904761915
1592.64,166.65523809523822
1594.58,183.53761904761913
1596.51,196.4374761904763
1598.44,193.1894761904764
