Raman Shift,Processed Intensity
331.095,12.735257142857144
333.909,-46.457383333333496
336.721,-59.41166904761918
339.531,-43.18893333333334
342.339,-9.70855238095238
345.145,-3.579131428571438
347.949,6.8084471428571405
350.751,-15.74362571428573
353.55,-14.716367142857164
356.348,-44.445360000000015
359.144,-33.549361428571416
361.937,3.97459523809529
364.729,62.84599428571436
367.518,115.02473714285728
370.306,216.23530476190496
373.091,297.25192380952404
375.874,389.27995238095264
378.656,445.28821904761924
381.435,389.866980952381
384.212,279.3227238095239
386.988,184.01146466666674
389.761,75.95780538095244
392.532,57.52174219047625
395.301,52.25490033333335
398.068,50.568426000000045
400.833,59.494003000000035
403.596,56.01699704761906
406.358,41.31502400000004
409.117,39.66229947619048
411.874,14.286914190476223
414.629,41.18026671428575
417.382,60.47778752380957
420.133,64.98288042857149
422.882,97.59545114285723
425.629,142.26397142857155
428.374,217.7000619047621
431.117,286.56884761904774
433.858,333.58390476190493
436.597,331.17404761904777
439.334,312.91204761904777
442.069,255.2757142857144
444.802,231.36271428571442
447.533,199.5100952380954
450.262,207.8170476190478
452.989,235.76447619047636
455.714,284.11961904761915
458.438,276.2692857142859
461.159,265.41028571428586
463.878,242.45424761904775
466.595,175.78931904761916
469.31,173.42325714285727
472.024,178.26844285714296
474.735,170.90478095238103
477.444,167.7696523809525
480.152,170.299961904762
482.857,156.36223809523824
485.561,189.39423809523825
488.262,213.26247619047635
490.962,238.45247619047635
493.659,258.16438095238107
496.355,258.8840000000001
499.048,222.43090476190486
501.74,187.76685714285725
504.43,179.80657142857154
507.118,193.60719047619062
509.804,193.22580952380963
512.488,230.67214285714297
515.17,236.57480952380968
517.85,244.75257142857157
520.528,225.45257142857156
523.204,214.0172380952382
525.878,174.8838666666668
528.551,154.299461904762
531.221,132.60601904761913
533.89,128.71663333333342
536.556,128.4010666666668
539.221,135.00046190476198
541.883,147.3792952380953
544.544,129.2595714285715
547.203,118.83885714285724
549.86,130.50485714285725
552.515,142.02614285714293
555.168,143.8850000000001
557.819,161.7062380952382
560.469,182.4004761904763
563.116,192.21119047619058
565.761,186.7149523809525
568.405,164.48800000000008
571.047,143.86800000000008
573.687,157.09695238095253
576.324,185.08338666666677
578.96,154.402300952381
581.594,123.24750666666671
584.227,88.28828952380955
586.857,74.19398285714294
589.485,106.15739619047628
592.112,135.46600571428579
594.737,111.45473809523814
597.359,100.69649523809528
599.98,75.62054285714291
602.599,95.75148571428579
605.216,111.99480476190482
607.831,93.25521428571432
610.445,68.7707285714286
613.056,45.01722380952383
615.666,25.041619047619093
618.274,36.985809523809564
620.88,73.75350000000005
623.484,78.72421904761909
626.086,93.6582190476191
628.686,107.26793333333342
631.284,135.50365714285724
633.881,148.55331904761914
636.476,160.27158095238104
639.068,156.36990476190485
641.659,141.65490476190485
644.249,120.55203809523817
646.836,100.2959190476191
649.421,84.02557619047622
652.005,67.59437619047624
654.587,74.23639523809528
657.166,86.80464285714291
659.745,99.96154761904768
662.321,94.65502857142862
664.895,91.30906285714289
667.468,56.109362857142884
670.038,60.575106666666734
672.607,69.89163238095244
675.174,103.86344000000008
677.739,140.29506285714294
680.303,152.70518666666672
682.864,101.46959047619052
685.424,89.58323333333338
687.982,57.659747619047664
690.538,56.02722857142862
693.092,58.775776190476215
695.645,66.9478685714286
698.195,46.63362571428573
700.744,37.494675238095255
703.291,21.90700761904763
705.836,12.341970476190484
708.38,19.27102095238098
710.921,12.118144761904757
713.461,16.974252380952407
715.999,31.834933333333368
718.535,63.98189523809532
721.069,101.79233809523816
723.602,146.26242857142864
726.133,141.2458095238096
728.662,154.8822380952382
731.189,138.45428571428582
733.714,157.91147619047632
736.238,156.06071428571437
738.759,157.61325714285724
741.279,132.47151904761913
743.798,135.39534285714294
746.314,112.191961904762
748.829,112.47834761904768
751.342,113.68138095238103
753.853,115.08470000000005
756.362,91.73457619047625
758.869,102.24855714285721
761.375,109.2444095238096
763.879,97.05426666666672
766.381,105.77251428571434
768.882,115.87429523809531
771.38,118.02536190476197
773.877,115.55817619047627
776.372,113.90102857142861
778.866,103.24365238095244
781.357,76.77655238095244
783.847,96.78501428571435
786.335,88.36423333333337
788.821,87.51417142857149
791.306,101.2827476190477
793.789,123.24119047619054
796.27,103.81850952380958
798.749,111.44355238095244
801.227,114.35488571428581
803.702,133.69594285714297
806.176,163.41997142857153
808.649,177.2894000000001
811.119,174.16219047619057
813.588,169.94414285714296
816.055,180.25495238095246
818.521,162.66738095238105
820.984,161.5634285714287
823.446,157.75380952380962
825.906,161.9539523809525
828.365,163.4031904761906
830.821,193.1507142857144
833.276,181.57909523809533
835.729,186.40380952380963
838.181,176.67423809523817
840.631,141.82028571428577
843.079,132.60559047619057
845.525,123.46059047619053
847.97,119.19654476190483
850.412,96.67208761904764
852.854,67.4130704761905
855.293,42.61167428571432
857.731,50.7460847619048
860.167,57.4373733333334
862.601,77.21115904761908
865.034,85.45039523809528
867.465,63.204640476190505
869.894,63.570976190476244
872.321,79.59915952380959
874.747,85.95810000000004
877.171,96.45895952380963
879.594,147.9612523809525
882.014,151.80020952380963
884.433,176.5489142857144
886.851,196.78086666666678
889.266,197.59357142857158
891.68,215.3219047619049
894.092,241.8252380952382
896.503,230.62928571428583
898.912,227.11671428571438
901.319,187.57519047619056
903.724,162.48319047619057
906.128,178.88976190476203
908.53,165.46361904761915
910.931,158.82561904761914
913.329,164.7395238095239
915.726,134.1592857142858
918.122,126.27728571428582
920.516,163.4761238095239
922.908,149.61463809523818
925.298,121.50407142857149
927.687,110.4795714285715
930.074,127.2090904761906
932.459,161.1231523809525
934.843,183.0805095238096
937.225,152.36828095238099
939.605,89.22606666666671
941.984,63.79818571428577
944.361,70.03829047619054
946.736,84.18609523809529
949.11,86.480980952381
951.482,79.35286190476195
953.853,68.85060476190482
956.222,88.02307142857151
958.589,104.3475714285715
960.954,127.11100000000008
963.318,137.40990000000008
965.68,153.4358190476191
968.041,129.9991190476191
970.4,113.33883047619052
972.757,70.31291857142861
975.113,42.35089904761908
977.467,35.21557190476196
979.819,65.3839371428572
982.17,117.5709900000001
984.519,172.39640666666673
986.866,172.67035238095247
989.212,183.9169523809525
991.556,185.4702380952382
993.899,207.09247619047636
996.24,254.0700000000002
998.579,291.117142857143
1000.92,294.32971428571443
1003.25,284.8028095238097
1005.59,250.20376190476205
1007.92,221.008761904762
1010.25,206.88457142857152
1012.58,189.30738095238107
1014.91,186.75371428571438
1017.24,182.6042380952382
1019.56,176.04938095238106
1021.88,190.13704761904776
1024.2,213.48561904761917
1026.52,237.71433333333346
1028.84,243.29933333333346
1031.16,242.76390476190488
1033.48,228.72661904761918
1035.79,232.66395238095254
1038.1,253.62261904761922
1040.41,278.98366666666686
1042.72,294.55600000000015
1045.03,294.1964285714287
1047.33,258.14252380952394
1049.64,244.29861904761918
1051.94,223.9496190476192
1054.24,200.95247619047632
1056.54,203.35390476190486
1058.84,196.48704761904773
1061.13,189.11300000000014
1063.43,218.08814285714297
1065.72,230.79276190476205
1068.01,239.22633333333349
1070.3,244.15028571428587
1072.59,235.61109523809537
1074.87,234.75080952380966
1077.16,222.09257142857155
1079.44,250.11185714285733
1081.72,284.283904761905
1084.0,351.3225714285717
1086.28,435.70266666666697
1088.56,545.5187142857146
1090.84,649.5794761904765
1093.11,696.5508095238098
1095.38,699.7650952380956
1097.65,631.1263333333336
1099.92,554.4429523809526
1102.19,478.90442857142887
1104.46,415.3668095238097
1106.72,385.3531428571431
1108.98,396.2435238095241
1111.24,422.17985714285743
1113.5,486.78004761904793
1115.76,529.2811904761908
1118.02,530.5396666666669
1120.28,544.1734761904764
1122.53,518.753047619048
1124.78,480.3251428571431
1127.03,434.98376190476216
1129.28,394.0138571428573
1131.53,351.6528095238097
1133.77,298.3752857142859
1136.02,267.5135714285716
1138.26,236.01938095238108
1140.5,227.22490476190492
1142.74,251.17700000000016
1144.98,242.58904761904773
1147.22,227.7457142857144
1149.45,245.83671428571444
1151.69,241.19428571428583
1153.92,238.10316190476203
1156.15,223.3242476190477
1158.38,150.8566714285715
1160.61,102.74734285714293
1162.83,110.85250666666674
1165.06,92.07590904761908
1167.28,74.55971809523814
1169.5,68.30301952380957
1171.72,73.30509428571435
1173.94,85.46990904761913
1176.16,127.08229333333338
1178.37,105.09393190476193
1180.58,65.7421447619048
1182.8,50.88340142857146
1185.01,38.707597142857175
1187.22,25.690260476190502
1189.42,30.78326285714287
1191.63,24.985985714285746
1193.84,39.67899047619052
1196.04,77.19519047619053
1198.24,97.77220476190482
1200.44,93.26684761904764
1202.64,69.1073904761905
1204.84,40.7221904761905
1207.03,18.254061904761926
1209.23,27.27434095238098
1211.42,29.97342666666668
1213.61,32.684734285714306
1215.8,35.646420952380964
1217.99,31.953939047619066
1220.18,26.75038380952384
1222.36,52.940860000000036
1224.55,47.38292095238098
1226.73,37.12470190476192
1228.91,21.023884761904768
1231.09,12.84309809523812
1233.27,35.1544752380953
1235.44,74.91128761904767
1237.62,97.97148761904769
1239.79,120.86012857142865
1241.96,118.10190000000006
1244.13,113.60262857142862
1246.3,114.12543809523815
1248.47,89.38589523809527
1250.64,69.48046666666671
1252.8,60.26787142857147
1254.96,68.84444285714292
1257.13,84.59254761904766
1259.29,81.51366666666672
1261.44,91.41896666666673
1263.6,94.26212380952386
1265.76,87.66366666666671
1267.91,97.57740952380956
1270.06,69.10018333333335
1272.22,48.13801904761911
1274.37,66.93105000000006
1276.51,93.90887619047626
1278.66,112.78748809523816
1280.81,132.28243333333342
1282.95,106.10960476190482
1285.09,102.36542857142864
1287.23,106.90891904761914
1289.37,118.40760000000009
1291.51,150.67274761904773
1293.65,159.6101476190477
1295.78,128.22130000000004
1297.92,99.6503047619048
1300.05,74.75584285714291
1302.18,79.77696190476199
1304.31,116.90561428571436
1306.44,130.47629047619054
1308.57,119.68062857142863
1310.69,128.32966666666675
1312.82,137.47195238095247
1314.94,164.4897142857144
1317.06,182.8127142857144
1319.18,201.82271428571443
1321.3,228.80661904761922
1323.41,253.33742857142875
1325.53,287.3680952380954
1327.64,325.04266666666683
1329.75,358.74338095238113
1331.87,361.7089523809526
1333.98,377.17861904761924
1336.08,377.15361904761926
1338.19,354.634523809524
1340.3,352.05066666666687
1342.4,320.8796190476192
1344.5,260.5032380952382
1346.6,212.44585714285722
1348.7,195.85133333333346
1350.8,179.10142857142873
1352.9,189.24457142857153
1354.99,197.61509523809536
1357.09,204.4039047619049
1359.18,215.08776190476206
1361.27,234.5248095238097
1363.36,248.62047619047632
1365.45,246.42309523809539
1367.54,267.3142380952383
1369.62,272.05619047619064
1371.7,294.0784761904764
1373.79,322.333904761905
1375.87,323.39438095238114
1377.95,335.8318095238097
1380.03,339.50366666666685
1382.1,313.60109523809547
1384.18,287.83900000000017
1386.25,272.55100000000016
1388.33,237.45171428571444
1390.4,231.2558761904763
1392.47,192.72563809523817
1394.54,155.337561904762
1396.6,137.80631428571436
1398.67,166.1798285714287
1400.74,160.26750000000007
1402.8,187.35555238095253
1404.86,166.2057571428572
1406.92,154.77105714285727
1408.98,157.33700476190486
1411.04,177.8088857142858
1413.09,156.8529523809525
1415.15,148.66000000000008
1417.2,125.61066666666675
1419.25,140.03880952380965
1421.3,156.94404761904772
1423.35,173.61219047619056
1425.4,174.28095238095247
1427.45,147.47442857142866
1429.49,141.85885714285723
1431.54,135.10090476190484
1433.58,133.00976190476197
1435.62,129.39447619047624
1437.66,128.87409523809532
1439.7,151.21033333333344
1441.74,183.8312380952382
1443.77,180.4510476190477
1445.81,162.21195238095243
1447.84,131.58966666666674
1449.87,128.82185714285725
1451.9,162.52714285714296
1453.93,185.80047619047627
1455.96,183.45066666666673
1457.98,163.33419047619057
1460.01,167.06971428571444
1462.03,186.03709523809536
1464.05,214.99795238095254
1466.07,240.4753809523811
1468.09,244.94476190476206
1470.11,256.0243809523811
1472.13,256.90414285714303
1474.14,244.58271428571442
1476.16,217.20247619047632
1478.17,183.3812857142858
1480.18,154.1662380952382
1482.19,135.93695238095245
1484.2,116.45457142857151
1486.21,123.52749047619052
1488.21,93.6784547619048
1490.22,82.6205190476191
1492.22,75.8765166666667
1494.22,79.15944761904767
1496.22,81.23019761904766
1498.22,79.13515714285715
1500.22,45.39675523809526
1502.22,20.632733809523817
1504.21,17.984686666666708
1506.21,44.87983761904766
1508.2,59.554969523809554
1510.19,53.34207142857144
1512.18,43.00169904761905
1514.17,10.246799047619053
1516.16,-1.44774285714285
1518.14,0.15485571428571676
1520.13,2.4342552380952416
1522.11,2.341578095238108
1524.09,15.923197142857159
1526.07,25.606480476190498
1528.05,34.771207619047644
1530.03,49.84478571428575
1532.01,46.11178571428574
1533.98,50.85685714285719
1535.96,62.03127142857147
1537.93,64.39587619047623
1539.9,82.37831428571434
1541.87,85.45368571428577
1543.84,92.04955714285721
1545.81,87.40314761904764
1547.78,85.94194285714292
1549.74,84.99870000000006
1551.7,95.47702857142862
1553.67,103.94770000000007
1555.63,122.79067619047625
1557.59,98.48132380952386
1559.55,101.73321904761912
1561.5,126.59341904761914
1563.46,142.48940000000007
1565.41,149.80159047619057
1567.37,154.76723809523818
1569.32,133.1952857142858
1571.27,142.65671428571437
1573.22,157.8647142857144
1575.17,168.43819047619058
1577.11,162.94761904761916
1579.06,164.3450476190477
1581.0,148.15366666666674
1582.95,155.89695238095246
1584.89,142.7645238095239
1586.83,155.66100000000012
1588.77,153.1093333333334
1590.7,140.77614285714296
1592.64,154.61304761904773
1594.58,186.26280952380964
1596.51,210.86766666666676
1598.44,211.7604523809524
