Raman Shift,Processed Intensity
331.095,4.8882611904761255
333.909,-24.276720952380984
336.721,-33.00339952380952
339.531,-29.019416190476207
342.339,-23.934200952380955
345.145,-15.975085714285731
347.949,-26.913814285714317
350.751,-29.043509523809522
353.55,-23.416804761904768
356.348,-12.417204761904754
359.144,-0.09249047619047301
361.937,8.368966666666688
364.729,23.876661904761985
367.518,98.341742857143
370.306,210.82098571428594
373.091,369.08760000000035
375.874,491.9165142857146
378.656,518.8944285714288
381.435,439.13419047619067
384.212,307.22571428571445
386.988,211.38089523809535
389.761,152.47983809523816
392.532,122.88033809523816
395.301,81.56129761904764
398.068,36.64623142857145
400.833,10.402719523809543
403.596,2.9099009523809523
406.358,-6.037381428571415
409.117,21.357148571428603
411.874,33.5581028571429
414.629,58.93619809523814
417.382,64.53020952380956
420.133,83.42770000000007
422.882,106.7652000000001
425.629,168.15659523809538
428.374,247.88378571428586
431.117,319.99153333333345
433.858,342.14476190476205
436.597,355.1040952380954
439.334,305.9647142857145
442.069,258.9179047619049
444.802,231.0133333333335
447.533,234.58680952380968
450.262,240.54604761904776
452.989,276.9902380952382
455.714,305.0190000000002
458.438,305.3038571428573
461.159,253.04114285714297
463.878,209.09404761904773
466.595,179.1356666666668
469.31,184.36357142857156
472.024,221.49957142857158
474.735,212.36052380952387
477.444,203.57385714285726
480.152,199.19533333333348
482.857,214.37638095238106
485.561,206.88752380952394
488.262,239.30966666666683
490.962,231.41323809523823
493.659,231.54147619047632
496.355,221.22702857142866
499.048,182.38413333333338
501.74,113.30811428571435
504.43,97.19903809523815
507.118,103.63761904761914
509.804,126.10966666666678
512.488,200.00570476190492
515.17,236.19229523809537
517.85,226.25009523809535
520.528,206.04528571428577
523.204,164.53942857142863
525.878,149.97925714285725
528.551,148.85023333333342
531.221,134.16065714285722
533.89,117.30029047619054
536.556,123.08641904761913
539.221,122.19404285714295
541.883,157.5356380952382
544.544,165.26147619047626
547.203,148.9025714285715
549.86,171.46604761904777
552.515,197.57738095238108
555.168,206.95795238095252
557.819,228.6135714285716
560.469,225.35966666666678
563.116,181.67809523809535
565.761,179.09752380952392
568.405,195.09933333333345
571.047,179.9265000000001
573.687,174.15438095238102
576.324,163.35871904761913
578.96,124.68571904761913
581.594,108.32903333333343
584.227,149.95853809523817
586.857,148.8149333333334
589.485,150.47199523809533
592.112,149.3128190476191
594.737,129.4819428571429
597.359,98.21887619047627
599.98,98.76282857142864
602.599,102.40032380952388
605.216,101.79857619047625
607.831,97.71970952380957
610.445,104.73541428571433
613.056,87.17846190476196
615.666,78.90524761904769
618.274,93.77236666666671
620.88,96.11210000000005
623.484,98.35168571428578
626.086,101.39447142857149
628.686,128.42895238095247
631.284,148.11980952380964
633.881,177.46533333333346
636.476,183.17738095238101
639.068,181.11088285714294
641.659,122.31077095238102
644.249,115.72665619047625
646.836,70.16510523809526
649.421,49.52808000000003
652.005,42.7647185714286
654.587,49.58643047619049
657.166,34.561414285714335
659.745,67.49610476190479
662.321,42.625333333333366
664.895,63.183821904761956
667.468,54.69214571428573
670.038,61.28992476190483
672.607,76.59273047619054
675.174,117.69226285714294
677.739,113.53768380952387
680.303,135.411140952381
682.864,85.26168095238098
685.424,81.8000571428572
687.982,59.45133333333337
690.538,83.30698095238101
693.092,88.07810000000005
695.645,94.99919523809528
698.195,79.68579523809527
700.744,60.324740476190485
703.291,32.57929047619051
705.836,41.112445238095276
708.38,57.873233333333374
710.921,45.42955476190479
713.461,60.778114285714324
715.999,51.534423809523844
718.535,62.02860952380959
721.069,98.35226190476199
723.602,132.45471428571435
726.133,126.33263333333343
728.662,140.03060952380957
731.189,128.6884571428572
733.714,106.68405238095245
736.238,103.87100952380959
738.759,120.3420333333334
741.279,123.42721428571436
743.798,135.8857476190477
746.314,136.3816333333334
748.829,122.0548380952382
751.342,141.18815714285725
753.853,141.11247619047626
756.362,125.58706190476197
758.869,100.27636190476194
761.375,72.74945714285718
763.879,59.43278571428577
766.381,78.08600476190479
768.882,56.04038095238098
771.38,46.34161904761907
773.877,33.55934285714288
776.372,29.120495238095273
778.866,58.9757190476191
781.357,59.93328095238097
783.847,51.89667142857145
786.335,39.10277142857146
788.821,46.40783333333339
791.306,77.23950000000008
793.789,117.12062857142864
796.27,111.24130476190481
798.749,112.36293809523814
801.227,99.62811904761912
803.702,116.98907142857153
806.176,150.44571904761912
808.649,159.0458761904763
811.119,147.07542857142863
813.588,142.10619047619053
816.055,137.13843809523817
818.521,124.12504285714293
820.984,94.73343333333338
823.446,90.4882714285715
825.906,73.10477142857148
828.365,85.29810000000009
830.821,130.92646666666676
833.276,132.99116190476198
835.729,106.44588571428578
838.181,123.0060571428572
840.631,100.19714285714291
843.079,97.496761904762
845.525,114.43025714285719
847.97,108.1899571428572
850.412,92.72998571428577
852.854,77.48060476190479
855.293,72.49136190476194
857.731,75.28818914285716
860.167,63.110987714285734
862.601,55.77157066666668
865.034,41.84342371428572
867.465,10.662118285714318
869.894,18.182044857142884
872.321,44.78676533333338
874.747,65.52603809523815
877.171,79.44981428571434
879.594,94.27484285714291
882.014,94.00348571428576
884.433,96.63812380952389
886.851,119.6102476190477
889.266,140.68406666666675
891.68,171.2904285714287
894.092,202.76547619047628
896.503,193.92114285714297
898.912,179.2361904761906
901.319,172.47509523809535
903.724,161.49752380952393
906.128,175.40129523809532
908.53,162.37953333333337
910.931,134.387161904762
913.329,118.3315714285715
915.726,112.69115238095246
918.122,107.94470476190483
920.516,93.38063333333336
922.908,76.5725714285715
925.298,73.95168095238101
927.687,90.90114285714294
930.074,119.70922380952389
932.459,144.99703809523817
934.843,136.14803809523818
937.225,109.97387142857146
939.605,80.61965714285718
941.984,46.65871904761907
944.361,33.61720476190479
946.736,35.49679523809527
949.11,49.20442000000003
951.482,42.40853190476193
953.853,48.34904571428573
956.222,25.40859523809525
958.589,30.68419904761908
960.954,33.462995238095274
963.318,55.270288571428615
965.68,61.44082238095242
968.041,81.54732000000004
970.4,62.448161904761946
972.757,65.90651904761908
975.113,60.113790476190516
977.467,63.690052380952416
979.819,50.2553047619048
982.17,60.61967142857148
984.519,72.5461857142858
986.866,113.1307380952382
989.212,175.51649047619063
991.556,211.03750476190487
993.899,214.26576190476203
996.24,238.01090476190492
998.579,257.32123809523824
1000.92,254.72076190476204
1003.25,243.7809047619049
1005.59,186.02585714285723
1007.92,132.12242857142866
1010.25,128.26109523809532
1012.58,143.87009523809533
1014.91,162.4735238095239
1017.24,164.3090952380953
1019.56,148.3768095238096
1021.88,146.9620000000001
1024.2,153.6359523809525
1026.52,169.3981904761906
1028.84,192.7724285714287
1031.16,186.75785714285726
1033.48,192.0686666666668
1035.79,199.3706190476192
1038.1,185.66342857142865
1040.41,177.94652380952394
1042.72,171.69547619047628
1045.03,170.671142857143
1047.33,185.25390476190486
1049.64,193.87161904761916
1051.94,203.95223809523822
1054.24,188.87590476190485
1056.54,175.54680952380963
1058.84,162.91585714285722
1061.13,151.02990476190487
1063.43,155.12638095238106
1065.72,188.06152380952395
1068.01,202.45314285714298
1070.3,199.82423809523817
1072.59,202.07833333333343
1074.87,209.16709523809536
1077.16,210.23223809523824
1079.44,230.17747619047637
1081.72,280.28714285714307
1084.0,317.4177142857145
1086.28,418.71071428571463
1088.56,532.2603333333337
1090.84,646.7322380952386
1093.11,720.6013333333337
1095.38,714.9140952380956
1097.65,643.4791428571432
1099.92,552.7237142857147
1102.19,469.4561904761907
1104.46,416.1040952380955
1106.72,411.0948095238098
1108.98,402.3320476190479
1111.24,441.1477142857146
1113.5,483.30295238095266
1115.76,527.3202857142861
1118.02,548.8650952380956
1120.28,560.650904761905
1122.53,530.2004285714288
1124.78,506.17909523809556
1127.03,437.87166666666684
1129.28,376.27704761904783
1131.53,352.8702857142859
1133.77,284.9839523809525
1136.02,245.7596666666668
1138.26,220.72038095238105
1140.5,176.00804761904777
1142.74,187.431142857143
1144.98,215.13166666666677
1147.22,207.68038095238106
1149.45,220.36190476190484
1151.69,204.31833333333344
1153.92,189.07280000000011
1156.15,178.2434476190477
1158.38,134.97260476190482
1160.61,101.02154285714292
1162.83,90.10385238095245
1165.06,83.21890476190482
1167.28,78.65179523809527
1169.5,70.54494285714287
1171.72,70.32634285714292
1173.94,78.32895714285722
1176.16,111.17154761904767
1178.37,100.52040000000001
1180.58,68.51806190476192
1182.8,43.83096390476193
1185.01,32.17314795238097
1187.22,14.211197333333349
1189.42,29.46885442857144
1191.63,21.517490666666696
1193.84,37.69044414285718
1196.04,70.27345295238099
1198.24,68.40947238095241
1200.44,72.00326790476196
1202.64,67.15028385714287
1204.84,50.94588961904765
1207.03,31.247400904761914
1209.23,17.388282952380962
1211.42,19.987973857142904
1213.61,58.665416476190515
1215.8,73.65901952380958
1217.99,77.34989809523812
1220.18,71.16685714285717
1222.36,48.01487619047623
1224.55,43.84679523809527
1226.73,59.18642857142862
1228.91,59.46263333333336
1231.09,59.62801904761909
1233.27,60.49237619047623
1235.44,72.48456190476196
1237.62,81.36670476190483
1239.79,114.90084285714293
1241.96,113.65882380952388
1244.13,118.02188571428579
1246.3,106.56177619047625
1248.47,113.46930476190484
1250.64,128.69689047619056
1252.8,151.33996190476196
1254.96,147.01795238095247
1257.13,134.35042857142864
1259.29,126.19485714285723
1261.44,128.31347619047628
1263.6,135.08738095238104
1265.76,132.70704761904767
1267.91,120.6490952380953
1270.06,123.43800000000009
1272.22,135.83585714285724
1274.37,164.60495238095248
1276.51,180.07890476190488
1278.66,190.5909523809525
1280.81,175.9510476190477
1282.95,176.73138095238104
1285.09,167.8842857142858
1287.23,150.07700000000006
1289.37,138.3100000000001
1291.51,150.10719047619057
1293.65,162.04028571428583
1295.78,180.49085714285724
1297.92,183.45871428571436
1300.05,154.8015238095239
1302.18,142.9005714285715
1304.31,137.4705238095239
1306.44,144.1787142857144
1308.57,164.5967142857144
1310.69,183.05804761904773
1312.82,201.182142857143
1314.94,232.73109523809535
1317.06,266.27700000000016
1319.18,292.62980952380974
1321.3,313.36085714285736
1323.41,322.8990952380954
1325.53,339.4354761904764
1327.64,343.44657142857164
1329.75,365.6947142857145
1331.87,387.7991428571431
1333.98,397.04566666666693
1336.08,410.4824761904764
1338.19,419.53838095238115
1340.3,387.1187142857145
1342.4,364.2237619047621
1344.5,323.90119047619066
1346.6,288.5323333333335
1348.7,290.6890476190478
1350.8,294.1810476190478
1352.9,277.437523809524
1354.99,285.22071428571445
1357.09,292.9113333333335
1359.18,300.1291428571431
1361.27,311.778904761905
1363.36,327.05147619047636
1365.45,345.8044761904764
1367.54,366.46685714285735
1369.62,395.03861904761925
1371.7,385.47276190476214
1373.79,401.5790000000003
1375.87,430.9286666666669
1377.95,474.37961904761937
1380.03,469.59847619047645
1382.1,443.8712380952383
1384.18,374.5316666666668
1386.25,330.7229047619049
1388.33,284.3020476190478
1390.4,265.4602857142859
1392.47,255.0070476190478
1394.54,235.2759523809525
1396.6,215.83880952380966
1398.67,213.26690476190487
1400.74,214.8940952380954
1402.8,228.1966190476192
1404.86,248.07947619047633
1406.92,235.73347619047632
1408.98,250.3493333333335
1411.04,268.0698571428573
1413.09,281.1334761904763
1415.15,263.3974285714287
1417.2,249.719142857143
1419.25,248.5273809523811
1421.3,264.2030952380954
1423.35,263.1273809523811
1425.4,262.3004285714287
1427.45,238.72228571428587
1429.49,240.20261904761918
1431.54,233.40842857142866
1433.58,215.10152380952388
1435.62,194.99633333333344
1437.66,197.33133333333348
1439.7,210.91571428571442
1441.74,226.5116190476192
1443.77,225.59533333333346
1445.81,227.0716666666668
1447.84,220.797761904762
1449.87,210.20247619047632
1451.9,203.14257142857156
1453.93,189.18980952380963
1455.96,199.01042857142872
1457.98,201.93838095238107
1460.01,224.5926666666668
1462.03,234.87776190476205
1464.05,237.7935714285716
1466.07,241.05447619047635
1468.09,250.8031904761906
1470.11,244.8493809523811
1472.13,240.33590476190494
1474.14,247.0718095238097
1476.16,243.7717142857144
1478.17,211.43557142857154
1480.18,205.3963809523811
1482.19,191.17785714285725
1484.2,168.49409523809533
1486.21,173.63061904761915
1488.21,167.0635333333334
1490.22,129.41198571428578
1492.22,120.86600476190482
1494.22,90.85420000000006
1496.22,79.56668571428577
1498.22,77.81283333333337
1500.22,78.49705714285719
1502.22,57.47642142857144
1504.21,53.36970000000004
1506.21,56.79568333333338
1508.2,66.08740952380957
1510.19,66.76841190476195
1512.18,75.36219523809527
1514.17,73.20190476190483
1516.16,80.09664285714291
1518.14,89.61755238095242
1520.13,80.24047142857145
1522.11,47.6317904761905
1524.09,37.36265714285719
1526.07,65.62313333333339
1528.05,71.03206190476195
1530.03,57.73204523809525
1532.01,43.86563809523811
1533.98,21.242130952380982
1535.96,32.86125714285719
1537.93,65.00827380952386
1539.9,83.39744761904767
1541.87,77.314180952381
1543.84,86.8536952380953
1545.81,86.68231904761909
1547.78,86.22847619047624
1549.74,91.53952857142863
1551.7,101.71052857142861
1553.67,112.36053809523818
1555.63,127.39429047619055
1557.59,127.52596190476197
1559.55,124.85076190476198
1561.5,132.89221904761914
1563.46,123.84060000000008
1565.41,114.50562857142863
1567.37,112.98211428571436
1569.32,109.12753333333339
1571.27,120.51305714285724
1573.22,122.71012857142863
1575.17,121.05191428571436
1577.11,125.72923333333343
1579.06,124.74184285714291
1581.0,116.70895714285722
1582.95,108.4399571428572
1584.89,107.64934285714294
1586.83,106.76537619047627
1588.77,114.35964761904768
1590.7,102.19420000000007
1592.64,97.8402476190477
1594.58,102.63141904761918
1596.51,123.56773333333356
1598.44,166.64925714285755
