Raman Shift,Processed Intensity
331.095,66.33530095238096
333.909,23.699767142857027
336.721,2.475000714285599
339.531,-5.050093333333336
342.339,-8.182052857142866
345.145,-14.465235238095243
347.949,-11.65753476190475
350.751,12.29333533333336
353.55,34.05939604761905
356.348,31.313429523809532
359.144,9.824139
361.937,11.551791238095268
364.729,22.59985861904767
367.518,59.45412685714294
370.306,132.7438426666668
373.091,224.4803131428573
375.874,296.10466666666684
378.656,344.86853333333346
381.435,307.16726285714293
384.212,205.11194857142863
386.988,101.67162571428572
389.761,3.626308571428563
392.532,-54.385336190476195
395.301,-40.29502761904761
398.068,-23.604254285714273
400.833,-2.0989147619047555
403.596,20.8175038095238
406.358,10.93343857142856
409.117,-18.961216190476197
411.874,-21.837077619047633
414.629,-19.091928571428568
417.382,-0.36023714285712405
420.133,12.72485523809525
422.882,46.817099047619095
425.629,66.09544190476197
428.374,102.64507142857154
431.117,158.79026190476202
433.858,212.9513904761906
436.597,228.5023809523811
439.334,243.53252380952392
442.069,208.56057142857156
444.802,168.34485714285725
447.533,136.45352380952392
450.262,147.4557142857144
452.989,174.30228571428583
455.714,199.9929523809525
458.438,210.90865714285724
461.159,189.62159523809532
463.878,135.6091571428572
466.595,111.34957619047626
469.31,96.4169571428572
472.024,85.48151904761912
474.735,97.2137095238096
477.444,118.57000000000008
480.152,135.55520952380962
482.857,153.26939047619058
485.561,166.38467619047628
488.262,155.6213333333334
490.962,132.98552380952387
493.659,120.91271428571434
496.355,134.45709523809535
499.048,148.72090476190488
501.74,156.13980952380962
504.43,151.14971428571437
507.118,125.04414285714292
509.804,108.92623809523819
512.488,150.08914285714297
515.17,193.1123809523811
517.85,207.28947619047628
520.528,193.62866666666673
523.204,167.90003809523816
525.878,115.34965714285721
528.551,99.36636190476196
531.221,88.81543809523814
533.89,92.51412380952388
536.556,96.80408571428582
539.221,145.97832380952389
541.883,130.85430952380958
544.544,141.62990476190487
547.203,125.4080476190477
549.86,131.19561904761912
552.515,124.71442857142866
555.168,139.87580952380958
557.819,123.63902380952388
560.469,159.39133333333342
563.116,164.28185714285726
565.761,171.26890476190485
568.405,176.02547619047627
571.047,169.17595238095248
573.687,156.43990476190484
576.324,157.06038095238102
578.96,148.0420000000001
581.594,132.67495238095248
584.227,131.67790476190484
586.857,136.9593714285715
589.485,134.09449047619054
592.112,119.7056952380953
594.737,120.51026190476198
597.359,101.89175714285719
599.98,91.90009047619054
602.599,97.58502380952388
605.216,115.04379047619057
607.831,125.99215714285722
610.445,151.24070476190485
613.056,130.3617714285715
615.666,111.97486666666674
618.274,93.27087619047626
620.88,99.39275238095244
623.484,101.4829714285715
626.086,117.30296190476197
628.686,132.23253333333344
631.284,174.50890476190486
633.881,196.32109523809538
636.476,203.19138095238105
639.068,198.73657142857155
641.659,172.09790476190486
644.249,168.03416190476202
646.836,172.54315238095245
649.421,149.66955619047627
652.005,94.45815142857145
654.587,61.04826952380956
657.166,24.86545809523812
659.745,45.191448571428616
662.321,48.45130904761907
664.895,56.97448095238098
667.468,48.94745666666671
670.038,77.74720571428577
672.607,74.7504147619048
675.174,70.95280285714287
677.739,52.635738095238125
680.303,47.175800000000024
682.864,13.044700000000011
685.424,43.04758095238099
687.982,55.94181428571432
690.538,56.77059523809529
693.092,77.33898571428577
695.645,81.97593333333334
698.195,42.43892857142861
700.744,48.58078952380954
703.291,34.01625857142858
705.836,24.074421904761927
708.38,29.79865095238097
710.921,31.47046000000003
713.461,35.08570142857146
715.999,50.02130380952383
718.535,47.749414285714316
721.069,49.07558571428575
723.602,60.710180952380995
726.133,60.74456666666669
728.662,44.22258095238098
731.189,50.521476190476236
733.714,36.923300000000026
736.238,48.995780952381004
738.759,71.40215238095242
741.279,80.99609047619052
743.798,78.44092857142861
746.314,75.44766190476192
748.829,53.917863809523844
751.342,39.65789714285716
753.853,25.569603809523834
756.362,26.31675523809527
758.869,43.182256190476224
761.375,33.44913523809526
763.879,39.257711428571454
766.381,40.74839523809527
768.882,49.01409047619052
771.38,50.00499047619051
773.877,48.24278095238096
776.372,39.392185714285745
778.866,49.64187142857148
781.357,60.70436190476195
783.847,87.29255714285719
786.335,72.69050000000003
788.821,54.99187142857149
791.306,78.57670476190484
793.789,113.53888571428581
796.27,132.35356666666675
798.749,142.02011428571433
801.227,139.58509523809533
803.702,125.57152380952388
806.176,133.83657142857152
808.649,143.56980952380962
811.119,150.19923809523814
813.588,141.48682857142865
816.055,139.1940666666667
818.521,126.51133333333341
820.984,99.29618571428576
823.446,82.97710476190483
825.906,75.69710952380957
828.365,78.64738095238101
830.821,104.44697619047628
833.276,117.28709523809526
835.729,102.45413809523814
838.181,80.9488047619048
840.631,56.9148047619048
843.079,39.162585714285754
845.525,63.69292857142862
847.97,84.17382200000004
850.412,79.70160271428574
852.854,70.22995780952384
855.293,49.5697491904762
857.731,24.865294000000013
860.167,7.022857952380964
862.601,20.044080095238108
865.034,10.597287619047634
867.465,16.20807714285717
869.894,46.73547428571433
872.321,76.22903619047622
874.747,85.97644285714291
877.171,92.97980952380955
879.594,61.47931904761908
882.014,55.85819523809531
884.433,92.0709952380953
886.851,114.92965238095246
889.266,136.15095238095245
891.68,144.83256190476197
894.092,119.83400000000007
896.503,123.87219047619055
898.912,136.5684952380953
901.319,120.73535238095245
903.724,119.7088571428572
906.128,117.63451904761911
908.53,87.56260952380958
910.931,86.78180476190484
913.329,101.9611333333334
915.726,93.05616666666675
918.122,110.16501904761911
920.516,109.48099523809529
922.908,75.48321428571434
925.298,70.84118571428577
927.687,75.748180952381
930.074,72.01685714285719
932.459,79.79310000000007
934.843,103.60338571428576
937.225,95.73657142857147
939.605,87.14783809523813
941.984,63.98312380952382
944.361,42.05483809523812
946.736,32.03256666666672
949.11,64.72852095238099
951.482,60.33627095238098
953.853,52.811027619047636
956.222,30.72705285714288
958.589,38.372832380952424
960.954,50.3226328571429
963.318,69.96017809523813
965.68,71.24056476190479
968.041,57.21406523809525
970.4,28.930926666666682
972.757,17.48889904761905
975.113,-3.5856090476190436
977.467,1.757480000000026
979.819,27.377699523809547
982.17,30.753567619047637
984.519,38.03016523809526
986.866,31.11448047619049
989.212,37.00844761904767
991.556,62.61891666666673
993.899,107.3287714285715
996.24,110.94933809523816
998.579,119.9106571428572
1000.92,104.30975333333339
1003.25,83.71935190476192
1005.59,43.236145714285726
1007.92,34.52804142857145
1010.25,21.357948571428615
1012.58,56.01254809523817
1014.91,94.3974352380953
1017.24,90.98946761904766
1019.56,74.83672380952385
1021.88,62.177795238095285
1024.2,75.15585238095245
1026.52,93.24737619047626
1028.84,116.88059047619052
1031.16,100.34124285714292
1033.48,116.86707619047627
1035.79,126.36259523809535
1038.1,177.87461904761918
1040.41,219.1169285714287
1042.72,249.61228571428583
1045.03,235.50276190476202
1047.33,233.83523809523822
1049.64,194.75128571428584
1051.94,178.9159523809525
1054.24,175.3284761904763
1056.54,179.70121904761916
1058.84,149.8899095238096
1061.13,134.8930571428572
1063.43,115.56609047619057
1065.72,113.00215238095248
1068.01,135.24748095238107
1070.3,171.1566476190477
1072.59,178.82323809523822
1074.87,187.24509523809536
1077.16,207.5154285714287
1079.44,234.01271428571442
1081.72,249.2108095238097
1084.0,280.34538095238116
1086.28,322.41428571428594
1088.56,401.27223809523844
1090.84,512.7737142857147
1093.11,629.20180952381
1095.38,675.4588571428576
1097.65,659.1611904761908
1099.92,547.2110476190478
1102.19,446.84409523809546
1104.46,380.1047142857145
1106.72,367.2284761904765
1108.98,397.1175238095241
1111.24,435.05476190476213
1113.5,464.94209523809553
1115.76,503.87242857142894
1118.02,522.6520952380956
1120.28,535.8023809523812
1122.53,523.1297142857145
1124.78,470.1554285714288
1127.03,414.4955714285717
1129.28,330.48104761904773
1131.53,248.6806190476192
1133.77,212.66314285714301
1136.02,209.94957142857155
1138.26,216.58495238095253
1140.5,254.2809047619049
1142.74,251.22528571428583
1144.98,260.98690476190495
1147.22,249.23028571428586
1149.45,249.76238095238108
1151.69,227.72385714285727
1153.92,228.82652380952393
1156.15,208.0684285714287
1158.38,198.1612380952382
1160.61,164.10314285714293
1162.83,156.41568571428576
1165.06,117.8589714285715
1167.28,113.81186666666675
1169.5,92.32052380952385
1171.72,85.62107619047626
1173.94,88.33095238095244
1176.16,126.73422857142864
1178.37,105.54387142857148
1180.58,98.32984761904767
1182.8,60.80530000000003
1185.01,47.82619523809528
1187.22,45.62951428571432
1189.42,46.261919047619045
1191.63,25.675033333333353
1193.84,17.487171428571447
1196.04,29.03109047619052
1198.24,51.49670000000004
1200.44,63.6455523809524
1202.64,49.667828571428586
1204.84,54.99197142857145
1207.03,23.04648571428573
1209.23,38.97454285714291
1211.42,62.58567142857147
1213.61,66.26117619047623
1215.8,75.85869523809528
1217.99,92.5217523809524
1220.18,68.91774761904767
1222.36,80.00013333333338
1224.55,85.81732380952384
1226.73,78.5609371428572
1228.91,54.42268238095239
1231.09,52.73707904761909
1233.27,57.505684285714345
1235.44,89.01583142857152
1237.62,113.31668238095246
1239.79,126.60028476190483
1241.96,115.67815238095245
1244.13,115.3136952380953
1246.3,100.74741904761913
1248.47,126.69546666666675
1250.64,138.87414285714294
1252.8,156.2380000000001
1254.96,187.93233333333345
1257.13,213.72128571428587
1259.29,223.98857142857156
1261.44,263.16471428571447
1263.6,275.91895238095253
1265.76,271.6825714285716
1267.91,254.17223809523824
1270.06,227.6289047619049
1272.22,199.15057142857154
1274.37,188.16833333333344
1276.51,194.3993809523811
1278.66,197.08485714285726
1280.81,177.41766666666678
1282.95,170.73442857142868
1285.09,172.56190476190488
1287.23,183.47414285714297
1289.37,192.1886666666668
1291.51,198.70849523809534
1293.65,156.3220190476191
1295.78,120.03280000000007
1297.92,110.79593333333342
1300.05,128.04299047619057
1302.18,141.15801904761915
1304.31,160.7632571428572
1306.44,158.52814285714294
1308.57,146.07509523809534
1310.69,177.6926666666668
1312.82,211.8127142857144
1314.94,225.58085714285724
1317.06,238.61933333333346
1319.18,219.59738095238106
1321.3,205.85176190476204
1323.41,233.5283333333335
1325.53,276.91538095238116
1327.64,308.9684761904764
1329.75,348.2139523809526
1331.87,330.3690000000002
1333.98,316.67466666666684
1336.08,314.56228571428585
1338.19,321.08200000000016
1340.3,290.6176666666668
1342.4,247.885761904762
1344.5,196.7939523809525
1346.6,153.29671428571436
1348.7,149.4920380952382
1350.8,138.95370476190485
1352.9,138.77917142857152
1354.99,132.0182952380953
1357.09,122.19702857142866
1359.18,140.55541904761915
1361.27,158.90518095238104
1363.36,143.81947619047628
1365.45,172.01457142857154
1367.54,177.44461904761914
1369.62,175.53976190476203
1371.7,204.96828571428586
1373.79,215.9699047619049
1375.87,222.5458571428573
1377.95,256.6498571428573
1380.03,288.94980952380973
1382.1,286.92285714285725
1384.18,266.57009523809535
1386.25,239.03528571428583
1388.33,200.12823809523817
1390.4,173.3260476190477
1392.47,150.96253238095244
1394.54,87.18082047619052
1396.6,63.029098095238155
1398.67,50.364450952381
1400.74,71.9961076190477
1402.8,101.68615380952386
1404.86,131.19606571428577
1406.92,113.38260952380958
1408.98,116.29278095238101
1411.04,105.54494285714294
1413.09,121.13824761904769
1415.15,114.64332380952388
1417.2,124.91613333333339
1419.25,99.95554761904768
1421.3,109.09338095238103
1423.35,124.08992857142864
1425.4,151.65822857142865
1427.45,125.51077619047622
1429.49,119.07401904761909
1431.54,82.96528571428576
1433.58,79.08714285714291
1435.62,83.58010952380958
1437.66,105.63252380952386
1439.7,98.00378571428578
1441.74,115.45295238095244
1443.77,107.21578095238101
1445.81,115.90858095238102
1447.84,108.48080000000004
1449.87,92.88182380952387
1451.9,89.2513714285715
1453.93,105.96749047619058
1455.96,142.21757619047634
1457.98,182.47451904761917
1460.01,207.7351523809525
1462.03,187.18633333333344
1464.05,194.1103809523811
1466.07,216.50442857142872
1468.09,249.3646666666668
1470.11,260.21147619047633
1472.13,284.04166666666686
1474.14,277.13719047619065
1476.16,272.54204761904776
1478.17,264.6341904761906
1480.18,256.2190380952382
1482.19,207.6742761904763
1484.2,177.85374285714295
1486.21,153.13510476190487
1488.21,157.32378095238107
1490.22,143.94081428571437
1492.22,153.22034285714292
1494.22,128.96895238095243
1496.22,103.56439047619052
1498.22,93.90833333333342
1500.22,102.23533333333337
1502.22,80.92345238095243
1504.21,74.96943333333338
1506.21,69.70402857142864
1508.2,89.07638571428578
1510.19,114.27441428571434
1512.18,124.34302857142862
1514.17,106.18441619047621
1516.16,51.36755190476191
1518.14,22.652027619047654
1520.13,30.511538571428613
1522.11,51.420370476190534
1524.09,77.80505190476194
1526.07,70.90183047619051
1528.05,63.42304761904768
1530.03,72.22430000000006
1532.01,103.20889523809532
1533.98,117.61348095238102
1535.96,109.86538095238102
1537.93,108.01085238095246
1539.9,107.85816190476197
1541.87,131.12103333333343
1543.84,151.60799047619057
1545.81,159.12763809523818
1547.78,149.5364761904763
1549.74,159.5479523809525
1551.7,162.16157142857153
1553.67,176.18671428571437
1555.63,163.8612857142858
1557.59,164.42309523809533
1559.55,158.96709523809534
1561.5,174.20738095238107
1563.46,197.52490476190485
1565.41,187.4912857142858
1567.37,179.8687142857144
1569.32,165.03833333333344
1571.27,156.19104761904774
1573.22,194.94624761904777
1575.17,193.97105714285723
1577.11,202.9327333333335
1579.06,193.35541904761914
1581.0,157.95401904761914
1582.95,162.44400952380965
1584.89,197.30234285714297
1586.83,188.14885714285728
1588.77,201.60333333333344
1590.7,202.47609523809538
1592.64,202.10171428571442
1594.58,235.29088095238086
1596.51,235.6400238095237
1598.44,166.8169761904757
