Raman Shift,Processed Intensity
331.095,107.95059599999949
333.909,-17.860406857143133
336.721,-47.97803657142869
339.531,-20.611785142857112
342.339,10.742884952380972
345.145,44.40036723809526
347.949,35.08084171428571
350.751,19.124304571428564
353.55,-12.937963333333334
356.348,-2.1928933333333163
359.144,5.70209000000003
361.937,30.280953333333372
364.729,63.50700619047626
367.518,112.91615904761915
370.306,168.47404285714302
373.091,266.52815714285737
375.874,352.379523809524
378.656,373.09171428571443
381.435,349.20582857142875
384.212,263.40716666666674
386.988,169.52506666666676
389.761,65.58054476190476
392.532,0.6910328571428581
395.301,-17.691748571428555
398.068,-20.828551904761902
400.833,8.544925333333378
403.596,50.40852676190475
406.358,23.98163733333333
409.117,-1.2770062857142808
411.874,18.85455447619049
414.629,7.980627238095257
417.382,10.754326285714287
420.133,15.972928571428575
422.882,4.434942857142886
425.629,21.987500000000086
428.374,131.336342857143
431.117,229.80736666666678
433.858,273.2985476190477
436.597,280.3760761904763
439.334,249.2731904761906
442.069,198.89076190476203
444.802,192.94080952380963
447.533,182.27857142857152
450.262,152.14066666666676
452.989,185.28909523809537
455.714,209.4856666666668
458.438,205.25505714285725
461.159,176.36115238095246
463.878,132.85373333333342
466.595,110.11662857142868
469.31,119.29618095238102
472.024,128.0150952380953
474.735,133.61099047619055
477.444,119.61256190476196
480.152,109.07268571428578
482.857,114.18759047619052
485.561,101.39138095238104
488.262,117.26161904761912
490.962,148.09085714285723
493.659,148.2190714285715
496.355,135.84361904761911
499.048,110.5910714285715
501.74,109.56366666666676
504.43,124.43554761904772
507.118,156.7385238095239
509.804,176.24190476190486
512.488,203.66780952380964
515.17,208.64338095238108
517.85,232.2718571428573
520.528,240.9895333333334
523.204,204.8518904761906
525.878,155.9142333333334
528.551,127.13668095238101
531.221,95.33659523809531
533.89,92.0933238095239
536.556,108.12856666666673
539.221,127.11643333333342
541.883,120.20706666666672
544.544,123.31208095238102
547.203,109.48641904761911
549.86,75.11778571428577
552.515,70.26040000000006
555.168,99.77785238095245
557.819,104.91455238095246
560.469,133.53361428571438
563.116,147.35515238095243
565.761,131.48000000000008
568.405,132.43714285714293
571.047,139.46971428571436
573.687,153.15409523809535
576.324,158.44707142857152
578.96,148.9718571428572
581.594,127.35145238095247
584.227,135.3512380952382
586.857,139.308161904762
589.485,137.46343809523816
592.112,96.72457619047624
594.737,88.80818095238102
597.359,78.85933809523816
599.98,103.45129523809533
602.599,142.72831428571436
605.216,149.88247619047624
607.831,144.86671428571438
610.445,143.30068095238101
613.056,113.23250476190483
615.666,93.42417619047625
618.274,102.77975238095243
620.88,91.87063333333339
623.484,91.60008571428577
626.086,106.87219047619055
628.686,140.82817142857152
631.284,166.70460952380964
633.881,183.3562285714287
636.476,184.0667142857144
639.068,163.64290476190487
641.659,166.4631904761906
644.249,173.4770476190477
646.836,160.0145428571429
649.421,132.1673333333334
652.005,100.93183809523815
654.587,60.589847619047646
657.166,31.470633333333353
659.745,29.522552380952412
662.321,37.074390476190494
664.895,29.978985714285724
667.468,31.803133333333353
670.038,29.732580952380975
672.607,46.381614285714335
675.174,69.17391904761908
677.739,69.00930952380955
680.303,74.83520000000006
682.864,81.40844285714289
685.424,77.6763904761905
687.982,62.82449523809524
690.538,41.895357142857144
693.092,-2.1636666666666584
695.645,16.54723904761908
698.195,24.118370000000017
700.744,38.92586952380954
703.291,23.345897619047626
705.836,21.135684761904766
708.38,13.576291904761932
710.921,19.710809047619062
713.461,32.15379428571432
715.999,49.28184238095241
718.535,63.85252666666672
721.069,61.43305380952383
723.602,69.73357523809526
726.133,46.511947619047646
728.662,40.1927904761905
731.189,38.43895714285717
733.714,65.6752790476191
736.238,51.04097904761908
738.759,56.818267619047646
741.279,50.956120952380985
743.798,75.59400571428577
746.314,84.01462666666673
748.829,112.26263619047624
751.342,90.62082380952384
753.853,62.848371428571454
756.362,38.65696190476194
758.869,53.805919047619085
761.375,59.48352380952386
763.879,59.02096190476192
766.381,29.27333333333334
768.882,35.04852857142861
771.38,37.344685714285745
773.877,53.779333333333376
776.372,65.63685714285715
778.866,50.392252380952385
781.357,16.37787619047622
783.847,45.54537714285718
786.335,38.465272380952406
788.821,31.422754285714312
791.306,51.750727619047666
793.789,98.73474952380958
796.27,109.27928190476199
798.749,130.47944380952387
801.227,129.1451428571429
803.702,119.94310476190485
806.176,125.68312380952389
808.649,136.98502857142864
811.119,134.1826190476191
813.588,114.37185714285721
816.055,134.98220952380962
818.521,136.87170952380959
820.984,126.47003809523817
823.446,104.39724285714291
825.906,113.89304761904769
828.365,106.81576190476198
830.821,110.64286666666672
833.276,104.3760333333334
835.729,94.11221428571433
838.181,68.28140952380957
840.631,60.64770952380956
843.079,62.68898095238099
845.525,58.121480952381
847.97,67.3281666666667
850.412,68.1683142857143
852.854,58.739293714285736
855.293,36.80526895238097
857.731,33.32086171428574
860.167,21.85981961904763
862.601,32.42476171428575
865.034,54.20837752380955
867.465,58.21313800000003
869.894,38.870174285714306
872.321,41.039174761904796
874.747,57.91322666666674
877.171,89.6856871428572
879.594,107.35901809523814
882.014,102.74560000000004
884.433,92.1337571428572
886.851,63.57383809523814
889.266,70.64003333333339
891.68,93.28765714285723
894.092,119.28118095238104
896.503,136.0046095238096
898.912,144.69882857142863
901.319,135.3664095238096
903.724,122.10560476190484
906.128,134.82427619047627
908.53,137.42954285714293
910.931,127.4958476190477
913.329,102.97836190476197
915.726,90.49858571428575
918.122,89.3929952380953
920.516,86.23574761904766
922.908,94.69606666666674
925.298,104.06238571428575
927.687,89.00396190476195
930.074,63.80913809523814
932.459,65.62348571428575
934.843,62.497033333333384
937.225,73.33713809523813
939.605,71.90808571428575
941.984,54.16465714285715
944.361,36.299685714285744
946.736,32.982090476190514
949.11,56.6427047619048
951.482,56.4265523809524
953.853,71.00236666666672
956.222,64.80078095238098
958.589,53.442795238095265
960.954,60.073157142857184
963.318,61.5508142857143
965.68,55.35368571428576
968.041,65.57860285714288
970.4,51.94144333333335
972.757,36.68175809523811
975.113,19.134261428571428
977.467,-1.3664514285714144
979.819,14.085552857142885
982.17,28.872283809523836
984.519,42.08997142857146
986.866,56.45380000000002
989.212,36.2026285714286
991.556,56.242028571428634
993.899,89.52473809523816
996.24,113.76567142857152
998.579,135.48904285714292
1000.92,124.5522904761905
1003.25,90.95552380952384
1005.59,63.698928571428596
1007.92,46.496490476190516
1010.25,51.96722380952386
1012.58,75.72990476190483
1014.91,88.16509047619053
1017.24,116.31963809523818
1019.56,105.05036190476196
1021.88,106.4991095238096
1024.2,107.33189523809531
1026.52,126.16687619047629
1028.84,146.95529047619058
1031.16,173.64821904761916
1033.48,163.81595238095247
1035.79,173.8854285714287
1038.1,195.33152380952396
1040.41,229.34333333333348
1042.72,242.2999523809525
1045.03,238.19995238095248
1047.33,208.56542857142867
1049.64,187.82328571428584
1051.94,187.73309523809536
1054.24,186.1978095238096
1056.54,177.07233333333346
1058.84,184.87876190476203
1061.13,182.80552380952392
1063.43,197.9456666666668
1065.72,203.01080952380966
1068.01,231.14171428571444
1070.3,237.6219047619049
1072.59,220.68704761904775
1074.87,199.62047619047635
1077.16,219.84838095238115
1079.44,240.7491904761907
1081.72,303.9396666666668
1084.0,350.3696666666669
1086.28,385.3221904761907
1088.56,461.8899523809527
1090.84,563.1658095238099
1093.11,656.3852380952385
1095.38,706.7839523809528
1097.65,680.3594285714289
1099.92,577.4900000000002
1102.19,480.50623809523836
1104.46,422.9771428571431
1106.72,402.80500000000023
1108.98,411.9396190476194
1111.24,445.37880952380976
1113.5,494.8817619047622
1115.76,508.16033333333365
1118.02,537.1170952380955
1120.28,552.8923809523812
1122.53,529.8169523809528
1124.78,482.603285714286
1127.03,469.29633333333356
1129.28,391.37042857142876
1131.53,319.9660952380954
1133.77,292.7478095238097
1136.02,253.0946666666668
1138.26,228.81404761904778
1140.5,238.66604761904776
1142.74,238.7439047619049
1144.98,254.47414285714302
1147.22,269.33171428571444
1149.45,270.69590476190496
1151.69,285.9933333333335
1153.92,268.88985714285724
1156.15,243.669142857143
1158.38,227.90161904761916
1160.61,186.2527142857144
1162.83,157.43561904761913
1165.06,148.63945714285722
1167.28,135.33992857142866
1169.5,110.10740952380958
1171.72,95.08412857142862
1173.94,98.60270476190483
1176.16,123.7106800000001
1178.37,122.21685380952387
1180.58,104.78787428571432
1182.8,64.51880333333337
1185.01,39.12378857142861
1187.22,50.31734904761909
1189.42,52.38563238095239
1191.63,31.614704761904775
1193.84,29.290842857142884
1196.04,33.70052857142861
1198.24,64.9398371428572
1200.44,83.00983714285717
1202.64,63.24504571428575
1204.84,72.7419590476191
1207.03,61.69244190476194
1209.23,65.14561523809529
1211.42,67.53154095238096
1213.61,46.51860190476194
1215.8,27.87041047619051
1217.99,54.77921428571432
1220.18,39.15160380952384
1222.36,54.60851238095241
1224.55,41.96135333333335
1226.73,43.735917142857176
1228.91,49.50560857142862
1231.09,76.84388952380958
1233.27,86.6099571428572
1235.44,91.99640952380956
1237.62,84.29107142857148
1239.79,69.87707142857147
1241.96,72.51832857142863
1244.13,74.93142857142863
1246.3,91.16635714285721
1248.47,108.22539047619055
1250.64,128.87240000000008
1252.8,156.68122380952394
1254.96,179.3683904761906
1257.13,198.88847619047633
1259.29,224.72033333333346
1261.44,227.39009523809537
1263.6,205.61433333333346
1265.76,202.82380952380964
1267.91,164.92595238095245
1270.06,151.7322857142858
1272.22,161.05509523809533
1274.37,165.42047619047628
1276.51,159.16414285714293
1278.66,150.00247619047624
1280.81,129.79542857142866
1282.95,118.21183809523815
1285.09,105.01636190476196
1287.23,107.35410476190484
1289.37,118.17949523809531
1291.51,137.11434285714296
1293.65,149.25612380952387
1295.78,154.94052380952388
1297.92,130.55085238095245
1300.05,112.2798476190477
1302.18,94.84390952380957
1304.31,104.05537142857149
1306.44,108.29704285714293
1308.57,121.04763809523817
1310.69,129.88066666666677
1312.82,142.70333333333343
1314.94,153.56523809523821
1317.06,185.32614285714297
1319.18,201.70214285714297
1321.3,232.2668571428573
1323.41,246.59366666666682
1325.53,267.9704285714288
1327.64,287.3513333333335
1329.75,307.5958571428573
1331.87,293.3250476190478
1333.98,298.2549523809526
1336.08,302.38752380952394
1338.19,306.77219047619064
1340.3,273.36309523809535
1342.4,235.97166666666678
1344.5,192.98066666666676
1346.6,161.1059142857144
1348.7,147.58722857142865
1350.8,125.90235714285718
1352.9,112.05264761904768
1354.99,89.61125714285721
1357.09,103.48426666666674
1359.18,114.72081904761913
1361.27,115.893561904762
1363.36,141.38471904761917
1365.45,188.14788571428585
1367.54,192.89838095238107
1369.62,201.1136666666668
1371.7,203.03300000000013
1373.79,199.03795238095253
1375.87,232.60571428571447
1377.95,260.8324761904763
1380.03,264.3856666666668
1382.1,254.88509523809537
1384.18,247.3311904761906
1386.25,211.86747619047628
1388.33,183.0180380952382
1390.4,144.8786952380953
1392.47,94.02140000000004
1394.54,66.44615714285719
1396.6,70.91485714285719
1398.67,73.23755238095245
1400.74,95.27102857142864
1402.8,100.49165238095242
1404.86,101.23241904761912
1406.92,83.92173333333336
1408.98,77.22581428571434
1411.04,79.71579523809528
1413.09,79.2482047619048
1415.15,61.96531428571433
1417.2,76.96169047619053
1419.25,74.33167619047624
1421.3,73.97919047619054
1423.35,97.61730476190482
1425.4,123.72131714285722
1427.45,98.52811952380956
1429.49,99.60786761904767
1431.54,87.2924328571429
1433.58,74.53274380952388
1435.62,70.5650052380953
1437.66,111.19742190476195
1439.7,88.61836666666672
1441.74,86.06385238095243
1443.77,78.055780952381
1445.81,83.63962380952387
1447.84,86.52738571428578
1449.87,115.62140476190481
1451.9,118.25267619047625
1453.93,128.56140000000008
1455.96,125.02116666666674
1457.98,119.1052857142858
1460.01,126.62069047619056
1462.03,134.0404761904763
1464.05,175.07650000000012
1466.07,212.72552380952396
1468.09,229.36561904761916
1470.11,225.51723809523824
1472.13,249.79680952380966
1474.14,241.39133333333345
1476.16,260.393142857143
1478.17,248.37047619047632
1480.18,233.70133333333348
1482.19,204.23974285714297
1484.2,172.2209571428572
1486.21,127.59385714285722
1488.21,109.35557619047623
1490.22,76.836380952381
1492.22,67.3666190476191
1494.22,71.27676952380955
1496.22,43.94489095238098
1498.22,32.84424380952383
1500.22,35.21030238095239
1502.22,18.32602285714287
1504.21,15.99833476190478
1506.21,22.986614285714293
1508.2,15.764567619047636
1510.19,32.520398095238136
1512.18,64.44223142857147
1514.17,71.28980000000004
1516.16,56.29912380952383
1518.14,26.753904761904764
1520.13,6.128414285714306
1522.11,16.754271428571464
1524.09,39.53443809523813
1526.07,53.56261428571431
1528.05,65.21813333333337
1530.03,68.92827619047624
1532.01,84.83455238095245
1533.98,84.0786047619048
1535.96,75.61170000000003
1537.93,56.86139047619051
1539.9,48.44565714285718
1541.87,67.9828333333334
1543.84,88.47202380952388
1545.81,124.24607142857153
1547.78,138.6851714285715
1549.74,131.1219714285715
1551.7,126.6037095238096
1553.67,129.2254571428572
1555.63,112.89149523809533
1557.59,118.93511428571435
1559.55,121.3560476190477
1561.5,125.77333333333343
1563.46,138.09171428571437
1565.41,143.50166666666678
1567.37,154.24138095238104
1569.32,148.83485714285723
1571.27,160.61533333333347
1573.22,184.0599047619049
1575.17,184.7398095238096
1577.11,176.60809523809533
1579.06,173.99879047619055
1581.0,141.24560000000008
1582.95,124.49172380952389
1584.89,140.4999238095239
1586.83,157.12753333333345
1588.77,159.28069523809532
1590.7,159.62650476190487
1592.64,141.165761904762
1594.58,131.01852380952397
1596.51,141.9950952380956
1598.44,187.09630952381028
