Raman Shift,Processed Intensity
331.095,106.22452619047625
333.909,69.42667857142858
336.721,22.124764285714278
339.531,-17.891266666666667
342.339,-17.379371428571403
345.145,23.331433333333365
347.949,48.19901904761909
350.751,56.610690476190484
353.55,38.90698571428572
356.348,13.90557619047621
359.144,30.329928571428614
361.937,33.713952380952406
364.729,33.9259904761905
367.518,31.978195238095303
370.306,78.93168571428583
373.091,186.5149476190478
375.874,314.45800476190493
378.656,381.3488476190478
381.435,344.919742857143
384.212,246.47527142857152
386.988,122.79765761904765
389.761,39.86037904761908
392.532,-6.64720142857141
395.301,1.9176590476190563
398.068,2.103953333333341
400.833,4.5569933333333275
403.596,-0.505132857142863
406.358,-11.7201904761905
409.117,-38.24843742857145
411.874,-51.29641409523811
414.629,-26.783656761904744
417.382,9.943098857142902
420.133,52.01437180952385
422.882,94.37168114285721
425.629,143.14833161904772
428.374,174.7166904761906
431.117,215.21220000000014
433.858,266.48547619047633
436.597,268.0546666666668
439.334,250.24857142857155
442.069,226.63533333333345
444.802,200.26000000000013
447.533,177.54909523809536
450.262,188.0729523809525
452.989,210.59309523809537
455.714,227.30028571428588
458.438,207.95761904761918
461.159,202.94771428571437
463.878,170.46323809523818
466.595,145.88819047619057
469.31,151.5115238095239
472.024,155.2892857142858
474.735,141.6543714285715
477.444,132.9923714285715
480.152,112.02293333333341
482.857,116.89436190476198
485.561,106.23173809523817
488.262,119.7552857142858
490.962,122.42407619047626
493.659,110.62578095238104
496.355,100.93856190476197
499.048,99.94102857142863
501.74,87.8311857142858
504.43,108.80685714285723
507.118,120.25658095238103
509.804,155.0931047619049
512.488,195.5619142857144
515.17,212.81419047619056
517.85,198.23861904761915
520.528,169.7477714285715
523.204,121.77820000000007
525.878,109.7190857142858
528.551,88.19693809523815
531.221,79.88662857142862
533.89,74.60487142857149
536.556,96.45471428571437
539.221,128.1103380952382
541.883,139.9602428571429
544.544,133.4879714285715
547.203,131.22439523809533
549.86,120.65244761904769
552.515,116.87422380952388
555.168,126.51500952380958
557.819,134.24804761904772
560.469,145.22242857142865
563.116,145.01533333333342
565.761,149.91842857142865
568.405,138.79390476190483
571.047,127.78985714285723
573.687,131.67300000000006
576.324,126.11457142857151
578.96,123.07123809523817
581.594,134.83285714285722
584.227,147.9745238095239
586.857,150.35676190476198
589.485,148.88750476190484
592.112,127.61714761904767
594.737,114.97678095238102
597.359,89.968480952381
599.98,92.26079047619056
602.599,118.99809047619058
605.216,150.75319047619055
607.831,155.86029523809535
610.445,162.3676933333334
613.056,111.41836714285718
615.666,72.5360866666667
618.274,48.24447095238099
620.88,56.25724857142865
623.484,109.71618142857153
626.086,142.52481714285722
628.686,178.82447142857154
631.284,214.1371142857144
633.881,218.55614285714302
636.476,222.79366666666678
639.068,211.84676190476202
641.659,182.61728571428586
644.249,181.53069523809532
646.836,162.53603333333342
649.421,134.15375238095243
652.005,110.47557619047625
654.587,75.64014761904768
657.166,92.73866190476198
659.745,110.52877142857149
662.321,82.57758095238097
664.895,75.97563809523814
667.468,41.575928571428584
670.038,35.992480952381
672.607,58.506638095238145
675.174,82.58969047619053
677.739,81.57015238095244
680.303,97.91918571428575
682.864,62.155919047619086
685.424,67.46589047619052
687.982,68.5109571428572
690.538,76.66716095238101
693.092,70.83443000000001
695.645,52.341312380952395
698.195,32.84975571428574
700.744,26.97424571428574
703.291,43.662401428571464
705.836,39.05258952380952
708.38,29.426113333333348
710.921,14.302453809523811
713.461,9.058383809523821
715.999,1.213660476190494
718.535,27.526255238095263
721.069,50.84953952380958
723.602,81.60846571428578
726.133,109.65664761904767
728.662,88.89545476190479
731.189,62.607280952381
733.714,60.45558809523814
736.238,77.4374714285715
738.759,96.07389285714294
741.279,131.55237619047625
743.798,112.58471428571433
746.314,96.40639523809529
748.829,74.87210952380954
751.342,50.69395238095242
753.853,59.91733809523816
756.362,76.44475238095242
758.869,87.17915238095244
761.375,101.880580952381
763.879,81.16633333333337
766.381,69.03476666666671
768.882,61.86536666666669
771.38,56.942280952381
773.877,80.69283809523816
776.372,105.02065238095243
778.866,93.25789523809529
781.357,73.83215714285717
783.847,71.78998571428578
786.335,64.7972428571429
788.821,74.710480952381
791.306,100.57652380952388
793.789,110.10925238095244
796.27,90.64154285714291
798.749,92.50618571428576
801.227,103.17944761904769
803.702,116.61308095238105
806.176,146.52144761904768
808.649,156.85684761904767
811.119,139.71438095238102
813.588,123.6660000000001
816.055,143.56902857142865
818.521,142.42340000000007
820.984,121.56319047619053
823.446,110.8933333333334
825.906,119.03349523809533
828.365,131.07948571428582
830.821,141.98416190476198
833.276,143.36751428571438
835.729,152.2777523809525
838.181,145.1446095238096
840.631,139.96892380952386
843.079,116.98954761904767
845.525,93.58862857142864
847.97,95.48168095238103
850.412,102.6695571428572
852.854,110.39165238095245
855.293,108.98244285714293
857.731,96.34817619047625
860.167,93.25218095238101
862.601,82.50545714285717
865.034,42.10939523809527
867.465,47.160561904761934
869.894,57.8035571428572
872.321,74.89710000000007
874.747,101.10962857142862
877.171,117.1569714285715
879.594,110.6122857142858
882.014,137.953761904762
884.433,150.13552380952387
886.851,150.2068095238096
889.266,142.16971428571438
891.68,144.3594761904763
894.092,143.06352380952393
896.503,176.33186666666677
898.912,150.6425095238096
901.319,140.28306666666677
903.724,159.68420476190488
906.128,164.1338761904763
908.53,173.4911761904763
910.931,175.09196190476197
913.329,142.27147619047628
915.726,134.36533333333344
918.122,153.08971428571436
920.516,149.25643809523817
922.908,141.67724761904768
925.298,126.5448952380953
927.687,107.5282571428572
930.074,85.96309047619052
932.459,74.18492380952385
934.843,57.386604761904785
937.225,49.141704761904805
939.605,60.8809847619048
941.984,44.987808571428594
944.361,49.55978380952385
946.736,54.884796190476216
949.11,54.86986000000006
951.482,77.89824666666672
953.853,88.87699047619051
956.222,54.28453428571431
958.589,44.07566380952383
960.954,44.10964190476195
963.318,48.198211428571476
965.68,76.62934380952386
968.041,84.64326571428575
970.4,56.24216952380955
972.757,52.99962476190479
975.113,31.536811428571433
977.467,20.04632000000003
979.819,29.101702857142875
982.17,41.514531428571466
984.519,50.429747619047674
986.866,81.5636666666667
989.212,66.91836666666671
991.556,99.35294761904768
993.899,106.39323333333337
996.24,90.80297142857148
998.579,84.20316190476196
1000.92,91.45265714285719
1003.25,71.36260476190482
1005.59,77.2203047619048
1007.92,84.45585238095241
1010.25,62.26110000000004
1012.58,59.44703809523815
1014.91,81.44320476190481
1017.24,93.82228095238102
1019.56,94.53751428571437
1021.88,104.6849190476191
1024.2,114.74135714285723
1026.52,114.66002857142865
1028.84,131.9173000000001
1031.16,157.65684761904768
1033.48,149.9741428571429
1035.79,136.1074761904763
1038.1,154.72342857142868
1040.41,159.6319523809525
1042.72,190.49928571428583
1045.03,212.37314285714297
1047.33,206.44385714285727
1049.64,196.2822380952382
1051.94,188.7450476190477
1054.24,177.35590476190487
1056.54,165.87571428571437
1058.84,156.97085714285726
1061.13,150.54528571428582
1063.43,145.02638095238106
1065.72,170.93757142857154
1068.01,200.8016190476191
1070.3,189.37914285714297
1072.59,169.76471428571435
1074.87,154.62366666666676
1077.16,155.76423809523826
1079.44,190.89957142857156
1081.72,223.3613333333335
1084.0,260.29100000000017
1086.28,327.5920952380955
1088.56,419.2154285714289
1090.84,562.4452857142861
1093.11,679.4704761904766
1095.38,704.1463809523813
1097.65,639.4711904761907
1099.92,518.2051904761906
1102.19,387.4891904761907
1104.46,338.1310000000002
1106.72,340.79528571428597
1108.98,357.003904761905
1111.24,377.2787619047622
1113.5,409.52266666666696
1115.76,447.9240952380955
1118.02,485.2906190476193
1120.28,530.7151428571433
1122.53,524.1955714285716
1124.78,458.7772380952383
1127.03,378.0292857142859
1129.28,289.37819047619064
1131.53,225.5836190476192
1133.77,225.7864285714287
1136.02,219.65076190476202
1138.26,187.36466666666678
1140.5,190.06904761904775
1142.74,187.0469523809525
1144.98,194.5819523809525
1147.22,213.9574761904763
1149.45,217.88533333333348
1151.69,208.31552380952394
1153.92,216.72214285714298
1156.15,196.76911428571438
1158.38,166.93059523809532
1160.61,132.10885238095244
1162.83,102.34920476190482
1165.06,103.79224285714292
1167.28,97.10211428571432
1169.5,77.7526285714286
1171.72,72.36058571428575
1173.94,64.68560476190481
1176.16,69.34437142857149
1178.37,94.00156190476194
1180.58,98.89281428571434
1182.8,67.34930952380955
1185.01,54.65454857142859
1187.22,26.044627142857156
1189.42,23.0413447619048
1191.63,31.785620476190516
1193.84,60.41849238095243
1196.04,61.60485095238099
1198.24,69.48589142857145
1200.44,48.536271428571446
1202.64,37.84976190476192
1204.84,31.806038095238108
1207.03,10.54680476190476
1209.23,13.35673523809526
1211.42,12.568306666666667
1213.61,20.704629523809547
1215.8,18.4318142857143
1217.99,42.03525428571431
1220.18,28.038584761904783
1222.36,47.727490476190496
1224.55,30.673608571428584
1226.73,34.68680666666668
1228.91,10.624664761904787
1231.09,47.34518666666672
1233.27,69.99183428571435
1235.44,92.94650571428576
1237.62,97.35309047619053
1239.79,105.2605571428572
1241.96,89.05137619047628
1244.13,121.53660476190485
1246.3,129.05096190476198
1248.47,130.4058095238096
1250.64,142.5078095238096
1252.8,149.787761904762
1254.96,156.4859047619049
1257.13,186.98514285714296
1259.29,198.28800000000012
1261.44,227.77771428571444
1263.6,238.79014285714297
1265.76,221.85190476190485
1267.91,207.91800000000012
1270.06,201.65780952380962
1272.22,190.59804761904772
1274.37,207.3130000000001
1276.51,195.32938095238106
1278.66,170.69809523809533
1280.81,169.0415238095239
1282.95,155.69585714285725
1285.09,138.80700000000007
1287.23,154.28319047619058
1289.37,164.27054285714297
1291.51,159.91531904761914
1293.65,152.12583809523815
1295.78,134.85748095238102
1297.92,99.25667619047624
1300.05,79.51743333333337
1302.18,79.8812571428572
1304.31,77.49446666666672
1306.44,84.360761904762
1308.57,131.6260095238096
1310.69,145.1036095238096
1312.82,161.9872857142858
1314.94,175.18528571428584
1317.06,192.8437142857144
1319.18,199.34714285714298
1321.3,206.27033333333347
1323.41,205.14071428571447
1325.53,244.72328571428588
1327.64,282.3070952380954
1329.75,322.32347619047636
1331.87,357.9185714285716
1333.98,349.76266666666686
1336.08,333.57323809523825
1338.19,317.40057142857154
1340.3,284.91423809523826
1342.4,256.0694285714287
1344.5,218.5832380952382
1346.6,198.45857142857156
1348.7,188.60314285714296
1350.8,175.1142857142858
1352.9,162.8040095238096
1354.99,149.10322380952385
1357.09,99.1092095238096
1359.18,114.58625238095249
1361.27,131.72697142857152
1363.36,174.00946190476202
1365.45,212.38786666666678
1367.54,223.53052380952394
1369.62,223.62957142857158
1371.7,246.87685714285726
1373.79,273.2736666666669
1375.87,297.77338095238116
1377.95,287.1864761904763
1380.03,272.8472857142859
1382.1,235.4231904761906
1384.18,236.6764761904763
1386.25,228.75042857142867
1388.33,198.5498761904763
1390.4,150.9321952380953
1392.47,117.08774761904766
1394.54,76.01609047619054
1396.6,66.81205714285717
1398.67,56.093671428571476
1400.74,58.907828571428624
1402.8,84.20576190476197
1404.86,112.70070000000007
1406.92,130.00996666666674
1408.98,120.84614761904766
1411.04,108.92154285714291
1413.09,96.9960333333334
1415.15,101.6865333333334
1417.2,112.03850000000008
1419.25,112.71579047619053
1421.3,104.85863333333337
1423.35,92.89293809523815
1425.4,97.76789047619053
1427.45,99.14733809523817
1429.49,114.64705238095246
1431.54,113.454280952381
1433.58,117.08962857142865
1435.62,107.50207619047625
1437.66,109.54485714285721
1439.7,112.11949523809531
1441.74,129.79340000000008
1443.77,112.3249714285715
1445.81,123.42490476190483
1447.84,114.51794761904767
1449.87,105.64743809523817
1451.9,112.3336714285715
1453.93,129.52474285714294
1455.96,133.26490476190486
1457.98,151.454761904762
1460.01,173.04314285714295
1462.03,175.83542857142868
1464.05,181.06561904761918
1466.07,203.20600000000013
1468.09,246.44376190476208
1470.11,261.0604761904764
1472.13,298.433523809524
1474.14,304.94057142857156
1476.16,278.91090476190493
1478.17,258.9123809523811
1480.18,267.37033333333346
1482.19,230.32909523809536
1484.2,212.9280476190477
1486.21,163.8311428571429
1488.21,112.32095238095243
1490.22,78.15634285714292
1492.22,81.04881428571434
1494.22,78.18634761904767
1496.22,95.89967142857148
1498.22,95.47221809523813
1500.22,77.52091809523812
1502.22,64.61516476190478
1504.21,28.753105714285716
1506.21,3.7902552380952628
1508.2,13.153722857142887
1510.19,32.93748952380955
1512.18,54.521442857142915
1514.17,83.33331428571432
1516.16,69.22952380952384
1518.14,61.01910952380956
1520.13,44.32075714285716
1522.11,31.99145714285718
1524.09,42.22161428571431
1526.07,49.63038571428574
1528.05,49.97990952380955
1530.03,50.841961904761924
1532.01,44.83605714285717
1533.98,48.01043809523814
1535.96,65.69910000000006
1537.93,85.2838428571429
1539.9,92.95610952380956
1541.87,96.14532857142862
1543.84,85.99557619047624
1545.81,87.46059047619056
1547.78,100.2081190476191
1549.74,110.52527619047626
1551.7,128.9848380952382
1553.67,128.77886190476195
1555.63,109.33761904761913
1557.59,114.13911904761913
1559.55,111.4230476190477
1561.5,119.6670238095239
1563.46,128.96819047619053
1565.41,126.18561904761913
1567.37,138.60685714285722
1569.32,143.4720952380953
1571.27,137.78357142857152
1573.22,143.2095238095239
1575.17,120.89500000000008
1577.11,127.55614285714296
1579.06,140.05212380952386
1581.0,126.57564761904769
1582.95,113.55743809523815
1584.89,116.61835238095244
1586.83,109.61786666666676
1588.77,136.6054095238096
1590.7,148.15455238095245
1592.64,150.64838095238105
1594.58,147.11252380952396
1596.51,149.90616666666693
1598.44,167.36464285714334
