Raman Shift,Processed Intensity
331.095,107.02744186271957
333.909,-45.72615488392057
336.721,-78.50302077488686
339.531,-34.96981178093847
342.339,26.540170852297706
345.145,107.19365796690545
347.949,78.27647080759834
350.751,89.5030555271278
353.55,104.44506531074785
356.348,129.38851392924335
359.144,173.19092929196904
361.937,222.37660223797957
364.729,198.94612104144653
367.518,239.47162020280484
370.306,253.66821971607715
373.091,334.96546433621006
375.874,381.79304856070576
378.656,433.9141606588719
381.435,397.8064457486944
384.212,276.0905879213233
386.988,150.72079712746745
389.761,63.55624844472277
392.532,8.027759440168666
395.301,7.85208658056672
398.068,12.8414597378096
400.833,8.14168892773614
403.596,3.9464623319618113
406.358,-20.64549719541901
409.117,-33.249465219252215
411.874,-66.76612932822809
414.629,-83.7149099429198
417.382,-57.90061856267312
420.133,-1.0325058475714286
422.882,115.5138214518065
425.629,221.36304701481276
428.374,334.473458004009
431.117,469.5178900386718
433.858,593.7408626444981
436.597,724.863333750915
439.334,818.0826922836368
442.069,823.9298936143632
444.802,837.2218331057138
447.533,805.4422910847466
450.262,790.0752587688539
452.989,830.8430260964169
455.714,859.2299838431886
458.438,855.2921400243713
461.159,844.657112487193
463.878,749.6193595987047
466.595,672.187791885955
469.31,637.8476693904604
472.024,598.6558323560012
474.735,595.43117001165
477.444,635.0879464976647
480.152,663.0643648866221
482.857,694.6082740616971
485.561,713.491447023514
488.262,704.1048115779413
490.962,728.8870143572394
493.659,805.8482229364204
496.355,815.1891660448555
499.048,839.7296975874024
501.74,899.5278368560093
504.43,997.4035706460818
507.118,1078.5102744204646
509.804,1232.620419187709
512.488,1337.6493736184393
515.17,1462.1792061616989
517.85,1596.839630018459
520.528,1728.7365671627313
523.204,1803.9283314103059
525.878,1881.425621011299
528.551,1945.0010350522325
531.221,1923.52239938192
533.89,1894.0003782516342
536.556,1875.1122764314755
539.221,1859.2496508505333
541.883,1849.0421127132513
544.544,1892.4525581872263
547.203,1894.5390657576868
549.86,1928.8358412010207
552.515,1978.7341625583017
555.168,2015.053801299286
557.819,2089.804919676889
560.469,2172.3309204626116
563.116,2299.8798681105472
565.761,2418.8901956356567
568.405,2552.371649587301
571.047,2671.4767112132463
573.687,2824.9291604808036
576.324,2928.6431162884605
578.96,3062.9135052489214
581.594,3138.7493876150143
584.227,3170.873949872271
586.857,3101.819735426748
589.485,2994.452446721424
592.112,2857.9709378287725
594.737,2697.9072070433494
597.359,2530.6978180457913
599.98,2355.7791305906285
602.599,2143.3968169083823
605.216,1971.0344257267125
607.831,1882.746708196326
610.445,1825.9691342930805
613.056,1844.3274092200859
615.666,1946.7803231431449
618.274,2135.000696164267
620.88,2436.470609009493
623.484,2799.5766337166997
626.086,3144.133635751999
628.686,3441.7180999356406
631.284,3603.5728849393486
633.881,3659.083406355104
636.476,3592.777629287715
639.068,3396.897489518833
641.659,3078.7798384804773
644.249,2708.5707215619104
646.836,2253.225370702204
649.421,1799.4129588875935
652.005,1372.5642117916505
654.587,1025.4904479869242
657.166,769.4788096327416
659.745,616.7684455439698
662.321,503.7409799740576
664.895,411.2538385409316
667.468,342.64024081955995
670.038,262.2330024583298
672.607,172.84071824779767
675.174,85.55727852277005
677.739,53.999956992961415
680.303,60.64273666888312
682.864,67.10202542035995
685.424,48.70809149088063
687.982,22.266981427718292
690.538,2.4891114174506583
693.092,27.798815971370004
695.645,44.38199418544218
698.195,3.6623276949071624
700.744,-18.555831874208252
703.291,-44.84933735834966
705.836,-25.414310607015523
708.38,-6.304208999225011
710.921,15.617817427778391
713.461,50.10751855841954
715.999,130.1109932827103
718.535,188.76471000872561
721.069,217.586003365549
723.602,208.47309471575682
726.133,142.56225552504247
728.662,97.32306596994613
731.189,61.17748306939393
733.714,38.07128976861986
736.238,-2.2877893102404414
738.759,-2.9538768794714088
741.279,-6.123874854236419
743.798,0.6720799694348898
746.314,-11.143649287138942
748.829,-27.815226691839143
751.342,-52.158084894024796
753.853,-68.32080937393994
756.362,-62.97559412070177
758.869,-44.84203586275953
761.375,-45.591887672104804
763.879,-30.039533239798402
766.381,-36.76103258007561
768.882,-58.61792963920743
771.38,-29.376297999601775
773.877,8.626594368479346
776.372,35.57751922720081
778.866,74.61585552477436
781.357,64.92882351574144
783.847,83.41814745268539
786.335,124.03338494461468
788.821,156.77192298201317
791.306,221.15516443807383
793.789,367.56185742708567
796.27,503.94237704375746
798.749,671.0091975787441
801.227,822.1416504484496
803.702,965.1954440296045
806.176,1081.4074215890737
808.649,1118.0146049279547
811.119,1109.0637142161509
813.588,1063.1254497317186
816.055,976.4373450287776
818.521,896.8085248673337
820.984,812.4768440954763
823.446,659.2041217696756
825.906,529.9428038464976
828.365,483.69310206481623
830.821,449.2648947327657
833.276,415.89677037184674
835.729,394.3036427896059
838.181,354.01008043801767
840.631,289.1122072004364
843.079,266.56341270236317
845.525,258.2219673841141
847.97,237.51768519253483
850.412,225.26144341557665
852.854,226.88327394543558
855.293,212.81331168455154
857.731,180.4817905706559
860.167,169.31903960182126
862.601,151.2792883853199
865.034,128.50732982934096
867.465,134.14803997757008
869.894,119.20351689137215
872.321,122.24736238913283
874.747,127.23420188082855
877.171,110.9282518216387
879.594,89.56998240365874
882.014,125.2094469142794
884.433,149.42056347551306
886.851,192.39634916427622
889.266,201.04415413267225
891.68,192.1285147758913
894.092,184.7949592810637
896.503,224.76047984278784
898.912,228.74210011674586
901.319,235.40925219713517
903.724,231.85996311790495
906.128,216.5256127825728
908.53,208.07569189403102
910.931,234.79875036054773
913.329,233.9833457017653
915.726,241.87042002612998
918.122,234.08186748450453
920.516,208.5252921999786
922.908,191.9654328643428
925.298,200.69082542980232
927.687,245.60903722925968
930.074,274.4847582394559
932.459,288.4159875822047
934.843,290.11974383515235
937.225,282.8368229615785
939.605,256.61750862115696
941.984,277.60728248071746
944.361,260.4277726202472
946.736,272.74817812937226
949.11,255.85669370383766
951.482,278.7081247181809
953.853,272.5429308698267
956.222,274.2681745850932
958.589,245.26704085375877
960.954,237.0178808731648
963.318,201.37992235897264
965.68,209.54564652259023
968.041,179.23126028669503
970.4,129.1052637388584
972.757,96.31225568040509
975.113,78.75864393718211
977.467,41.87454614651324
979.819,23.947119115588976
982.17,-7.450873724912071
984.519,-10.175347818684713
986.866,40.774819477190704
989.212,53.63874314770601
991.556,61.94115034568722
993.899,61.301904979456594
996.24,72.81696087193131
998.579,99.62979111019058
1000.92,92.97900787124127
1003.25,62.817410819213364
1005.59,45.00246407398072
1007.92,49.1058207988317
1010.25,80.65141921670784
1012.58,98.68691195978181
1014.91,74.06938113331807
1017.24,42.70343433191965
1019.56,6.636443512911683
1021.88,14.058545774485083
1024.2,38.15978699098241
1026.52,58.939647078080725
1028.84,72.77847143618965
1031.16,96.15175953672178
1033.48,93.4396916035962
1035.79,98.59379815188458
1038.1,129.2322009550403
1040.41,137.06818734545368
1042.72,137.57687975311137
1045.03,168.42381000615114
1047.33,197.13158886952579
1049.64,211.60371844080692
1051.94,208.2674521650415
1054.24,200.88332151626946
1056.54,173.35466267904576
1058.84,176.77523846805252
1061.13,180.19114596199552
1063.43,161.88653366131985
1065.72,129.00265197924864
1068.01,141.87118944711347
1070.3,155.49046606254706
1072.59,202.28734092338755
1074.87,212.59340557586484
1077.16,220.78784402945848
1079.44,217.39267372412496
1081.72,252.92989125944632
1084.0,297.8738562190015
1086.28,365.5084368995067
1088.56,467.0222512780583
1090.84,559.7943841698416
1093.11,597.0610567668077
1095.38,640.0584866525219
1097.65,595.6419382932149
1099.92,510.0000116240608
1102.19,437.5594068259338
1104.46,389.22302243550166
1106.72,378.6080534553166
1108.98,412.6650418448571
1111.24,438.4874032020416
1113.5,491.9304772542705
1115.76,553.9924831113699
1118.02,641.8621411852014
1120.28,739.4424855854654
1122.53,777.0175336583602
1124.78,759.8237174300061
1127.03,706.0022674308179
1129.28,618.3135012817784
1131.53,541.2796837092833
1133.77,493.6136008457079
1136.02,479.6947535775839
1138.26,488.3312651795045
1140.5,526.6170270432599
1142.74,599.4078920260249
1144.98,694.6073916080672
1147.22,799.8334054314128
1149.45,859.6562594099319
1151.69,799.5034905061057
1153.92,710.1360400792114
1156.15,568.5053996144666
1158.38,438.42028026169737
1160.61,368.54661570733333
1162.83,308.3599459987945
1165.06,207.85970613077325
1167.28,175.5692289172339
1169.5,136.91670024435643
1171.72,119.90182860920595
1173.94,113.52441942029463
1176.16,88.87961596482319
1178.37,34.824568947340595
1180.58,36.07367745698821
1182.8,20.38906802997235
1185.01,12.485359426331797
1187.22,12.315379787650272
1189.42,-11.548876062383897
1191.63,-44.3924309012873
1193.84,-23.166841463680612
1196.04,-26.014001741322772
1198.24,4.829096351234057
1200.44,45.79226644838036
1202.64,73.63879024676316
1204.84,98.41779481373578
1207.03,144.17853465772987
1209.23,190.2561023700423
1211.42,232.79523450472516
1213.61,254.46459364894645
1215.8,269.8853362076379
1217.99,287.20253733099844
1220.18,305.51375869914636
1222.36,334.53571154486235
1224.55,350.175681581095
1226.73,318.0077158332456
1228.91,280.6535713761955
1231.09,272.59223549991884
1233.27,261.58849349414095
1235.44,286.0738773853741
1237.62,315.289519435863
1239.79,368.6194818330041
1241.96,468.5431339978186
1244.13,623.7780060839054
1246.3,771.3274043811557
1248.47,984.385169576618
1250.64,1192.8118635867836
1252.8,1469.0871468660694
1254.96,1815.595489048631
1257.13,2151.7690224473085
1259.29,2483.1827765049698
1261.44,2776.8880074839312
1263.6,2947.0788614887238
1265.76,2943.4257041555184
1267.91,2826.8370217701245
1270.06,2567.745131909797
1272.22,2266.8204655136124
1274.37,1956.3525156195196
1276.51,1704.4879289585247
1278.66,1486.5638356441154
1280.81,1319.5840360045408
1282.95,1176.9332826531795
1285.09,1045.3296577970136
1287.23,922.3007600688993
1289.37,865.4217961217496
1291.51,878.4584341274726
1293.65,890.6525144187704
1295.78,935.5791887023611
1297.92,997.4326307007782
1300.05,1098.0260325084423
1302.18,1233.9820771382201
1304.31,1389.6376967822584
1306.44,1532.234545358545
1308.57,1657.7761377241222
1310.69,1760.837369840704
1312.82,1861.088324654555
1314.94,1952.2942684525833
1317.06,2035.8870757898471
1319.18,2113.012844893257
1321.3,2168.53189401766
1323.41,2121.9711387542925
1325.53,1981.428850291626
1327.64,1793.669889866681
1329.75,1579.6495146449142
1331.87,1369.9895645524944
1333.98,1201.407030060952
1336.08,1017.4283342575536
1338.19,862.5321863442432
1340.3,724.5305303746918
1342.4,608.0923511341966
1344.5,527.8389085910071
1346.6,470.91516282385646
1348.7,386.46596085424335
1350.8,336.8265091929993
1352.9,299.99856067257997
1354.99,236.45993461268426
1357.09,238.78356079540436
1359.18,236.78033296418198
1361.27,201.68958137038817
1363.36,177.79811674847178
1365.45,154.82117905301948
1367.54,117.99767191010233
1369.62,131.42349230671334
1371.7,142.62295551830357
1373.79,186.31069622680025
1375.87,229.39166487672128
1377.95,280.10398117414843
1380.03,277.4951209190317
1382.1,242.75524569463596
1384.18,189.02672303317559
1386.25,132.78507515287902
1388.33,105.26754674266931
1390.4,88.90167274684427
1392.47,65.25765567357394
1394.54,45.76264766528993
1396.6,19.03408018813252
1398.67,-27.263190218158343
1400.74,-22.178779108744493
1402.8,-36.23866927530025
1404.86,-8.635680415763545
1406.92,25.532439655848066
1408.98,39.07253870422255
1411.04,83.60082091919912
1413.09,172.7333246882481
1415.15,286.08592812302004
1417.2,429.79816410971216
1419.25,574.2951305975257
1421.3,679.5732104109265
1423.35,742.8191243952483
1425.4,739.2194607527576
1427.45,691.1511567596826
1429.49,601.0862661975143
1431.54,478.63958392717313
1433.58,385.56865141554863
1435.62,308.20233369061316
1437.66,263.7265391536798
1439.7,217.80327272498425
1441.74,196.61826041784707
1443.77,179.59524057949693
1445.81,178.2054932271394
1447.84,193.49165509830436
1449.87,238.44867755833957
1451.9,263.83335593647644
1453.93,332.4024302904604
1455.96,407.1983052188102
1457.98,478.12048395877264
1460.01,596.7350977223882
1462.03,791.6558636039717
1464.05,1042.7821853447458
1466.07,1359.9182064784204
1468.09,1801.296625381539
1470.11,2295.8167960381033
1472.13,2792.9971145184873
1474.14,3262.165500696442
1476.16,3597.7927371089627
1478.17,3772.1591411494887
1480.18,3795.164094403959
1482.19,3610.9927148440074
1484.2,3204.639671877309
1486.21,2730.718715683625
1488.21,2210.6055398841927
1490.22,1748.913977544449
1492.22,1333.5912447957894
1494.22,993.917946362101
1496.22,727.4128429910409
1498.22,523.7376188853286
1500.22,385.12545865783545
1502.22,294.0477195247704
1504.21,219.35679397505442
1506.21,189.9051629158896
1508.2,180.06921072308978
1510.19,148.51113552950824
1512.18,130.65514522775334
1514.17,100.63984394909062
1516.16,61.0325233042463
1518.14,49.30535838611945
1520.13,18.930651391538277
1522.11,-4.190591423656542
1524.09,-14.10960659904822
1526.07,-19.30605841931515
1528.05,-20.830890956061694
1530.03,1.5508184353043362
1532.01,24.64557503939909
1533.98,-8.692343277713462
1535.96,-5.32279120866724
1537.93,-21.10547066875074
1539.9,-8.090408256785167
1541.87,38.33918578769112
1543.84,93.03834213155551
1545.81,123.52889892105577
1547.78,159.3328302595287
1549.74,161.2103365898745
1551.7,198.01698269608733
1553.67,255.65607380001916
1555.63,310.6976983248221
1557.59,378.9977706583827
1559.55,408.5075501072388
1561.5,420.7974455647768
1563.46,416.34272494134075
1565.41,427.5235103086195
1567.37,414.67239209165587
1569.32,391.0744242132382
1571.27,371.9195001906644
1573.22,322.30234828014045
1575.17,267.9368123354559
1577.11,240.96537076190043
1579.06,235.57817927969995
1581.0,222.20354225888332
1582.95,206.46028881604957
1584.89,180.25300605399684
1586.83,164.8196532537288
1588.77,143.82679511408787
1590.7,147.84578737233733
1592.64,138.68610528189015
1594.58,111.44295780431526
1596.51,79.68775894420719
1598.44,48.5871705126217
