Raman Shift,Processed Intensity
331.095,-25.62428047619024
333.909,6.328609761904747
336.721,11.222203333333251
339.531,-1.1615014285714516
342.339,-18.850608571428584
345.145,-26.22959523809526
347.949,-35.01402857142858
350.751,-48.155693809523825
353.55,-32.69986166666669
356.348,-38.309175714285715
359.144,-30.26305499999998
361.937,7.5416719047619365
364.729,37.686238333333364
367.518,47.991787142857234
370.306,143.28134285714302
373.091,276.9983428571431
375.874,366.01681428571453
378.656,448.9265904761907
381.435,416.7953142857144
384.212,265.3115000000001
386.988,154.35564761904766
389.761,55.09517619047621
392.532,17.889942857142948
395.301,71.5293857142858
398.068,107.18553333333338
400.833,107.60346190476194
403.596,86.00559523809525
406.358,33.37768571428574
409.117,19.18301904761906
411.874,10.076385714285722
414.629,3.5711238095238325
417.382,34.99124285714288
420.133,27.709471428571447
422.882,42.00442857142863
425.629,93.63165714285724
428.374,146.87195714285727
431.117,204.29253333333352
433.858,277.46154285714294
436.597,280.42423809523825
439.334,257.1310952380954
442.069,234.43814285714296
444.802,203.91704761904774
447.533,167.7112380952382
450.262,182.29804761904774
452.989,202.96480952380966
455.714,218.2849047619049
458.438,242.8804285714287
461.159,236.61190476190484
463.878,188.8167142857144
466.595,165.165761904762
469.31,133.61566666666675
472.024,154.6476666666668
474.735,185.2196380952382
477.444,176.14661428571435
480.152,150.7678476190477
482.857,154.32790952380958
485.561,140.49941904761917
488.262,177.90828095238106
490.962,183.18040000000005
493.659,171.94176190476202
496.355,149.53242857142868
499.048,139.95966666666675
501.74,131.8498095238096
504.43,142.06714285714295
507.118,145.47638095238105
509.804,150.5134761904763
512.488,183.23345714285728
515.17,175.5958857142858
517.85,159.46558095238103
520.528,158.8018761904763
523.204,151.56445714285724
525.878,119.76036666666673
528.551,122.44445238095241
531.221,101.05209523809528
533.89,79.63788095238101
536.556,68.58955238095243
539.221,82.77082380952388
541.883,93.71184285714293
544.544,99.0379952380953
547.203,125.7075333333334
549.86,127.7742571428572
552.515,113.52940000000008
555.168,112.21693333333339
557.819,111.46119047619055
560.469,107.55284285714293
563.116,115.5918333333334
565.761,100.72588571428578
568.405,93.53065238095245
571.047,94.9630476190477
573.687,122.6935476190477
576.324,154.20205714285726
578.96,166.25399047619055
581.594,159.23342857142865
584.227,163.33399047619056
586.857,144.70111904761913
589.485,128.0513952380953
592.112,119.19662380952389
594.737,109.61490000000006
597.359,113.92703333333343
599.98,132.56297619047626
602.599,143.00000952380958
605.216,112.00100000000003
607.831,77.28089523809525
610.445,29.36401428571429
613.056,23.250676190476227
615.666,11.79777619047622
618.274,53.00503809523815
620.88,90.01503333333339
623.484,117.8745238095239
626.086,129.3446952380953
628.686,146.9005047619048
631.284,130.06433333333342
633.881,144.64404761904774
636.476,156.25714285714298
639.068,166.80619047619058
641.659,181.336761904762
644.249,189.60859047619059
646.836,163.61895619047627
649.421,111.79371571428575
652.005,62.41593142857146
654.587,47.529993809523866
657.166,64.84701142857149
659.745,77.26876000000003
662.321,78.17259714285716
664.895,39.36459857142859
667.468,18.127050476190497
670.038,13.932377619047639
672.607,25.443594285714312
675.174,46.37120000000006
677.739,84.04482380952386
680.303,101.79391428571435
682.864,121.37667619047625
685.424,120.36081809523814
687.982,93.12354380952384
690.538,65.13723333333334
693.092,15.922057142857131
695.645,-15.144822857142849
698.195,-13.685973333333324
700.744,-0.847722857142843
703.291,16.36654952380955
705.836,34.28680000000003
708.38,56.81476190476195
710.921,82.70903523809528
713.461,65.49038523809526
715.999,67.48918000000005
718.535,77.178590952381
721.069,77.6512133333334
723.602,103.1424614285715
726.133,111.3639066666667
728.662,81.88443333333339
731.189,91.74912761904767
733.714,82.19348809523812
736.238,48.12005380952383
738.759,35.383510000000015
741.279,28.648380476190507
743.798,35.29337952380956
746.314,57.22114523809527
748.829,62.81059142857144
751.342,38.250185714285735
753.853,45.87134285714289
756.362,49.767447619047644
758.869,42.8890285714286
761.375,34.520066666666686
763.879,33.89702857142859
766.381,28.78020000000004
768.882,44.215633333333365
771.38,53.58280952380956
773.877,68.21380476190481
776.372,87.4879571428572
778.866,108.40407142857148
781.357,112.7704666666667
783.847,97.44310952380957
786.335,86.3256333333334
788.821,109.41721428571437
791.306,114.33569047619055
793.789,113.60405238095244
796.27,102.03117142857147
798.749,96.99704285714293
801.227,111.1674380952382
803.702,172.73248095238108
806.176,174.64382857142866
808.649,167.66269523809535
811.119,143.503280952381
813.588,102.83161428571435
816.055,96.83800476190484
818.521,118.04602380952387
820.984,129.26486476190485
823.446,116.58943380952384
825.906,90.25792952380955
828.365,65.55612809523815
830.821,74.72206285714292
833.276,95.99387666666676
835.729,126.03861714285719
838.181,118.42769523809531
840.631,131.59024761904772
843.079,137.431461904762
845.525,128.04671428571436
847.97,118.15093333333338
850.412,96.22090000000004
852.854,68.63802857142862
855.293,83.02207142857148
857.731,76.99297142857147
860.167,65.5992047619048
862.601,48.698819047619075
865.034,60.10233333333338
867.465,61.81080000000004
869.894,68.77750952380956
872.321,57.76575619047621
874.747,27.967201428571425
877.171,-2.521606666666637
879.594,19.539050952380997
882.014,61.38838380952387
884.433,92.36149190476198
886.851,126.22195142857151
889.266,135.97141904761915
891.68,153.04009523809535
894.092,165.28741904761915
896.503,156.95282380952386
898.912,136.0386000000001
901.319,115.07060476190482
903.724,107.71726666666677
906.128,148.7428238095239
908.53,181.57813333333345
910.931,192.60623809523818
913.329,181.4010952380953
915.726,182.20309523809536
918.122,174.681142857143
920.516,164.79028571428583
922.908,154.00890476190483
925.298,134.91114285714292
927.687,106.26157142857151
930.074,126.87239047619053
932.459,129.41278571428577
934.843,119.88534952380958
937.225,94.19751380952384
939.605,57.63786571428574
941.984,26.018757619047634
944.361,17.533589523809546
946.736,31.899304285714322
949.11,38.64260190476191
951.482,23.671126190476198
953.853,17.511580952380957
956.222,6.881164285714301
958.589,11.1636666666667
960.954,49.69546428571432
963.318,59.05066666666671
965.68,71.04167619047624
968.041,90.76653809523815
970.4,85.37081428571432
972.757,65.90480000000004
975.113,68.41886666666669
977.467,52.2486485714286
979.819,34.82519380952384
982.17,36.198406666666685
984.519,37.84660142857146
986.866,39.77188285714291
989.212,71.11876047619054
991.556,105.17500095238103
993.899,133.70397619047628
996.24,157.75493809523817
998.579,166.4244857142858
1000.92,155.6660476190477
1003.25,146.38538095238104
1005.59,145.63148571428582
1007.92,124.54786666666672
1010.25,110.13535238095244
1012.58,114.96622857142864
1014.91,117.18359047619055
1017.24,130.59728571428582
1019.56,127.77926190476195
1021.88,106.6344095238096
1024.2,105.54370000000009
1026.52,126.93593333333342
1028.84,158.66810952380968
1031.16,195.54937142857153
1033.48,222.4844285714287
1035.79,256.4727619047621
1038.1,281.4186666666668
1040.41,273.79790476190493
1042.72,286.0858095238097
1045.03,276.51976190476205
1047.33,266.8132857142859
1049.64,242.91776190476205
1051.94,200.11800000000008
1054.24,151.41309523809534
1056.54,148.89714285714297
1058.84,151.8544761904763
1061.13,185.52209523809537
1063.43,201.18442857142867
1065.72,194.17309523809536
1068.01,178.01057142857155
1070.3,208.02866666666682
1072.59,216.13057142857156
1074.87,242.64804761904776
1077.16,233.7224285714287
1079.44,221.49447619047632
1081.72,210.43871428571447
1084.0,244.9817619047621
1086.28,309.50319047619075
1088.56,431.00071428571465
1090.84,567.9963333333337
1093.11,660.8210000000005
1095.38,666.3773809523811
1097.65,597.7590000000004
1099.92,514.6779523809527
1102.19,433.56076190476216
1104.46,392.73852380952405
1106.72,371.49461904761927
1108.98,361.112523809524
1111.24,406.3997142857146
1113.5,462.54423809523837
1115.76,515.2106666666671
1118.02,549.7298095238098
1120.28,582.6709523809526
1122.53,547.5077619047622
1124.78,513.9524285714289
1127.03,463.05023809523834
1129.28,406.8942380952384
1131.53,384.0056190476193
1133.77,351.47719047619063
1136.02,296.9732380952383
1138.26,245.92038095238107
1140.5,224.17304761904774
1142.74,215.82476190476206
1144.98,229.39666666666682
1147.22,244.4100952380954
1149.45,242.19628571428586
1151.69,235.8480952380954
1153.92,225.0774857142858
1156.15,185.02539047619052
1158.38,135.59419047619056
1160.61,117.21032857142863
1162.83,84.77649523809531
1165.06,98.52855238095245
1167.28,82.98841428571431
1169.5,57.9158047619048
1171.72,53.07060000000003
1173.94,54.260404761904816
1176.16,77.9595352380953
1178.37,85.8327066666667
1180.58,71.35426571428576
1182.8,58.61768857142861
1185.01,49.430828476190506
1187.22,32.98253633333336
1189.42,38.842775523809536
1191.63,31.390975571428598
1193.84,25.863826000000024
1196.04,34.498167761904796
1198.24,54.91188657142861
1200.44,65.62770000000005
1202.64,91.21610476190482
1204.84,81.77149523809526
1207.03,65.8645904761905
1209.23,30.542442857142856
1211.42,14.233247619047654
1213.61,30.55564285714291
1215.8,71.84312380952386
1217.99,84.66721428571435
1220.18,98.12348095238099
1222.36,80.97422857142861
1224.55,54.64864285714288
1226.73,55.95684095238099
1228.91,47.18568380952383
1231.09,38.717139047619064
1233.27,24.12386380952383
1235.44,38.02634857142861
1237.62,50.28306952380957
1239.79,65.41947428571432
1241.96,74.96110000000003
1244.13,68.62410000000003
1246.3,51.41051904761909
1248.47,58.5128047619048
1250.64,87.2189571428572
1252.8,83.76939047619051
1254.96,76.78556190476195
1257.13,61.31758571428574
1259.29,48.84425238095242
1261.44,65.22512857142864
1263.6,87.939380952381
1265.76,97.27565238095242
1267.91,98.61761428571435
1270.06,104.5873714285715
1272.22,109.37837619047627
1274.37,126.85087619047626
1276.51,126.57957142857151
1278.66,128.42490476190486
1280.81,144.72333333333341
1282.95,145.85923809523817
1285.09,139.50276190476197
1287.23,138.9428571428572
1289.37,138.8496952380953
1291.51,114.32182380952386
1293.65,97.31511904761909
1295.78,62.3568904761905
1297.92,41.403266666666696
1300.05,28.12429047619051
1302.18,50.04744761904767
1304.31,61.08099047619053
1306.44,83.94281428571435
1308.57,96.54115238095243
1310.69,102.49860476190482
1312.82,84.48540000000006
1314.94,91.31458571428578
1317.06,119.37075238095248
1319.18,137.22875714285723
1321.3,167.1775047619049
1323.41,193.9347523809525
1325.53,228.0278095238097
1327.64,268.69823809523825
1329.75,327.56857142857166
1331.87,355.49890476190495
1333.98,365.77809523809543
1336.08,356.26633333333353
1338.19,340.8240476190478
1340.3,285.6924285714287
1342.4,240.77923809523824
1344.5,214.610761904762
1346.6,178.61838095238105
1348.7,175.66223809523822
1350.8,165.07828571428578
1352.9,145.20228571428584
1354.99,144.22752380952392
1357.09,146.96538095238103
1359.18,155.56104761904774
1361.27,185.82666666666677
1363.36,201.14471428571443
1365.45,208.37404761904773
1367.54,215.99319047619062
1369.62,201.33700000000013
1371.7,217.69261904761922
1373.79,239.39500000000015
1375.87,273.1120000000002
1377.95,290.892142857143
1380.03,294.260523809524
1382.1,278.2655714285716
1384.18,266.38409523809537
1386.25,242.18814285714296
1388.33,225.1067809523811
1390.4,179.5686571428572
1392.47,123.95480000000003
1394.54,76.8840904761905
1396.6,38.97544761904765
1398.67,27.037780952380984
1400.74,45.73712380952385
1402.8,61.02504761904767
1404.86,85.47196666666672
1406.92,87.076680952381
1408.98,66.93308571428574
1411.04,60.89663809523813
1413.09,57.82295238095242
1415.15,54.85305714285718
1417.2,77.08022380952387
1419.25,88.69286190476195
1421.3,82.02202857142863
1423.35,96.92258571428577
1425.4,92.58252380952385
1427.45,86.2373571428572
1429.49,84.17012380952386
1431.54,67.71147142857147
1433.58,88.04899047619055
1435.62,103.41816666666672
1437.66,129.38717142857155
1439.7,154.3815857142858
1441.74,142.30314285714292
1443.77,123.57750476190486
1445.81,146.34436190476197
1447.84,136.98157142857153
1449.87,154.6282380952382
1451.9,179.5194000000001
1453.93,156.79463809523818
1455.96,161.30808571428582
1457.98,166.43745714285723
1460.01,153.8463238095239
1462.03,167.15001904761917
1464.05,186.72654285714296
1466.07,184.85857142857157
1468.09,204.25738095238108
1470.11,209.96733333333344
1472.13,193.08071428571435
1474.14,189.0230190476191
1476.16,122.98182857142861
1478.17,100.33544761904768
1480.18,74.89067619047624
1482.19,80.64482285714293
1484.2,72.73810857142863
1486.21,74.45388380952383
1488.21,45.59925333333338
1490.22,62.267212380952415
1492.22,55.88415619047623
1494.22,66.30527047619049
1496.22,59.48082857142859
1498.22,30.361347619047635
1500.22,30.70691428571432
1502.22,46.9920666666667
1504.21,56.92948095238099
1506.21,59.47001428571433
1508.2,69.61227142857146
1510.19,54.40253809523813
1512.18,56.934842857142904
1514.17,64.54137619047621
1516.16,49.55444285714287
1518.14,19.258709523809543
1520.13,31.32006190476195
1522.11,54.68995238095244
1524.09,77.9391190476191
1526.07,107.82860952380958
1528.05,113.881780952381
1530.03,76.81226190476195
1532.01,80.85789523809528
1533.98,85.87505238095241
1535.96,67.1013666666667
1537.93,77.48848095238102
1539.9,105.94112857142864
1541.87,109.88723809523819
1543.84,155.8980904761906
1545.81,169.92540476190482
1547.78,133.92130476190482
1549.74,133.17087142857153
1551.7,141.43601904761914
1553.67,169.19260476190487
1555.63,203.67834285714295
1557.59,192.9881904761906
1559.55,171.7410000000001
1561.5,171.65057142857154
1563.46,159.0025238095239
1565.41,145.27319047619056
1567.37,136.0808095238096
1569.32,144.5684761904763
1571.27,149.73585714285727
1573.22,179.2017142857144
1575.17,187.01352380952392
1577.11,168.50471428571439
1579.06,166.1035238095239
1581.0,184.04823809523822
1582.95,177.62433333333345
1584.89,192.3080476190477
1586.83,189.0040476190477
1588.77,178.99780952380962
1590.7,179.86080952380962
1592.64,186.83114285714296
1594.58,196.5515952380954
1596.51,209.09388095238117
1598.44,224.12483333333364
