Raman Shift,Processed Intensity
331.095,-5.76785571428572
333.909,-13.82343190476196
336.721,-13.200229761904811
339.531,-9.285017619047624
342.339,-9.465202380952398
345.145,-16.674914761904773
347.949,-17.345915238095248
350.751,-11.050940952380973
353.55,-46.313360952381
356.348,-52.65431619047621
359.144,-54.92634000000001
361.937,-57.1704380952381
364.729,-16.90181428571425
367.518,41.08077142857149
370.306,115.21842380952396
373.091,234.24020476190495
375.874,332.1628571428573
378.656,343.90938095238107
381.435,294.4522857142858
384.212,212.7181333333334
386.988,142.5401190476191
389.761,90.61005238095244
392.532,87.24060952380957
395.301,73.8885523809524
398.068,62.29799047619052
400.833,77.023840952381
403.596,66.76555285714288
406.358,50.985591428571446
409.117,31.624020952380956
411.874,8.622167619047637
414.629,13.97016952380956
417.382,43.706931428571465
420.133,50.1582023809524
422.882,49.174600000000034
425.629,74.94121904761914
428.374,132.88194761904776
431.117,200.42193333333347
433.858,247.32042380952393
436.597,242.766142857143
439.334,206.2342380952382
442.069,186.15280952380962
444.802,154.617380952381
447.533,148.62942857142866
450.262,163.57166666666677
452.989,192.58947619047638
455.714,223.39971428571442
458.438,252.24380952380966
461.159,252.9350190476192
463.878,219.81130476190486
466.595,187.1632285714287
469.31,151.18645714285725
472.024,159.50513333333345
474.735,172.79192380952395
477.444,195.62406666666678
480.152,182.00804761904772
482.857,177.95066666666676
485.561,148.83933333333346
488.262,186.58576190476202
490.962,178.7209523809525
493.659,195.34714285714298
496.355,215.28100000000012
499.048,215.48250476190486
501.74,157.76821904761914
504.43,145.9077714285715
507.118,129.57525714285725
509.804,145.77796190476204
512.488,217.7612666666668
515.17,251.81821904761915
517.85,225.24180952380965
520.528,195.80114285714296
523.204,154.69400000000007
525.878,109.16538095238104
528.551,108.17440476190482
531.221,115.6323333333334
533.89,119.16505238095245
536.556,118.06437142857149
539.221,94.6225428571429
541.883,88.17880000000005
544.544,97.31026190476199
547.203,128.16561904761912
549.86,152.08385238095246
552.515,140.07003809523817
555.168,110.9387714285715
557.819,113.69482857142867
560.469,145.0093904761906
563.116,155.50560000000007
565.761,170.18779047619057
568.405,181.01217142857152
571.047,168.8393857142858
573.687,156.33939047619057
576.324,143.27723333333338
578.96,98.98896190476196
581.594,105.7155761904763
584.227,130.55431428571436
586.857,142.31690476190485
589.485,121.62395714285718
592.112,96.3342428571429
594.737,63.163557142857194
597.359,69.35090000000005
599.98,81.84957619047627
602.599,105.18409523809528
605.216,105.59263809523816
607.831,109.0755847619048
610.445,78.77569904761909
613.056,60.406938095238125
615.666,24.492948095238106
618.274,27.985106666666713
620.88,39.834999523809564
623.484,64.04172666666672
626.086,89.65159000000006
628.686,105.66334952380959
631.284,113.3613238095239
633.881,157.83883809523817
636.476,159.37975238095248
639.068,160.45801904761913
641.659,161.54780952380958
644.249,131.69436666666672
646.836,102.08578571428576
649.421,84.52893333333338
652.005,57.83048571428574
654.587,41.13043333333337
657.166,51.283047619047665
659.745,68.28515238095241
662.321,59.228852380952425
664.895,80.11083333333339
667.468,92.5469047619048
670.038,81.00986666666674
672.607,108.01987619047625
675.174,112.764080952381
677.739,95.5246714285715
680.303,98.20271904761911
682.864,104.5090333333334
685.424,122.44010952380961
687.982,137.4210428571429
690.538,119.63890000000002
693.092,51.18549523809523
695.645,25.866719047619092
698.195,17.96512380952384
700.744,33.14422380952385
703.291,52.21054285714289
705.836,55.875380952380965
708.38,28.18348571428575
710.921,56.84624285714288
713.461,49.33736190476193
715.999,60.08293809523815
718.535,66.60424285714288
721.069,75.61314761904768
723.602,113.1074657142858
726.133,126.60885619047625
728.662,86.16288380952385
731.189,56.00581523809525
733.714,28.087869523809566
736.238,26.693108571428624
738.759,57.58185142857147
741.279,71.56200000000004
743.798,72.91775714285718
746.314,63.74298095238099
748.829,75.51237142857147
751.342,60.74867142857145
753.853,58.73658571428575
756.362,64.61783809523814
758.869,76.67713809523815
761.375,99.29476666666673
763.879,123.6126952380953
766.381,112.82072380952387
768.882,83.68037619047621
771.38,82.6670952380953
773.877,60.92353809523815
776.372,79.02092380952388
778.866,81.29230000000004
781.357,75.54710000000004
783.847,74.0709733333334
786.335,77.00672095238097
788.821,76.16433619047625
791.306,69.16286142857143
793.789,33.716997142857174
796.27,35.73177666666673
798.749,78.58853809523816
801.227,111.47861095238108
803.702,172.49808476190486
806.176,205.98093333333344
808.649,182.5469095238096
811.119,180.1968000000001
813.588,159.78859523809533
816.055,121.70445714285721
818.521,92.94554761904769
820.984,83.32258095238099
823.446,57.02708095238101
825.906,77.15579047619053
828.365,99.13820476190483
830.821,98.73779047619053
833.276,109.09872857142864
835.729,105.55590000000007
838.181,111.96784761904769
840.631,98.76480476190481
843.079,109.09074285714291
845.525,90.32847142857148
847.97,82.86040000000004
850.412,69.54533333333339
852.854,79.95623809523813
855.293,63.618566666666716
857.731,65.48620476190479
860.167,59.51325238095241
862.601,44.082257142857166
865.034,46.14720952380956
867.465,44.70971666666669
869.894,34.723790476190494
872.321,20.5719404761905
874.747,33.35098095238098
877.171,31.63387857142861
879.594,46.56507619047623
882.014,80.05062857142863
884.433,107.6160952380953
886.851,130.26274285714294
889.266,155.75411428571437
891.68,157.3772476190477
894.092,140.80016190476198
896.503,122.26213809523817
898.912,122.33618095238104
901.319,126.68992857142864
903.724,117.80112857142865
906.128,132.90879523809534
908.53,149.96683333333343
910.931,174.97632380952396
913.329,210.36675714285727
915.726,233.13920952380965
918.122,220.62828571428582
920.516,212.12019047619057
922.908,181.80690476190483
925.298,167.21285714285722
927.687,146.4818095238096
930.074,146.70966666666675
932.459,146.84986666666674
934.843,144.28375714285718
937.225,116.72653809523813
939.605,86.98823333333338
941.984,93.59346190476198
944.361,99.0661714285715
946.736,102.83560380952386
949.11,77.3306966666667
951.482,57.40875523809528
953.853,52.59407000000005
956.222,71.79170285714291
958.589,69.76373952380956
960.954,82.93867047619051
963.318,60.55483333333338
965.68,71.42167142857147
968.041,87.39631904761909
970.4,78.05010952380957
972.757,86.00186952380959
975.113,84.1084123809524
977.467,44.32205571428574
979.819,43.59514000000004
982.17,55.92709380952387
984.519,83.41271238095247
986.866,125.62298142857149
989.212,151.70035714285723
991.556,142.3112380952382
993.899,166.74080952380965
996.24,210.13138095238114
998.579,266.5297619047621
1000.92,282.55428571428587
1003.25,273.4901904761906
1005.59,232.09885714285727
1007.92,188.2842857142858
1010.25,165.18847619047628
1012.58,164.2391904761906
1014.91,197.19747619047632
1017.24,209.06257142857157
1019.56,224.30990476190485
1021.88,215.0339523809525
1024.2,191.70942857142867
1026.52,190.85966666666684
1028.84,226.67428571428587
1031.16,268.34252380952404
1033.48,317.5778095238097
1035.79,354.6172380952383
1038.1,357.84080952380975
1040.41,367.9617142857145
1042.72,398.78876190476217
1045.03,404.17757142857164
1047.33,397.7461428571431
1049.64,368.0648095238097
1051.94,320.41876190476205
1054.24,283.5683333333335
1056.54,294.94128571428587
1058.84,278.7743809523811
1061.13,290.11400000000015
1063.43,300.67319047619065
1065.72,297.6894285714287
1068.01,276.1139047619049
1070.3,276.8026190476192
1072.59,265.8973333333335
1074.87,266.30142857142874
1077.16,279.39471428571443
1079.44,312.12876190476214
1081.72,338.69271428571454
1084.0,389.895285714286
1086.28,476.4973333333337
1088.56,585.0690000000004
1090.84,709.5139523809529
1093.11,795.1170952380957
1095.38,801.1628571428574
1097.65,710.6979523809528
1099.92,611.2927619047623
1102.19,515.4224761904765
1104.46,444.8003333333336
1106.72,413.9970000000003
1108.98,450.3925238095241
1111.24,475.9382380952385
1113.5,550.633285714286
1115.76,595.572047619048
1118.02,617.5631904761908
1120.28,612.3675714285718
1122.53,594.4131904761908
1124.78,543.6994285714288
1127.03,534.558666666667
1129.28,490.1331428571432
1131.53,450.51761904761923
1133.77,395.5204761904764
1136.02,357.23657142857166
1138.26,330.99880952380977
1140.5,329.4730952380954
1142.74,310.89733333333356
1144.98,301.17576190476206
1147.22,321.68842857142874
1149.45,324.5306190476192
1151.69,300.5589523809525
1153.92,266.5349523809525
1156.15,210.88733333333346
1158.38,176.18700000000013
1160.61,185.2434285714287
1162.83,178.67576190476203
1165.06,185.76914285714298
1167.28,162.90454761904766
1169.5,121.03461904761912
1171.72,112.06397619047627
1173.94,111.18371428571436
1176.16,124.39367142857152
1178.37,145.3606714285715
1180.58,105.89453333333338
1182.8,94.94816380952388
1185.01,81.37895476190478
1187.22,42.94947571428574
1189.42,29.136201428571447
1191.63,42.46379857142861
1193.84,51.31359095238102
1196.04,96.35340238095245
1198.24,116.29774571428578
1200.44,105.24288571428576
1202.64,103.95180476190482
1204.84,117.85410000000006
1207.03,104.28393809523814
1209.23,79.19503333333336
1211.42,49.350109523809536
1213.61,36.22683714285718
1215.8,28.445725238095264
1217.99,43.15085523809526
1220.18,44.10565571428573
1222.36,38.78782190476193
1224.55,33.05608238095242
1226.73,67.53134190476194
1228.91,54.453273809523836
1231.09,56.91892857142861
1233.27,48.50167857142859
1235.44,41.20345238095241
1237.62,40.45485952380956
1239.79,56.639080952380986
1241.96,70.04391904761911
1244.13,75.48100000000004
1246.3,80.57175238095245
1248.47,79.41360000000005
1250.64,95.29447619047626
1252.8,103.50242857142864
1254.96,123.32578095238101
1257.13,98.0525428571429
1259.29,89.11396190476195
1261.44,74.51224761904767
1263.6,76.72591904761909
1265.76,70.75743809523813
1267.91,83.37107142857147
1270.06,83.56942857142863
1272.22,91.92644285714292
1274.37,105.30164285714292
1276.51,111.79251428571435
1278.66,107.92535714285724
1280.81,131.70210476190485
1282.95,147.2683714285715
1285.09,164.00709523809533
1287.23,174.82547619047628
1289.37,167.01133333333343
1291.51,144.66193809523816
1293.65,99.58860952380957
1295.78,64.88882380952386
1297.92,56.94520952380957
1300.05,63.42640476190481
1302.18,78.23908571428578
1304.31,109.00389523809528
1306.44,108.05550476190484
1308.57,123.49078095238104
1310.69,139.4063142857144
1312.82,152.23204761904773
1314.94,151.49338095238105
1317.06,182.76276190476202
1319.18,178.42228571428583
1321.3,181.3779047619049
1323.41,209.3920476190478
1325.53,257.7517619047621
1327.64,322.98171428571453
1329.75,378.93961904761926
1331.87,402.00723809523834
1333.98,402.2330000000003
1336.08,399.1411428571431
1338.19,377.73233333333354
1340.3,353.3879523809526
1342.4,303.63214285714304
1344.5,272.1793809523811
1346.6,246.64933333333346
1348.7,220.56614285714298
1350.8,181.88223809523822
1352.9,161.40704761904772
1354.99,154.66438095238107
1357.09,166.65433333333345
1359.18,216.13900000000012
1361.27,234.26119047619062
1363.36,243.63966666666678
1365.45,257.65504761904776
1367.54,254.21190476190492
1369.62,244.21452380952397
1371.7,296.56780952380973
1373.79,307.03290476190494
1375.87,313.27604761904786
1377.95,327.91614285714303
1380.03,319.428523809524
1382.1,283.7173809523811
1384.18,282.5919047619049
1386.25,245.1464285714287
1388.33,211.66638095238108
1390.4,192.150761904762
1392.47,167.16995238095245
1394.54,156.05686666666676
1396.6,139.8105095238096
1398.67,129.04935238095248
1400.74,147.67729047619056
1402.8,138.07391428571435
1404.86,122.00015714285723
1406.92,136.40754285714294
1408.98,117.24750476190484
1411.04,132.61445714285725
1413.09,140.6499571428572
1415.15,113.92445714285722
1417.2,108.24617619047629
1419.25,134.61383809523818
1421.3,146.21701428571438
1423.35,173.62589523809532
1425.4,157.26771428571436
1427.45,134.71295238095246
1429.49,124.91238095238103
1431.54,116.76966666666675
1433.58,128.7120476190477
1435.62,144.40490476190485
1437.66,162.9420761904763
1439.7,159.46521904761914
1441.74,147.59205714285724
1443.77,138.22601904761916
1445.81,156.4606761904763
1447.84,185.2473142857144
1449.87,209.5843142857144
1451.9,192.7085238095239
1453.93,185.85685714285728
1455.96,182.88461904761914
1457.98,189.83814285714297
1460.01,205.62080952380964
1462.03,194.897761904762
1464.05,182.09638095238108
1466.07,214.83428571428587
1468.09,236.30023809523826
1470.11,240.25495238095252
1472.13,228.6492380952382
1474.14,182.00523809523818
1476.16,143.98867619047627
1478.17,134.93130000000005
1480.18,102.78402380952383
1482.19,87.59330952380958
1484.2,76.16715238095243
1486.21,69.50385238095242
1488.21,84.50716190476196
1490.22,89.84221904761908
1492.22,66.98388095238099
1494.22,56.88332380952383
1496.22,44.062919047619076
1498.22,26.521385714285728
1500.22,20.6383761904762
1502.22,15.031638095238101
1504.21,15.557028571428589
1506.21,16.07047619047621
1508.2,19.999361904761916
1510.19,33.48531904761908
1512.18,39.050961904761934
1514.17,51.45696666666671
1516.16,57.60693333333336
1518.14,54.21404761904764
1520.13,30.943861904761935
1522.11,53.41441904761909
1524.09,57.81506190476195
1526.07,72.85910000000005
1528.05,83.831280952381
1530.03,74.49261428571431
1532.01,60.41370476190482
1533.98,77.49858095238099
1535.96,42.746433333333364
1537.93,58.204333333333395
1539.9,78.30016666666671
1541.87,82.17650000000008
1543.84,109.54692380952389
1545.81,126.03028571428575
1547.78,96.91184285714294
1549.74,113.38227619047626
1551.7,125.155361904762
1553.67,146.7077047619049
1555.63,168.18184761904772
1557.59,162.6255714285715
1559.55,156.13428571428582
1561.5,147.66085714285722
1563.46,142.53843809523818
1565.41,128.62484285714294
1567.37,130.63478095238102
1569.32,128.80653809523818
1571.27,139.99816190476201
1573.22,143.06708095238102
1575.17,134.6328190476191
1577.11,133.5534761904763
1579.06,139.21078571428578
1581.0,133.31952380952387
1582.95,138.6427857142858
1584.89,138.60961904761913
1586.83,126.64940476190486
1588.77,139.6205238095239
1590.7,146.80938095238105
1592.64,143.55019047619058
1594.58,158.1537380952383
1596.51,165.69238095238117
1598.44,155.50045238095245
