Raman Shift,Processed Intensity
331.095,64.10423285714285
333.909,7.590972380952316
336.721,-32.921389047619115
339.531,-56.48952476190478
342.339,-54.78998666666667
345.145,-42.71244000000002
347.949,-49.976794285714305
350.751,-33.87200190476191
353.55,-15.256034285714296
356.348,-23.508267619047626
359.144,-14.57712857142857
361.937,13.97225714285717
364.729,29.3866190476191
367.518,57.96255714285722
370.306,150.90365238095254
373.091,255.5107142857145
375.874,346.753404761905
378.656,404.7937142857145
381.435,378.7958871428573
384.212,248.64004071428582
386.988,132.54147190476195
389.761,58.193447380952435
392.532,44.67172904761914
395.301,93.48235500000011
398.068,152.7999633333334
400.833,168.32408095238102
403.596,123.66059047619049
406.358,84.22636666666669
409.117,48.01081904761908
411.874,46.33819047619051
414.629,32.39121904761908
417.382,56.44872857142862
420.133,55.838680952381
422.882,70.79472857142864
425.629,127.6942904761906
428.374,198.43973333333346
431.117,263.9821285714288
433.858,300.8920571428573
436.597,294.1220952380954
439.334,263.4826190476192
442.069,225.35614285714297
444.802,211.12642857142873
447.533,210.70114285714297
450.262,244.1790476190478
452.989,282.94538095238113
455.714,318.24276190476206
458.438,303.6000476190478
461.159,277.07095238095246
463.878,207.8989523809525
466.595,190.99547619047632
469.31,162.98628571428586
472.024,182.54476190476203
474.735,229.39261904761918
477.444,251.34680952380964
480.152,279.79595238095254
482.857,273.98600000000016
485.561,241.0199047619049
488.262,238.0487142857144
490.962,231.2239523809525
493.659,215.7438285714287
496.355,200.42647142857155
499.048,169.89884761904773
501.74,146.0741000000001
504.43,149.05589523809536
507.118,167.85251904761918
509.804,174.5196380952382
512.488,186.35123809523824
515.17,214.49811428571442
517.85,194.1111142857144
520.528,179.769561904762
523.204,176.48069523809534
525.878,141.34765714285723
528.551,154.75865714285723
531.221,136.3399047619048
533.89,89.14605238095243
536.556,70.51734761904767
539.221,67.50778571428576
541.883,81.26695714285722
544.544,102.46757619047624
547.203,87.68693809523816
549.86,108.83570476190485
552.515,147.82415238095248
555.168,153.60985714285724
557.819,186.34076190476202
560.469,188.02161904761914
563.116,163.41876190476202
565.761,153.15576190476202
568.405,164.47471428571436
571.047,146.04585714285722
573.687,172.68195238095248
576.324,171.00552380952388
578.96,173.44771428571437
581.594,180.77354285714296
584.227,154.22342380952392
586.857,170.32323809523822
589.485,172.17006190476198
592.112,142.43234285714294
594.737,126.63513809523815
597.359,110.63709047619051
599.98,63.53419047619054
602.599,87.51770000000005
605.216,77.58812857142861
607.831,80.69802857142862
610.445,84.41920476190481
613.056,103.79894761904768
615.666,78.07530952380954
618.274,78.67647142857147
620.88,67.74474761904764
623.484,57.13660000000005
626.086,70.3752714285715
628.686,104.45934285714291
631.284,98.29271904761913
633.881,142.3504857142858
636.476,138.9646190476191
639.068,120.75283809523818
641.659,121.42770666666672
644.249,89.2730971428572
646.836,57.09673238095242
649.421,61.37296000000001
652.005,48.813860952381
654.587,42.750668571428605
657.166,64.13309714285717
659.745,58.33982380952384
662.321,70.74914761904768
664.895,99.59666190476196
667.468,103.30790952380957
670.038,99.21341428571432
672.607,94.21487142857147
675.174,79.45211428571436
677.739,99.16001428571435
680.303,124.4784952380953
682.864,116.1184857142858
685.424,147.12424095238103
687.982,125.92090047619051
690.538,95.60033904761909
693.092,53.016137619047626
695.645,29.307842857142884
698.195,7.995925714285741
700.744,21.36253904761906
703.291,33.16619857142861
705.836,43.49872190476192
708.38,36.26150142857147
710.921,57.40355619047622
713.461,48.9691285714286
715.999,58.43119047619055
718.535,89.26256666666673
721.069,101.84102857142864
723.602,130.8298857142858
726.133,113.51175238095242
728.662,91.26428571428579
731.189,67.46557142857147
733.714,75.39812380952388
736.238,80.7734571428572
738.759,107.44562857142863
741.279,107.45955238095246
743.798,107.47882380952385
746.314,77.26268571428577
748.829,89.76071904761909
751.342,78.7799428571429
753.853,81.36540476190481
756.362,81.80037142857145
758.869,68.79657142857147
761.375,56.065976190476235
763.879,75.03467619047623
766.381,87.27204285714292
768.882,80.53775714285717
771.38,66.97275714285719
773.877,62.00329047619052
776.372,93.24643809523819
778.866,119.98600000000006
781.357,141.7916476190477
783.847,119.56653809523813
786.335,107.26140000000007
788.821,93.82679523809531
791.306,111.78520000000006
793.789,108.51619047619054
796.27,113.68466666666673
798.749,116.7180476190477
801.227,130.56766666666675
803.702,173.04185714285725
806.176,203.18733333333344
808.649,200.52695238095245
811.119,192.25019047619054
813.588,161.87995238095243
816.055,123.36857142857151
818.521,140.33390476190485
820.984,149.1088095238096
823.446,145.45485714285724
825.906,143.51476190476197
828.365,130.47838095238103
830.821,117.44142857142866
833.276,125.02247619047628
835.729,139.9832857142858
838.181,169.3720000000001
840.631,175.61752380952393
843.079,176.10066666666677
845.525,170.58411428571435
847.97,123.78270952380957
850.412,96.88734285714294
852.854,87.37541428571434
855.293,77.5334190476191
857.731,86.07631904761911
860.167,95.52906190476195
862.601,77.84533333333339
865.034,87.83588095238099
867.465,68.64498095238098
869.894,41.65510952380954
872.321,37.15357619047621
874.747,25.23742380952384
877.171,50.3369476190477
879.594,102.59700476190484
882.014,133.82911904761914
884.433,149.4643190476191
886.851,156.07627619047625
889.266,148.04819047619057
891.68,160.66795238095247
894.092,157.128761904762
896.503,171.9566666666668
898.912,191.05950476190486
901.319,178.58274285714296
903.724,156.0052476190477
906.128,162.90111428571439
908.53,162.36877142857156
910.931,171.6013142857144
913.329,186.79231428571438
915.726,191.94447619047628
918.122,175.1085714285715
920.516,155.19216666666676
922.908,155.91250476190484
925.298,126.60617142857151
927.687,110.75224761904771
930.074,124.2585333333334
932.459,103.36628571428575
934.843,81.98291904761912
937.225,84.58756190476194
939.605,66.94524761904766
941.984,50.91585714285718
944.361,61.9311428571429
946.736,56.088890476190514
949.11,54.725047619047636
951.482,49.03298317142858
953.853,33.253394290476194
956.222,9.865060009523825
958.589,8.918275566666674
960.954,14.367702866666676
963.318,15.120503814285737
965.68,28.27418793333336
968.041,51.97399523809528
970.4,63.555200000000035
972.757,79.49602380952385
975.113,74.46510000000002
977.467,54.13092857142859
979.819,38.73335238095241
982.17,30.08378095238097
984.519,33.516685714285764
986.866,53.795642857142894
989.212,80.77916666666674
991.556,131.4683904761906
993.899,190.57899047619063
996.24,252.77853809523828
998.579,299.49622857142873
1000.92,302.30461904761916
1003.25,302.2996666666668
1005.59,275.5774285714287
1007.92,218.75747619047632
1010.25,175.79290476190488
1012.58,146.15990476190487
1014.91,124.66852380952389
1017.24,137.98585714285724
1019.56,139.1595714285715
1021.88,134.2848095238096
1024.2,121.83838095238103
1026.52,123.10542857142865
1028.84,131.8480000000001
1031.16,163.54219047619063
1033.48,201.37800000000013
1035.79,252.1170952380954
1038.1,268.52104761904775
1040.41,271.39900000000017
1042.72,298.559904761905
1045.03,291.1463333333335
1047.33,289.062142857143
1049.64,269.6400476190477
1051.94,227.40333333333345
1054.24,194.20833333333346
1056.54,205.00657142857153
1058.84,193.1784285714287
1061.13,212.1034285714287
1063.43,218.78100000000012
1065.72,213.97228571428585
1068.01,221.10466666666682
1070.3,221.46257142857155
1072.59,212.66400000000016
1074.87,227.80323809523824
1077.16,233.02176190476206
1079.44,242.84261904761922
1081.72,272.5980000000002
1084.0,304.4288095238097
1086.28,345.38190476190505
1088.56,473.9799047619051
1090.84,592.7448571428575
1093.11,685.7237142857147
1095.38,698.6291428571432
1097.65,614.3641428571432
1099.92,473.3565238095241
1102.19,382.6045714285716
1104.46,327.24980952380974
1106.72,339.19580952380977
1108.98,365.96485714285734
1111.24,408.1745238095241
1113.5,465.01414285714316
1115.76,513.5295238095241
1118.02,543.7671428571432
1120.28,545.8683809523812
1122.53,530.4983809523812
1124.78,491.036904761905
1127.03,450.7207142857145
1129.28,407.07200000000023
1131.53,349.8990952380954
1133.77,287.7720952380954
1136.02,264.73700000000014
1138.26,221.07876190476202
1140.5,201.9389047619049
1142.74,209.45857142857156
1144.98,214.7796666666668
1147.22,213.85328571428585
1149.45,215.2017142857144
1151.69,212.58623809523823
1153.92,209.91020000000012
1156.15,196.1724333333334
1158.38,159.9913285714286
1160.61,104.12756190476195
1162.83,66.91330952380957
1165.06,57.82402380952385
1167.28,53.382304761904784
1169.5,41.96847142857146
1171.72,44.962619047619086
1173.94,64.3162952380953
1176.16,75.98122857142862
1178.37,76.33770476190479
1180.58,66.8612466666667
1182.8,41.55132904761906
1185.01,23.693144285714304
1187.22,13.857617619047616
1189.42,-2.2413471428571317
1191.63,12.681807142857183
1193.84,46.340947142857196
1196.04,74.11681523809528
1198.24,84.72355904761908
1200.44,70.49442380952384
1202.64,64.81033809523814
1204.84,71.71917142857147
1207.03,60.125619047619075
1209.23,61.077485714285736
1211.42,40.622595238095265
1213.61,43.713540000000044
1215.8,45.87443523809526
1217.99,42.29610857142859
1220.18,29.407483809523832
1222.36,32.20900380952383
1224.55,30.415411428571478
1226.73,74.40803047619053
1228.91,86.5684028571429
1231.09,69.32560285714288
1233.27,64.77541047619052
1235.44,55.632668571428596
1237.62,45.516967619047655
1239.79,58.047764761904794
1241.96,75.89255523809527
1244.13,66.289780952381
1246.3,78.09715238095242
1248.47,76.98187142857145
1250.64,66.3254285714286
1252.8,56.747447619047655
1254.96,77.391380952381
1257.13,80.73391904761911
1259.29,115.34713809523817
1261.44,126.75530000000006
1263.6,122.3876571428572
1265.76,112.24474761904769
1267.91,138.51733333333343
1270.06,154.8727904761906
1272.22,177.93074285714297
1274.37,185.7865238095239
1276.51,191.86976190476204
1278.66,179.70480952380967
1280.81,198.3396666666668
1282.95,217.44152380952391
1285.09,214.29671428571442
1287.23,210.09604761904774
1289.37,222.45933333333346
1291.51,197.43500000000012
1293.65,187.54690476190487
1295.78,176.1764285714287
1297.92,161.895761904762
1300.05,135.08657142857152
1302.18,151.74914285714297
1304.31,153.88404761904772
1306.44,167.44414285714294
1308.57,181.90604761904774
1310.69,195.88947619047633
1312.82,207.871142857143
1314.94,231.28004761904776
1317.06,220.21180952380965
1319.18,208.00038095238108
1321.3,212.02719047619064
1323.41,245.38785714285734
1325.53,348.5116190476194
1327.64,431.3038095238098
1329.75,480.9553333333336
1331.87,530.8474761904765
1333.98,526.266666666667
1336.08,480.5940476190479
1338.19,455.9731428571432
1340.3,413.927904761905
1342.4,369.45904761904785
1344.5,360.1382857142859
1346.6,327.2521904761906
1348.7,279.89619047619067
1350.8,264.21347619047634
1352.9,267.6808571428573
1354.99,272.29876190476205
1357.09,288.97223809523825
1359.18,309.0354285714288
1361.27,312.0120476190478
1363.36,307.1407142857144
1365.45,319.8506666666669
1367.54,329.76095238095263
1369.62,341.4438571428574
1371.7,374.8521428571431
1373.79,383.08109523809543
1375.87,396.84571428571456
1377.95,421.38414285714305
1380.03,439.17304761904785
1382.1,425.40342857142883
1384.18,394.0754761904764
1386.25,358.04685714285733
1388.33,351.36566666666687
1390.4,312.60347619047633
1392.47,278.42733333333354
1394.54,242.31376190476203
1396.6,201.7389523809525
1398.67,175.60823809523822
1400.74,196.11261904761918
1402.8,200.34761904761916
1404.86,212.6466666666668
1406.92,220.81985714285727
1408.98,204.4385238095239
1411.04,172.40766666666676
1413.09,159.39466666666675
1415.15,154.54261904761916
1417.2,176.61333333333346
1419.25,194.03604761904774
1421.3,206.00109523809536
1423.35,199.50861904761913
1425.4,177.60690476190484
1427.45,165.53409523809535
1429.49,165.00476190476203
1431.54,182.8762857142858
1433.58,213.57714285714297
1435.62,211.06014285714298
1437.66,213.9444761904763
1439.7,224.94471428571438
1441.74,240.39442857142873
1443.77,255.2936190476192
1445.81,263.49961904761915
1447.84,249.53633333333346
1449.87,252.54652380952396
1451.9,248.57838095238105
1453.93,236.44109523809533
1455.96,204.84952380952393
1457.98,190.80357142857156
1460.01,199.25580952380966
1462.03,226.9203809523811
1464.05,256.03566666666677
1466.07,262.6966666666668
1468.09,253.0943809523811
1470.11,251.60966666666678
1472.13,252.81419047619065
1474.14,233.70748571428584
1476.16,193.1468428571429
1478.17,133.17982857142863
1480.18,101.94933809523818
1482.19,90.6460714285715
1484.2,103.46047619047626
1486.21,105.39238666666671
1488.21,68.5370961904762
1490.22,44.132611428571465
1492.22,43.464441904761934
1494.22,46.24696285714289
1496.22,44.81337142857144
1498.22,45.30645523809525
1500.22,15.77371190476192
1502.22,12.119758095238122
1504.21,44.53505476190481
1506.21,51.876518571428605
1508.2,62.33444428571433
1510.19,66.57538714285717
1512.18,60.98009523809528
1514.17,51.834149047619086
1516.16,50.80408714285715
1518.14,25.651555238095256
1520.13,16.37637000000001
1522.11,18.073593333333367
1524.09,33.26681095238098
1526.07,41.14629904761908
1528.05,65.66430761904766
1530.03,68.86814809523811
1532.01,52.37665333333336
1533.98,63.380067142857165
1535.96,38.068613809523825
1537.93,43.77554047619053
1539.9,63.833904285714304
1541.87,60.671954285714335
1543.84,69.09882238095244
1545.81,88.25728666666672
1547.78,72.62331428571436
1549.74,114.95858095238103
1551.7,115.3103952380953
1553.67,128.20237142857152
1555.63,145.205480952381
1557.59,142.70050476190482
1559.55,130.59182857142866
1561.5,134.4030238095239
1563.46,111.84822857142865
1565.41,98.02240476190482
1567.37,95.35381904761913
1569.32,99.36582380952389
1571.27,99.29621428571434
1573.22,110.14468571428577
1575.17,100.05395714285719
1577.11,103.59494285714293
1579.06,93.86277142857149
1581.0,102.28566666666673
1582.95,98.4824190476191
1584.89,98.69063809523813
1586.83,75.76732380952386
1588.77,86.94995238095242
1590.7,88.1907476190477
1592.64,108.91818095238102
1594.58,130.2983833333334
1596.51,145.85470476190477
1598.44,149.25336190476173
