Raman Shift,Processed Intensity
331.095,-9.294353095238131
333.909,-16.035742857142825
336.721,-29.150049999999972
339.531,-43.36036952380954
342.339,-49.84293619047623
345.145,-48.606251428571454
347.949,-48.989375238095256
350.751,-39.70999047619051
353.55,-51.674142857142876
356.348,-44.02348571428574
359.144,-45.564204761904776
361.937,-22.14771904761904
364.729,-6.432804761904744
367.518,24.257571428571502
370.306,101.22122380952393
373.091,222.7583523809526
375.874,334.07596666666694
378.656,437.90661904761924
381.435,404.60398571428584
384.212,280.95229523809525
386.988,152.30866666666668
389.761,72.22272857142863
392.532,35.5315095238096
395.301,80.64469047619055
398.068,108.83120952380959
400.833,117.26585238095245
403.596,126.26794857142863
406.358,103.25341047619051
409.117,54.02049714285717
411.874,31.701984761904793
414.629,33.81319238095242
417.382,45.679786666666715
420.133,81.77168666666674
422.882,96.84545238095245
425.629,118.46857142857152
428.374,174.97092380952395
431.117,227.0172952380954
433.858,240.4633809523811
436.597,255.64228571428586
439.334,214.17304761904774
442.069,150.43814285714294
444.802,172.77271428571441
447.533,156.56042857142867
450.262,185.8044285714288
452.989,266.69919047619067
455.714,310.4870000000002
458.438,314.220523809524
461.159,315.2861904761906
463.878,227.26114285714294
466.595,178.2949047619049
469.31,175.10823809523822
472.024,209.18440000000015
474.735,213.67366190476204
477.444,201.20265714285725
480.152,192.3509095238096
482.857,182.9837047619049
485.561,180.10923333333346
488.262,209.16454285714298
490.962,176.72990476190483
493.659,159.57600000000008
496.355,164.4736190476191
499.048,157.43176190476197
501.74,134.26909523809533
504.43,136.18538095238102
507.118,136.90390476190487
509.804,146.10038095238104
512.488,187.68857142857155
515.17,194.8207142857144
517.85,173.07704761904773
520.528,159.18104761904772
523.204,142.90337142857152
525.878,101.49089523809532
528.551,106.28555238095245
531.221,104.62938095238103
533.89,104.10198571428577
536.556,93.18791428571433
539.221,82.08571904761908
541.883,60.041419047619094
544.544,71.82466190476197
547.203,91.15723333333338
549.86,99.37976666666671
552.515,98.40407142857148
555.168,93.61812380952387
557.819,93.5521857142858
560.469,128.68931428571437
563.116,126.27348571428577
565.761,106.1678190476191
568.405,96.99671428571432
571.047,78.05178571428578
573.687,93.09952380952389
576.324,123.66910000000006
578.96,112.14575714285719
581.594,102.20064761904767
584.227,91.45646666666673
586.857,84.4887152380953
589.485,68.34802952380954
592.112,63.56154190476194
594.737,39.79867476190478
597.359,32.63359142857147
599.98,52.6872490476191
602.599,75.34271428571432
605.216,78.41111095238101
607.831,77.65568476190478
610.445,62.31555142857145
613.056,39.962869523809545
615.666,44.12172285714289
618.274,53.411444761904804
620.88,62.45092095238098
623.484,46.33492380952384
626.086,60.96760952380957
628.686,77.53833809523816
631.284,89.18886190476198
633.881,120.10830000000007
636.476,116.29487619047626
639.068,126.93690476190483
641.659,111.79435714285718
644.249,84.0551666666667
646.836,37.28830952380954
649.421,31.967280952380975
652.005,22.469952380952435
654.587,58.50729047619052
657.166,70.45714285714288
659.745,61.17310000000003
662.321,43.12770952380955
664.895,38.174309523809555
667.468,48.356566666666716
670.038,61.14660952380957
672.607,75.77831428571433
675.174,73.24733809523813
677.739,62.97780476190479
680.303,58.72703333333338
682.864,67.15705714285718
685.424,71.02502380952384
687.982,57.468938095238116
690.538,51.579142857142884
693.092,43.779233333333366
695.645,36.34990476190479
698.195,37.809938095238124
700.744,28.154180952380955
703.291,0.13946904761905587
705.836,6.52257142857145
708.38,27.72696428571432
710.921,42.84280000000004
713.461,51.674497619047656
715.999,70.8836952380953
718.535,88.32236190476198
721.069,106.17610952380959
723.602,128.15425238095244
726.133,95.48998333333334
728.662,61.79740000000005
731.189,62.214621428571476
733.714,80.07000952380957
736.238,86.88291190476197
738.759,102.07724761904767
741.279,90.21986666666672
743.798,92.92539809523812
746.314,69.23715523809527
748.829,48.817548571428595
751.342,40.42430190476195
753.853,51.05354857142862
756.362,70.98709809523815
758.869,85.88799333333336
761.375,49.038338095238096
763.879,28.2442285714286
766.381,27.121323809523837
768.882,31.71422857142861
771.38,41.21046190476194
773.877,68.988180952381
776.372,91.71138095238106
778.866,136.5680238095239
781.357,147.3178333333334
783.847,142.76834285714295
786.335,144.06022857142867
788.821,144.23906666666676
791.306,141.11281904761913
793.789,154.5367238095239
796.27,161.84304761904775
798.749,164.9829523809525
801.227,185.00257142857154
803.702,193.75819047619058
806.176,171.48719047619056
808.649,157.56933333333342
811.119,154.0522857142858
813.588,139.50657142857153
816.055,139.21738095238106
818.521,143.85152380952388
820.984,143.6468095238096
823.446,137.55556190476196
825.906,121.2924190476191
828.365,118.85721904761913
830.821,116.53610476190485
833.276,124.28226666666677
835.729,138.38170476190487
838.181,150.26418095238105
840.631,167.31095238095247
843.079,190.38023809523818
845.525,189.18719047619055
847.97,167.7330476190477
850.412,136.82857142857148
852.854,130.18946666666676
855.293,128.34066666666672
857.731,114.379180952381
860.167,101.59187619047623
862.601,70.50453333333338
865.034,84.78590476190485
867.465,111.58032857142862
869.894,120.6992952380953
872.321,123.00209047619055
874.747,114.63345238095243
877.171,88.69087142857151
879.594,106.98642380952388
882.014,121.18893333333344
884.433,155.96715714285727
886.851,197.70489523809533
889.266,211.69033333333346
891.68,200.92590476190486
894.092,191.41433333333342
896.503,165.82519047619058
898.912,150.9705238095239
901.319,168.6629523809525
903.724,180.57204761904777
906.128,185.79595238095249
908.53,192.33757142857155
910.931,193.9144285714287
913.329,210.2915714285716
915.726,235.28157142857157
918.122,247.8399047619049
920.516,256.3510000000001
922.908,227.67523809523823
925.298,191.76814285714298
927.687,178.87152380952392
930.074,165.1789047619049
932.459,165.884142857143
934.843,182.61004761904772
937.225,175.83605714285724
939.605,145.70869047619055
941.984,113.23170000000005
944.361,77.69413333333337
946.736,55.71867142857146
949.11,34.02325238095241
951.482,36.70652380952383
953.853,17.772338095238098
956.222,5.652885714285724
958.589,1.8279857142857354
960.954,32.53943333333337
963.318,45.74332857142862
965.68,79.25266666666671
968.041,85.88075238095243
970.4,93.77410952380957
972.757,105.26955714285721
975.113,112.98949047619053
977.467,80.98483333333336
979.819,73.83009047619052
982.17,43.099942857142885
984.519,54.130757142857206
986.866,81.92543809523816
989.212,121.53397142857152
991.556,155.72063333333344
993.899,206.24960000000016
996.24,234.2660952380954
998.579,264.81947619047634
1000.92,248.2926666666668
1003.25,229.4011904761906
1005.59,211.7654761904763
1007.92,186.81504761904773
1010.25,166.59923809523818
1012.58,156.07109523809532
1014.91,127.51742857142864
1017.24,132.5575238095239
1019.56,145.9062857142858
1021.88,152.8018095238096
1024.2,143.95928571428578
1026.52,140.18804761904772
1028.84,135.77380952380963
1031.16,176.5258571428573
1033.48,203.34857142857155
1035.79,253.47971428571446
1038.1,274.87142857142874
1040.41,297.1417142857145
1042.72,320.28980952380977
1045.03,315.6005714285715
1047.33,261.1205714285715
1049.64,236.08709523809534
1051.94,195.4515238095239
1054.24,184.64109523809537
1056.54,212.98757142857156
1058.84,223.34657142857154
1061.13,217.28800000000015
1063.43,222.76266666666677
1065.72,213.91204761904774
1068.01,196.78176190476202
1070.3,197.60804761904774
1072.59,199.96033333333347
1074.87,207.45585714285727
1077.16,205.71171428571444
1079.44,205.297142857143
1081.72,235.63847619047638
1084.0,284.1620952380955
1086.28,364.0560000000003
1088.56,503.6514761904766
1090.84,639.8032857142862
1093.11,717.0330000000005
1095.38,723.6717142857146
1097.65,648.6690000000003
1099.92,520.6414285714287
1102.19,411.20533333333356
1104.46,355.8344285714288
1106.72,337.2408095238098
1108.98,352.9454761904765
1111.24,403.3270476190479
1113.5,457.5256190476194
1115.76,502.53847619047656
1118.02,547.9821428571431
1120.28,569.7586666666671
1122.53,566.6748095238098
1124.78,512.5378571428574
1127.03,431.9638095238097
1129.28,388.6646190476193
1131.53,338.3044285714288
1133.77,301.2616190476192
1136.02,275.4382857142858
1138.26,253.0702380952382
1140.5,228.44047619047632
1142.74,219.4514285714287
1144.98,209.38628571428586
1147.22,221.0047142857144
1149.45,213.3041904761906
1151.69,207.90166666666676
1153.92,178.31871428571438
1156.15,157.26702857142865
1158.38,135.26833809523816
1160.61,121.41596190476196
1162.83,109.37447142857148
1165.06,95.99917619047623
1167.28,68.05012857142862
1169.5,59.04908095238097
1171.72,57.27997142857147
1173.94,67.16979047619054
1176.16,82.2406428571429
1178.37,89.5863385714286
1180.58,60.538737380952384
1182.8,18.715593809523828
1185.01,17.877450714285732
1187.22,6.785255714285713
1189.42,-1.2762626190476025
1191.63,18.69195285714289
1193.84,52.68945238095244
1196.04,76.38217142857147
1198.24,110.53177619047625
1200.44,99.89975238095242
1202.64,95.77189523809531
1204.84,98.7194333333334
1207.03,102.17130114285719
1209.23,68.69901495238098
1211.42,51.16026800000002
1213.61,22.174460285714307
1215.8,25.694796571428615
1217.99,60.57901971428577
1220.18,90.0659287619048
1222.36,80.72784190476193
1224.55,65.61332190476192
1226.73,48.3900425714286
1228.91,25.821045190476212
1231.09,39.002773238095266
1233.27,33.650642904761916
1235.44,32.527892285714316
1237.62,31.73106233333336
1239.79,46.49961114285716
1241.96,42.45404190476194
1244.13,60.78646095238099
1246.3,71.8315952380953
1248.47,116.06717619047626
1250.64,121.3044047619048
1252.8,105.7354285714286
1254.96,79.64771904761908
1257.13,59.47178571428576
1259.29,57.352066666666744
1261.44,91.14758571428578
1263.6,105.00309523809531
1265.76,101.72997142857149
1267.91,105.99695714285721
1270.06,113.85346190476199
1272.22,110.11109523809529
1274.37,99.86716666666672
1276.51,110.59996190476195
1278.66,109.45418095238102
1280.81,126.9083523809525
1282.95,162.20256190476198
1285.09,158.291361904762
1287.23,142.1770000000001
1289.37,172.52814285714297
1291.51,178.01360952380963
1293.65,168.63574285714293
1295.78,151.06343809523815
1297.92,106.25119523809529
1300.05,86.34399047619056
1302.18,95.15354761904769
1304.31,105.82504761904767
1306.44,96.88446190476196
1308.57,118.81031428571438
1310.69,139.8431142857144
1312.82,155.5084476190477
1314.94,157.80880952380963
1317.06,160.65085714285723
1319.18,152.5607142857144
1321.3,186.87385714285728
1323.41,222.97352380952395
1325.53,270.00447619047634
1327.64,317.0165238095241
1329.75,372.5834761904764
1331.87,411.7550952380955
1333.98,441.10452380952404
1336.08,417.0625714285717
1338.19,398.5357142857145
1340.3,350.81180952380976
1342.4,306.4167142857145
1344.5,250.5906666666668
1346.6,231.00180952380964
1348.7,199.03309523809537
1350.8,193.3054285714287
1352.9,203.34461904761918
1354.99,216.437761904762
1357.09,201.9677142857144
1359.18,210.3166666666668
1361.27,210.53423809523824
1363.36,207.33628571428585
1365.45,206.01014285714297
1367.54,213.9856666666668
1369.62,208.88323809523823
1371.7,231.6566666666668
1373.79,268.1647619047621
1375.87,319.93219047619067
1377.95,353.6267619047621
1380.03,361.9639047619049
1382.1,326.1828571428573
1384.18,283.8560952380954
1386.25,233.74647619047633
1388.33,194.1406666666668
1390.4,173.94410476190484
1392.47,134.82420000000008
1394.54,120.82899047619057
1396.6,106.53065238095243
1398.67,102.07239047619053
1400.74,122.16939523809533
1402.8,136.86928571428578
1404.86,127.31528095238103
1406.92,131.93587619047625
1408.98,108.68385714285722
1411.04,113.36860952380962
1413.09,119.2758952380953
1415.15,113.26207619047626
1417.2,114.37520000000006
1419.25,123.23355238095246
1421.3,138.21786666666677
1423.35,154.9467190476191
1425.4,112.65734285714291
1427.45,85.11083333333337
1429.49,65.73520952380957
1431.54,55.19582380952387
1433.58,95.92014285714293
1435.62,113.05003333333339
1437.66,128.58435238095248
1439.7,157.33102380952388
1441.74,160.14578095238105
1443.77,141.9794523809525
1445.81,156.6400000000001
1447.84,157.26866666666677
1449.87,183.6732857142858
1451.9,198.23266666666677
1453.93,194.23090476190487
1455.96,165.85619047619056
1457.98,169.15457142857153
1460.01,173.69533333333342
1462.03,188.14285714285725
1464.05,206.92361904761918
1466.07,213.5597142857144
1468.09,199.95338095238108
1470.11,192.43609523809533
1472.13,160.05301904761913
1474.14,135.46839047619056
1476.16,101.01333333333336
1478.17,72.019280952381
1480.18,55.48389523809527
1482.19,48.071719047619084
1484.2,50.4470247619048
1486.21,50.655315238095255
1488.21,27.83728285714287
1490.22,37.70505428571432
1492.22,25.49460714285717
1494.22,48.584815523809574
1496.22,59.164091952380964
1498.22,45.468552000000024
1500.22,17.496261380952394
1502.22,12.2929100952381
1504.21,11.999585285714328
1506.21,43.09060457142859
1508.2,56.849958571428594
1510.19,49.56171238095237
1512.18,23.22423714285714
1514.17,-2.116401904761892
1516.16,0.6336200000000116
1518.14,13.949002857142885
1520.13,36.20936571428574
1522.11,40.175370476190494
1524.09,35.65528571428573
1526.07,43.6479666666667
1528.05,42.533280952380984
1530.03,45.02447142857146
1532.01,44.31101428571431
1533.98,46.772947619047656
1535.96,38.40937142857147
1537.93,79.50505714285723
1539.9,99.48790476190482
1541.87,103.78572380952389
1543.84,118.63604190476198
1545.81,105.89518714285717
1547.78,58.18156000000003
1549.74,57.589608095238134
1551.7,71.5474695238096
1553.67,105.6737300000001
1555.63,152.3964276190477
1557.59,161.71518095238105
1559.55,139.86766666666674
1561.5,138.80566666666675
1563.46,143.147761904762
1565.41,144.65561904761913
1567.37,133.75738095238103
1569.32,118.97642857142866
1571.27,108.83642857142866
1573.22,110.05123809523816
1575.17,116.62076190476199
1577.11,139.64033333333342
1579.06,156.96661904761913
1581.0,153.02785714285724
1582.95,156.6334761904763
1584.89,135.1165238095239
1586.83,128.4772380952382
1588.77,145.95361904761916
1590.7,161.6406666666668
1592.64,170.39557142857157
1594.58,191.43247619047622
1596.51,208.7990476190476
1598.44,215.66195238095221
