Raman Shift,Processed Intensity
331.095,76.87811142857112
333.909,8.943741428571201
336.721,-3.9925557142858565
339.531,15.694680000000032
342.339,36.63063714285717
345.145,56.96472666666671
347.949,64.60915342857145
350.751,43.81025604761906
353.55,10.053307333333318
356.348,-15.318437952380961
359.144,-31.96082980952381
361.937,-7.243025380952352
364.729,26.038302952381013
367.518,75.42068809523818
370.306,122.49039523809537
373.091,225.3584095238097
375.874,341.08931428571447
378.656,405.558123809524
381.435,362.73656666666676
384.212,247.59719523809528
386.988,117.6852190476191
389.761,10.689861904761916
392.532,-20.984228571428552
395.301,-13.502680952380949
398.068,-8.267716190476165
400.833,9.319546666666682
403.596,29.2878638095238
406.358,5.143513333333329
409.117,-14.84426000000001
411.874,-21.64301476190477
414.629,-7.076277142857136
417.382,-7.871114285714277
420.133,11.43673428571432
422.882,47.408477142857194
425.629,86.79633714285724
428.374,150.63948904761918
431.117,221.97770571428583
433.858,241.99495238095253
436.597,241.3997714285715
439.334,194.23517619047624
442.069,146.25873333333342
444.802,129.99120476190484
447.533,143.14416190476203
450.262,185.95389047619062
452.989,220.99072380952396
455.714,242.92085714285727
458.438,237.55371428571442
461.159,196.98551428571437
463.878,130.5984428571429
466.595,82.1559285714286
469.31,36.89821904761909
472.024,46.590090476190525
474.735,62.04392380952386
477.444,93.45376666666675
480.152,128.82347142857154
482.857,163.87189523809533
485.561,162.6034238095239
488.262,155.4039428571429
490.962,127.27838571428578
493.659,100.80346190476196
496.355,89.74675238095243
499.048,73.68581904761908
501.74,63.81667142857149
504.43,77.28876190476197
507.118,78.77476666666671
509.804,89.23368095238104
512.488,123.81489523809532
515.17,158.81044761904772
517.85,174.27443809523817
520.528,175.07105714285723
523.204,151.0640857142858
525.878,118.68888571428577
528.551,96.99976190476195
531.221,76.09841904761906
533.89,46.61059047619051
536.556,23.35240952380956
539.221,57.23532380952388
541.883,82.64647619047625
544.544,101.54458095238103
547.203,114.65023809523817
549.86,117.11226666666673
552.515,92.88883809523819
555.168,110.5096476190477
557.819,135.59937142857152
560.469,147.44920000000008
563.116,157.39781904761912
565.761,152.1645714285715
568.405,123.94480952380958
571.047,121.21905714285722
573.687,108.08715238095243
576.324,94.4578571428572
578.96,79.33523333333339
581.594,89.67567619047625
584.227,93.86360476190484
586.857,110.71136190476197
589.485,112.31754761904769
592.112,134.922561904762
594.737,127.24333809523816
597.359,126.71078571428578
599.98,101.66000000000004
602.599,58.47361428571433
605.216,64.05796190476197
607.831,85.55680952380959
610.445,81.11394285714292
613.056,110.68226190476199
615.666,121.88119047619054
618.274,110.23458095238102
620.88,100.5993285714286
623.484,88.02273809523817
626.086,82.64671428571438
628.686,146.56539523809536
631.284,203.63477619047634
633.881,236.04392380952393
636.476,235.98138095238107
639.068,205.92166666666677
641.659,180.05281904761915
644.249,146.41989523809528
646.836,105.40123333333338
649.421,72.85121428571433
652.005,64.00467619047623
654.587,57.239533333333384
657.166,80.31427619047622
659.745,71.79664285714288
662.321,61.96866190476194
664.895,58.63601523809526
667.468,34.98515809523811
670.038,27.67866857142861
672.607,49.33140380952386
675.174,72.74867809523815
677.739,83.59282000000003
680.303,74.66898666666668
682.864,58.02036323809527
685.424,38.83297419047621
687.982,38.67375790476193
690.538,26.157361999999996
693.092,12.422215047619055
695.645,-1.440853428571414
698.195,10.849523238095244
700.744,6.527162380952387
703.291,10.492613809523808
705.836,-2.020175714285706
708.38,12.318060476190503
710.921,41.64620333333337
713.461,44.62698904761907
715.999,47.780432380952405
718.535,41.43610000000002
721.069,45.01895238095243
723.602,53.66825619047622
726.133,52.332958571428584
728.662,28.342969523809543
731.189,37.74268904761908
733.714,43.243140952381
736.238,63.74600619047623
738.759,75.15302476190479
741.279,52.41362333333335
743.798,27.048741904761926
746.314,36.81756133333335
748.829,27.907822047619067
751.342,33.74552171428574
753.853,41.28055080952382
756.362,51.93906028571433
758.869,50.43304204761909
761.375,65.47457990476194
763.879,63.58532380952384
766.381,60.52517142857147
768.882,74.1491571428572
771.38,82.8841285714286
773.877,79.87117619047623
776.372,76.34673809523812
778.866,56.404461904761924
781.357,42.709480952381
783.847,50.54590000000002
786.335,51.96037619047625
788.821,77.52274285714293
791.306,113.56544285714293
793.789,128.61113333333338
796.27,131.0396095238096
798.749,131.85004761904773
801.227,168.04200000000014
803.702,213.90028571428587
806.176,255.32909523809536
808.649,232.6610000000001
811.119,205.70523809523823
813.588,195.9376190476192
816.055,191.07223809523822
818.521,198.58514285714296
820.984,187.57127619047625
823.446,131.41141904761912
825.906,111.15360000000007
828.365,111.65500952380958
830.821,81.10631428571433
833.276,82.46037142857149
835.729,108.33676190476197
838.181,112.0690095238096
840.631,125.56259047619056
843.079,148.72299047619052
845.525,133.4555714285715
847.97,101.23749047619054
850.412,97.11737142857149
852.854,74.71509047619053
855.293,68.22233809523817
857.731,85.87848095238101
860.167,103.87512952380956
862.601,72.92797238095243
865.034,77.22884952380957
867.465,76.92218476190479
869.894,49.05721142857146
872.321,38.73093428571432
874.747,63.706839047619084
877.171,57.03456666666673
879.594,83.76346190476198
882.014,112.18135238095245
884.433,124.05242857142865
886.851,135.37867142857152
889.266,155.06707619047626
891.68,154.07238095238105
894.092,171.82521904761916
896.503,167.04245714285724
898.912,163.10758095238106
901.319,151.21359047619055
903.724,151.4104857142858
906.128,146.2723142857144
908.53,170.6110095238096
910.931,150.7152047619048
913.329,122.63506190476195
915.726,87.6115571428572
918.122,106.74230000000009
920.516,123.45867142857152
922.908,142.95371904761913
925.298,162.89720000000008
927.687,146.8154190476191
930.074,106.75871428571433
932.459,96.34882380952385
934.843,64.44543809523813
937.225,54.14668095238103
939.605,99.07436190476197
941.984,107.75461428571434
944.361,120.71400952380961
946.736,124.19305238095242
949.11,91.67046190476195
951.482,69.43461428571433
953.853,87.487880952381
956.222,63.30877619047624
958.589,80.18545238095246
960.954,95.73927619047626
963.318,117.06756285714293
965.68,98.22004619047621
968.041,86.15124000000002
970.4,50.1964204761905
972.757,33.452749523809544
975.113,33.96986428571432
977.467,40.98742380952382
979.819,21.126140952380972
982.17,34.101962857142894
984.519,47.392374285714325
986.866,68.76086095238101
989.212,103.16086571428576
991.556,117.2600571428572
993.899,96.29780476190481
996.24,117.32280952380958
998.579,109.28826666666671
1000.92,104.24276190476195
1003.25,97.18675142857147
1005.59,66.59685380952382
1007.92,38.426226666666714
1010.25,56.29418428571433
1012.58,73.96283142857149
1014.91,95.38496333333339
1017.24,105.13185619047624
1019.56,107.77512857142867
1021.88,133.7432476190477
1024.2,139.60747619047626
1026.52,145.55819047619053
1028.84,158.0710476190477
1031.16,166.28828571428582
1033.48,192.0191904761906
1035.79,207.16766666666678
1038.1,206.35228571428584
1040.41,199.62028571428584
1042.72,212.77985714285728
1045.03,232.0207142857144
1047.33,253.34204761904778
1049.64,247.02828571428586
1051.94,223.12614285714298
1054.24,197.11095238095248
1056.54,177.07638095238107
1058.84,183.7354761904763
1061.13,207.08700000000013
1063.43,220.7486190476192
1065.72,230.95728571428586
1068.01,223.52104761904775
1070.3,229.62861904761922
1072.59,243.802142857143
1074.87,248.42095238095254
1077.16,254.67400000000015
1079.44,280.1790476190478
1081.72,288.55347619047643
1084.0,340.9382380952384
1086.28,400.6169523809527
1088.56,492.4452380952385
1090.84,606.4210000000005
1093.11,732.9236190476196
1095.38,760.2373333333337
1097.65,708.9311428571433
1099.92,611.8604285714289
1102.19,492.35680952380983
1104.46,408.6086666666669
1106.72,408.23290476190505
1108.98,402.4185714285717
1111.24,434.49647619047647
1113.5,465.51285714285746
1115.76,502.41795238095267
1118.02,527.9716190476194
1120.28,557.9814285714289
1122.53,548.3501904761907
1124.78,536.9329047619051
1127.03,481.013904761905
1129.28,433.5435714285716
1131.53,344.2340000000001
1133.77,257.3214761904763
1136.02,194.08985714285728
1138.26,182.68000000000015
1140.5,208.66176190476205
1142.74,240.6526190476192
1144.98,261.55514285714304
1147.22,262.7009523809526
1149.45,282.80271428571444
1151.69,278.0015714285716
1153.92,254.62938095238107
1156.15,229.11290476190484
1158.38,195.59352380952387
1160.61,151.21257142857152
1162.83,151.3492857142858
1165.06,139.6218095238096
1167.28,134.55238095238104
1169.5,123.32987142857148
1171.72,105.66763809523815
1173.94,74.2785571428572
1176.16,75.25653333333341
1178.37,84.26751809523815
1180.58,84.02450761904764
1182.8,53.57424000000002
1185.01,32.439621809523814
1187.22,1.1912387142857235
1189.42,-4.076604476190462
1191.63,6.826035095238103
1193.84,18.136587904761925
1196.04,23.47354442857145
1198.24,47.36026085714289
1200.44,61.41538571428575
1202.64,60.49580476190479
1204.84,59.93469809523812
1207.03,50.44631714285715
1209.23,32.5545723809524
1211.42,27.73592095238095
1213.61,7.181230476190467
1215.8,-14.77556523809524
1217.99,-1.5622704761904647
1220.18,-4.130335714285703
1222.36,14.187999047619076
1224.55,52.489473809523844
1226.73,63.48973619047622
1228.91,68.19047714285719
1231.09,78.40310095238097
1233.27,49.034414285714305
1235.44,32.37230476190479
1237.62,39.6573285714286
1239.79,36.60609523809528
1241.96,54.60207619047624
1244.13,83.50531904761911
1246.3,90.03284285714292
1248.47,104.42582857142864
1250.64,107.11556666666672
1252.8,114.34330476190485
1254.96,143.11241428571438
1257.13,150.37867619047626
1259.29,158.14514285714296
1261.44,182.3200000000001
1263.6,168.3828095238096
1265.76,177.2418000000001
1267.91,170.71027619047624
1270.06,137.88692380952386
1272.22,115.91795238095244
1274.37,118.94962857142863
1276.51,105.41430476190484
1278.66,110.45824761904768
1280.81,99.89457142857148
1282.95,102.96467619047624
1285.09,105.76736190476198
1287.23,95.35359523809528
1289.37,83.29818095238099
1291.51,79.36626190476194
1293.65,70.8944428571429
1295.78,63.50473809523814
1297.92,82.96210000000005
1300.05,79.69818095238101
1302.18,81.28729523809531
1304.31,78.87508571428575
1306.44,87.1784714285715
1308.57,105.39082857142866
1310.69,133.65711904761915
1312.82,150.0279333333334
1314.94,157.60099047619053
1317.06,151.42590476190486
1319.18,158.88580952380963
1321.3,182.36409523809536
1323.41,199.43400000000014
1325.53,215.14557142857154
1327.64,251.73900000000017
1329.75,265.4539047619049
1331.87,276.38742857142876
1333.98,278.8743333333335
1336.08,280.4878095238097
1338.19,268.7055714285716
1340.3,253.48166666666677
1342.4,202.3888761904763
1344.5,149.19059047619055
1346.6,111.79278095238102
1348.7,96.52992857142863
1350.8,97.21250952380959
1352.9,85.12730000000005
1354.99,97.7987952380953
1357.09,93.99011428571436
1359.18,113.4163476190477
1361.27,107.50669047619051
1363.36,117.73816190476197
1365.45,95.30155714285722
1367.54,113.72111428571439
1369.62,145.94982857142872
1371.7,193.6543523809525
1373.79,211.7874285714287
1375.87,251.15904761904775
1377.95,257.4356190476192
1380.03,258.8555714285716
1382.1,231.70457142857157
1384.18,204.8395238095239
1386.25,171.06960000000012
1388.33,146.0136000000001
1390.4,134.05190476190484
1392.47,117.37479523809529
1394.54,96.31497142857148
1396.6,90.34830000000005
1398.67,83.47403809523814
1400.74,80.16750952380957
1402.8,82.80889523809529
1404.86,86.39716190476197
1406.92,93.45517142857149
1408.98,98.0296571428572
1411.04,86.45277619047623
1413.09,77.1042428571429
1415.15,73.69693809523814
1417.2,84.13422380952386
1419.25,78.7005714285715
1421.3,91.72785238095244
1423.35,91.2620047619048
1425.4,70.68228571428575
1427.45,92.51074761904769
1429.49,88.1741428571429
1431.54,91.62295238095244
1433.58,89.76001904761907
1435.62,56.345097619047635
1437.66,36.471514285714335
1439.7,59.137035714285744
1441.74,51.005880952381005
1443.77,65.0757928571429
1445.81,91.15381800000006
1447.84,63.61849204761908
1449.87,74.03892219047624
1451.9,73.03138938095242
1453.93,62.7837650476191
1455.96,53.531525380952445
1457.98,93.08147514285722
1460.01,111.38331904761915
1462.03,156.8627523809525
1464.05,185.32668571428582
1466.07,196.391142857143
1468.09,207.72033333333349
1470.11,241.78747619047635
1472.13,261.01847619047635
1474.14,282.5055714285716
1476.16,296.865142857143
1478.17,263.3322380952382
1480.18,233.47604761904776
1482.19,206.24595238095247
1484.2,171.25837142857154
1486.21,148.70099047619055
1488.21,123.42829523809529
1490.22,88.43759523809528
1492.22,62.86941904761908
1494.22,38.48308095238097
1496.22,32.89516571428573
1498.22,24.53192047619049
1500.22,21.295783809523837
1502.22,27.041650952380976
1504.21,44.62450761904766
1506.21,52.0898585714286
1508.2,50.24522285714288
1510.19,44.326785714285734
1512.18,35.95176666666667
1514.17,11.166095238095242
1516.16,6.1586476190476205
1518.14,-4.976838095238092
1520.13,1.329666666666693
1522.11,27.60065238095241
1524.09,54.977814285714324
1526.07,58.650571428571446
1528.05,50.90368571428573
1530.03,49.83149523809527
1532.01,41.43320476190478
1533.98,43.80330476190481
1535.96,63.22684761904766
1537.93,61.03657142857147
1539.9,64.32717142857148
1541.87,69.52669047619051
1543.84,72.63469047619053
1545.81,80.84131428571433
1547.78,101.14616190476195
1549.74,116.83459047619056
1551.7,107.71607142857148
1553.67,106.17122380952388
1555.63,121.43815714285722
1557.59,123.13588571428579
1559.55,121.40696666666675
1561.5,138.25141904761912
1563.46,144.62166666666678
1565.41,172.7557142857144
1567.37,189.46342857142866
1569.32,186.45928571428584
1571.27,157.88609523809532
1573.22,139.69658095238103
1575.17,122.46243809523817
1577.11,109.66025714285723
1579.06,123.71884761904772
1581.0,130.40068571428583
1582.95,158.27729523809535
1584.89,181.53977142857153
1586.83,181.52195238095248
1588.77,169.03371428571435
1590.7,155.0753333333334
1592.64,127.98109523809532
1594.58,129.51314285714295
1596.51,147.38657142857167
1598.44,181.93538095238137
