Raman Shift,Processed Intensity
331.095,58.812945714285526
333.909,4.831829999999833
336.721,-10.159837142857263
339.531,-0.8678657142856998
342.339,20.644596190476207
345.145,24.552747619047615
347.949,-0.4198371428571557
350.751,-10.26326095238096
353.55,-31.96688857142859
356.348,-23.043210476190453
359.144,1.519959047619067
361.937,40.592667619047674
364.729,77.37943428571435
367.518,112.84715238095245
370.306,139.48746666666682
373.091,225.12654285714305
375.874,306.87676190476213
378.656,353.0420952380954
381.435,333.59437142857155
384.212,241.12503809523818
386.988,118.13139047619052
389.761,46.159490476190506
392.532,18.565546666666684
395.301,3.7070500000000206
398.068,12.799658571428584
400.833,8.298235714285703
403.596,-2.3412771428571455
406.358,-11.566673809523827
409.117,-38.538830476190505
411.874,-40.94132380952381
414.629,-6.599463333333317
417.382,12.2816604761905
420.133,25.593369523809546
422.882,44.79945571428574
425.629,63.60276000000006
428.374,89.231491904762
431.117,131.3428276190477
433.858,160.88066666666677
436.597,164.83785714285727
439.334,192.3979904761906
442.069,199.03163333333345
444.802,165.01983809523816
447.533,133.16770000000005
450.262,114.51940952380961
452.989,147.9771571428573
455.714,199.5388000000001
458.438,222.5837523809525
461.159,196.68259047619054
463.878,145.4064952380953
466.595,75.32726666666673
469.31,63.87424761904767
472.024,57.715585714285766
474.735,72.47176190476195
477.444,62.52606190476193
480.152,67.64306666666671
482.857,72.20668095238102
485.561,97.8868190476191
488.262,101.06815238095243
490.962,95.61179047619049
493.659,69.37916666666669
496.355,58.4225666666667
499.048,42.88957619047622
501.74,48.404147619047635
504.43,26.209661904761923
507.118,35.263652380952436
509.804,73.71460000000008
512.488,124.71105714285726
515.17,159.92558095238104
517.85,199.88754285714296
520.528,181.5554761904763
523.204,181.03033333333343
525.878,155.9370714285715
528.551,129.94838095238103
531.221,119.97511904761913
533.89,122.21338095238103
536.556,128.6217095238096
539.221,118.49142380952384
541.883,99.30427619047624
544.544,67.82805238095241
547.203,71.6876571428572
549.86,88.31680476190485
552.515,145.19702857142866
555.168,123.00020000000006
557.819,137.58835238095244
560.469,116.10932380952389
563.116,130.2824000000001
565.761,138.01639047619057
568.405,152.12524761904768
571.047,130.80361904761912
573.687,154.15047619047627
576.324,151.36033333333341
578.96,162.34147619047627
581.594,152.81119047619055
584.227,138.2012857142858
586.857,134.27609523809537
589.485,153.56219047619058
592.112,153.87171428571435
594.737,147.34929523809532
597.359,117.85379523809529
599.98,110.05378095238102
602.599,106.75976666666674
605.216,114.83031428571434
607.831,110.45670000000007
610.445,103.54424761904767
613.056,91.18867619047627
615.666,108.39018095238103
618.274,109.10097142857148
620.88,131.08270476190484
623.484,134.95394285714292
626.086,141.14254285714296
628.686,161.36196190476198
631.284,184.5632000000001
633.881,200.36414285714298
636.476,212.2391904761906
639.068,219.3774285714287
641.659,198.77700000000007
644.249,163.8167142857144
646.836,136.20889523809532
649.421,115.71315238095242
652.005,77.32682380952384
654.587,48.71430000000001
657.166,16.730076190476197
659.745,-7.057242857142847
662.321,3.254657142857173
664.895,24.28193333333337
667.468,61.92656190476194
670.038,47.328550000000014
672.607,66.91365238095241
675.174,71.34567380952384
677.739,75.52645809523814
680.303,60.64359857142859
682.864,49.83699714285715
685.424,12.437084761904794
687.982,30.202844761904807
690.538,55.226596190476236
693.092,82.64819142857147
695.645,78.70280476190479
698.195,63.43510000000002
700.744,46.79456190476193
703.291,36.730641904761924
705.836,20.04996333333335
708.38,37.178169523809544
710.921,33.58857095238096
713.461,21.13548476190478
715.999,18.24469380952382
718.535,30.389612380952407
721.069,28.37701142857148
723.602,71.82319619047624
726.133,81.86839714285716
728.662,61.51001142857144
731.189,31.69785523809525
733.714,9.762753333333345
736.238,12.987777142857196
738.759,61.656295238095296
741.279,79.28977285714289
743.798,79.60012000000003
746.314,51.96598952380952
748.829,18.9565485714286
751.342,20.99799619047623
753.853,54.135922857142894
756.362,70.32059857142862
758.869,85.59757238095241
761.375,77.82196190476193
763.879,75.70611904761908
766.381,65.29573809523812
768.882,50.96989523809526
771.38,42.96493809523811
773.877,35.2314904761905
776.372,35.3393047619048
778.866,50.19155714285718
781.357,71.54843809523814
783.847,76.50377142857147
786.335,70.29424761904765
788.821,51.82321904761908
791.306,47.660866666666706
793.789,50.90095714285721
796.27,91.30432380952388
798.749,117.39366666666673
801.227,136.45349523809531
803.702,131.62581428571434
806.176,119.147580952381
808.649,113.77994761904769
811.119,133.42700952380963
813.588,155.94519523809532
816.055,181.23835238095248
818.521,165.16310476190483
820.984,120.48063333333337
823.446,70.47651428571432
825.906,63.34056666666673
828.365,69.50140000000007
830.821,102.5299095238096
833.276,109.37850952380958
835.729,111.76132380952386
838.181,94.72607142857147
840.631,100.3679428571429
843.079,72.25861904761908
845.525,56.73148095238097
847.97,39.45365533333336
850.412,30.949214142857162
852.854,22.409213047619062
855.293,17.31038252380952
857.731,-0.013318380952371811
860.167,7.676919857142893
862.601,47.81047819047623
865.034,61.959688571428615
867.465,79.31600095238099
869.894,71.54714761904764
872.321,45.8923285714286
874.747,43.06700952380956
877.171,58.26316190476195
879.594,70.86291904761912
882.014,103.72470000000006
884.433,106.99302857142861
886.851,119.66931428571436
889.266,126.32676190476198
891.68,124.44347142857148
894.092,98.44955238095241
896.503,102.9182333333334
898.912,91.42274285714294
901.319,119.10766190476201
903.724,160.64194285714296
906.128,187.0751142857144
908.53,162.79019047619056
910.931,164.31316190476198
913.329,140.360280952381
915.726,107.50519047619053
918.122,88.08358571428576
920.516,95.8595333333334
922.908,97.2162714285715
925.298,117.44193333333341
927.687,130.39588571428575
930.074,109.65192380952385
932.459,85.40296190476197
934.843,85.36569047619054
937.225,83.49497142857149
939.605,90.69813809523816
941.984,95.16807142857148
944.361,99.24041428571435
946.736,105.20364285714291
949.11,94.25071428571432
951.482,84.76507619047624
953.853,92.60660000000006
956.222,65.11095714285717
958.589,82.18527619047626
960.954,79.49893333333337
963.318,60.054423809523854
965.68,53.75899047619052
968.041,72.61554761904765
970.4,66.15001904761911
972.757,97.46029047619051
975.113,75.12022380952382
977.467,60.084700000000026
979.819,42.641895238095266
982.17,40.1278285714286
984.519,28.35423333333334
986.866,18.323633333333333
989.212,6.562195238095266
991.556,31.548504761904805
993.899,64.18962380952387
996.24,105.39263333333338
998.579,101.15965238095241
1000.92,84.73094761904767
1003.25,79.15618095238099
1005.59,59.38971904761909
1007.92,68.19517142857148
1010.25,78.90779523809529
1012.58,67.52916666666671
1014.91,96.72741904761912
1017.24,101.12303809523814
1019.56,90.47910476190484
1021.88,81.03459047619052
1024.2,96.55266666666674
1026.52,96.31953333333342
1028.84,143.05005714285724
1031.16,157.74441904761915
1033.48,172.73653333333343
1035.79,158.02623809523823
1038.1,183.47109523809536
1040.41,185.35604761904773
1042.72,212.2999523809525
1045.03,232.302142857143
1047.33,230.9814285714287
1049.64,197.43200000000007
1051.94,184.9865238095239
1054.24,169.69119047619057
1056.54,174.45004761904772
1058.84,175.11885714285728
1061.13,196.07733333333346
1063.43,195.657142857143
1065.72,201.80885714285725
1068.01,196.62633333333343
1070.3,190.91733333333346
1072.59,175.58480952380967
1074.87,210.6744285714287
1077.16,225.9934285714287
1079.44,250.58742857142875
1081.72,278.6922857142859
1084.0,310.49619047619075
1086.28,370.90195238095265
1088.56,479.8591428571432
1090.84,601.5559047619051
1093.11,701.6564761904767
1095.38,711.1578571428574
1097.65,647.105523809524
1099.92,537.3063809523812
1102.19,430.80528571428596
1104.46,375.2184285714288
1106.72,374.06680952380975
1108.98,387.4427142857145
1111.24,433.9627619047622
1113.5,487.9573333333337
1115.76,532.9952380952384
1118.02,579.8349523809527
1120.28,568.950047619048
1122.53,532.4806190476194
1124.78,493.2808095238098
1127.03,424.58571428571446
1129.28,367.96419047619065
1131.53,323.3654285714287
1133.77,232.7391904761906
1136.02,203.22557142857158
1138.26,203.29785714285725
1140.5,184.42942857142873
1142.74,217.5700952380954
1144.98,233.95500000000015
1147.22,248.6290000000002
1149.45,285.4468095238097
1151.69,289.97747619047635
1153.92,270.6468571428573
1156.15,250.64285714285725
1158.38,207.3914761904763
1160.61,167.17623809523818
1162.83,142.70947619047627
1165.06,143.75073333333341
1167.28,139.82164761904767
1169.5,107.1581666666667
1171.72,80.61540476190478
1173.94,64.28681428571434
1176.16,62.78965238095245
1178.37,96.45544285714291
1180.58,92.56840000000003
1182.8,79.22230000000005
1185.01,39.32053333333334
1187.22,28.24277142857145
1189.42,8.464157142857147
1191.63,2.6028333333333413
1193.84,9.562809523809559
1196.04,51.96256190476193
1198.24,49.99214761904766
1200.44,59.84180476190478
1202.64,56.79716095238097
1204.84,23.001134761904783
1207.03,41.787297142857184
1209.23,45.298785714285735
1211.42,50.96457714285719
1213.61,66.35673333333338
1215.8,78.71405428571433
1217.99,60.513610952381
1220.18,84.3276228571429
1222.36,85.72880000000006
1224.55,92.38484285714291
1226.73,108.8686047619048
1228.91,107.7051571428572
1231.09,94.27693333333339
1233.27,97.25195714285721
1235.44,109.48940952380957
1237.62,109.89555714285723
1239.79,131.52002857142867
1241.96,122.2695571428572
1244.13,107.28921904761913
1246.3,121.39027142857151
1248.47,131.95621904761913
1250.64,133.84625238095245
1252.8,146.44351428571437
1254.96,143.13138095238105
1257.13,149.00776190476202
1259.29,168.0272857142858
1261.44,177.52638095238103
1263.6,173.26938095238106
1265.76,157.30657142857152
1267.91,159.21214285714294
1270.06,157.3695714285715
1272.22,138.11509523809534
1274.37,127.35652380952388
1276.51,125.00147619047627
1278.66,130.05323809523819
1280.81,157.27647619047627
1282.95,166.10250476190484
1285.09,142.6774571428572
1287.23,121.67091428571436
1289.37,119.56240000000008
1291.51,136.0217714285715
1293.65,142.5755857142858
1295.78,133.70330000000007
1297.92,107.07475714285721
1300.05,99.35944285714294
1302.18,106.41813809523816
1304.31,124.4917952380953
1306.44,131.773961904762
1308.57,140.9822857142858
1310.69,159.6911904761906
1312.82,186.14190476190487
1314.94,200.4804761904763
1317.06,207.6620000000001
1319.18,196.54680952380963
1321.3,175.70938095238108
1323.41,201.8193809523811
1325.53,212.92747619047634
1327.64,258.0362380952383
1329.75,301.434523809524
1331.87,316.7442380952383
1333.98,315.7300476190478
1336.08,314.91871428571443
1338.19,264.07452380952395
1340.3,251.39057142857155
1342.4,216.91709523809533
1344.5,186.79952380952392
1346.6,175.65947619047628
1348.7,165.1662285714287
1350.8,144.46453809523817
1352.9,136.41412380952386
1354.99,121.39765238095247
1357.09,118.51288571428579
1359.18,122.19025238095246
1361.27,132.00332380952386
1363.36,131.62038095238103
1365.45,137.8529523809525
1367.54,146.654761904762
1369.62,175.59909523809534
1371.7,195.16352380952392
1373.79,214.39714285714297
1375.87,230.5868571428573
1377.95,245.3528571428573
1380.03,255.7436666666668
1382.1,268.8080000000001
1384.18,231.30861904761917
1386.25,197.24638095238103
1388.33,147.52650952380958
1390.4,102.19705714285722
1392.47,91.01994761904767
1394.54,104.9957714285715
1396.6,100.6958333333334
1398.67,104.69156190476195
1400.74,74.50648571428574
1402.8,47.99742380952384
1404.86,37.92555714285719
1406.92,70.1000333333334
1408.98,86.51990000000005
1411.04,90.184180952381
1413.09,71.6156285714286
1415.15,64.05109047619051
1417.2,46.01297619047623
1419.25,67.02354761904766
1421.3,60.843123809523846
1423.35,57.70808571428576
1425.4,66.4735571428572
1427.45,92.09016666666673
1429.49,71.50823809523813
1431.54,74.53517619047622
1433.58,58.978257142857174
1435.62,41.16849047619051
1437.66,60.150904761904826
1439.7,81.63756190476194
1441.74,71.76873333333337
1443.77,54.5418142857143
1445.81,51.33517619047623
1447.84,64.33645238095244
1449.87,79.78085714285717
1451.9,73.18937619047622
1453.93,65.84472857142859
1455.96,58.02972380952387
1457.98,77.31295714285723
1460.01,109.97660952380961
1462.03,150.6367523809525
1464.05,168.099761904762
1466.07,173.26709523809535
1468.09,202.04023809523824
1470.11,223.08309523809538
1472.13,231.82042857142875
1474.14,273.2016666666668
1476.16,281.8902857142859
1478.17,259.40652380952395
1480.18,252.6517142857144
1482.19,221.5756190476191
1484.2,169.5556238095239
1486.21,130.96960000000004
1488.21,92.57637619047624
1490.22,61.42026190476196
1492.22,71.6410428571429
1494.22,77.56921428571434
1496.22,69.77317619047624
1498.22,65.53573333333337
1500.22,48.80643333333335
1502.22,33.39206190476193
1504.21,43.71849047619052
1506.21,50.02122057142859
1508.2,41.01205485714288
1510.19,28.73619066666667
1512.18,20.81039942857145
1514.17,27.518157333333363
1516.16,33.1907081904762
1518.14,22.397519142857146
1520.13,29.136868571428597
1522.11,25.4068966666667
1524.09,47.82510190476195
1526.07,61.86618666666668
1528.05,48.7669461904762
1530.03,6.5262166666666745
1532.01,17.190721428571454
1533.98,12.235559523809554
1535.96,54.32684047619054
1537.93,77.60655714285717
1539.9,94.0266047619048
1541.87,76.82473333333337
1543.84,90.6671428571429
1545.81,89.07770952380959
1547.78,88.24705714285719
1549.74,73.03220476190481
1551.7,79.95700000000005
1553.67,89.83154761904771
1555.63,110.56066666666675
1557.59,142.0974857142858
1559.55,136.63294285714295
1561.5,137.31042857142864
1563.46,134.1303333333334
1565.41,145.80838095238104
1567.37,134.72619047619054
1569.32,146.40857142857152
1571.27,144.42782857142862
1573.22,134.78490000000008
1575.17,125.00454285714292
1577.11,119.94548571428575
1579.06,109.03731428571436
1581.0,110.28140000000008
1582.95,104.6314190476191
1584.89,113.4697380952382
1586.83,141.27376190476198
1588.77,135.2353476190477
1590.7,148.21271428571438
1592.64,145.58868095238103
1594.58,140.00737619047624
1596.51,137.5656047619049
1598.44,142.93153333333365
