Raman Shift,Processed Intensity
331.095,93.77097619047588
333.909,2.09651190476184
336.721,-2.391795238095156
339.531,38.92813809523815
342.339,64.7257428571429
345.145,72.93274761904762
347.949,43.31513333333332
350.751,1.2587857142857057
353.55,-36.325704761904774
356.348,-31.383928571428573
359.144,-7.193785714285703
361.937,-9.413009523809514
364.729,12.58753809523813
367.518,43.628342857142925
370.306,105.48385238095256
373.091,241.0724285714288
375.874,369.21845714285735
378.656,399.08052380952404
381.435,348.05705714285733
384.212,239.73757142857147
386.988,120.90390000000006
389.761,42.005671428571446
392.532,-9.887090476190473
395.301,-12.274769523809505
398.068,-7.560714761904736
400.833,29.757413333333353
403.596,28.231114761904756
406.358,0.5084561904761755
409.117,-17.189757619047604
411.874,19.215768571428605
414.629,28.51985714285717
417.382,44.18532380952383
420.133,44.53341904761908
422.882,48.36258095238104
425.629,104.71088571428584
428.374,189.9982285714287
431.117,250.64548571428583
433.858,272.36047619047633
436.597,277.56633333333343
439.334,227.7821904761906
442.069,208.433142857143
444.802,197.94480952380962
447.533,177.17242857142867
450.262,183.78128571428584
452.989,200.7712380952382
455.714,200.04742857142872
458.438,217.89618095238106
461.159,206.84316666666675
463.878,124.50988095238098
466.595,74.42279047619053
469.31,35.87133809523813
472.024,15.335742857142904
474.735,57.391385714285796
477.444,115.32950000000008
480.152,143.9171904761906
482.857,171.20784761904773
485.561,173.5888095238096
488.262,152.59038095238105
490.962,155.50495238095246
493.659,164.8635238095239
496.355,151.9590476190477
499.048,148.1800952380953
501.74,134.58215238095246
504.43,115.07798571428577
507.118,117.00887619047629
509.804,133.43063333333345
512.488,162.875542857143
515.17,219.58974761904778
517.85,252.77200952380963
520.528,236.57390476190488
523.204,223.24166666666676
525.878,192.8314000000001
528.551,160.06569047619053
531.221,124.23817619047624
533.89,81.73799047619052
536.556,24.478166666666688
539.221,19.895009523809584
541.883,68.0917095238096
544.544,112.31372857142867
547.203,149.8542857142858
549.86,169.91120000000004
552.515,134.7770476190477
555.168,146.03023809523822
557.819,180.0110000000001
560.469,186.67790476190484
563.116,187.0370476190477
565.761,187.47510476190484
568.405,141.18812857142865
571.047,128.6102095238096
573.687,144.50820476190484
576.324,153.31566666666677
578.96,146.0368476190477
581.594,144.86620952380957
584.227,119.71247142857148
586.857,84.86486666666673
589.485,122.56457619047629
592.112,149.10026666666676
594.737,152.7600000000001
597.359,155.21258095238105
599.98,141.93619047619055
602.599,85.64674761904769
605.216,94.10740000000007
607.831,110.98542380952388
610.445,107.90038571428579
613.056,152.70973333333342
615.666,139.27050238095242
618.274,106.53460476190483
620.88,87.83451190476197
623.484,107.3594238095239
626.086,102.67952619047631
628.686,158.88858571428582
631.284,185.12752380952395
633.881,211.58433333333346
636.476,210.2085238095239
639.068,230.71147619047633
641.659,215.94733333333346
644.249,207.00795238095247
646.836,187.8897190476191
649.421,152.11224761904768
652.005,94.48068095238101
654.587,78.41934285714291
657.166,72.68554285714292
659.745,79.13147428571433
662.321,60.51394809523812
664.895,50.87536285714289
667.468,49.210342380952426
670.038,51.51341523809528
672.607,82.9216290476191
675.174,84.85784095238098
677.739,69.93527142857147
680.303,78.7667952380953
682.864,93.53713809523813
685.424,84.95449333333339
687.982,72.91754333333334
690.538,44.51550571428574
693.092,22.55189476190478
695.645,25.87765809523811
698.195,9.296657619047625
700.744,17.279250476190498
703.291,25.867342857142898
705.836,70.38867619047625
708.38,59.02835238095239
710.921,62.30490952380955
713.461,30.689485714285734
715.999,27.843914285714334
718.535,52.66836666666673
721.069,96.82497619047622
723.602,88.3095190476191
726.133,89.64173333333338
728.662,66.96060000000003
731.189,50.31003809523813
733.714,50.73424285714291
736.238,76.51533333333339
738.759,80.12644761904767
741.279,104.18361904761912
743.798,100.8743904761905
746.314,76.71974761904765
748.829,49.717071428571444
751.342,31.91126190476192
753.853,14.53822857142862
756.362,67.59550952380957
758.869,77.60492857142862
761.375,94.56456190476196
763.879,107.90106190476195
766.381,91.70775238095244
768.882,97.0781476190477
771.38,116.24865238095244
773.877,96.78944285714292
776.372,108.2708714285715
778.866,114.7392190476191
781.357,95.05047142857148
783.847,83.53697142857148
786.335,81.00750476190481
788.821,88.22306190476198
791.306,121.9450857142858
793.789,134.36353809523817
796.27,118.66862857142863
798.749,100.85992857142867
801.227,148.84233333333347
803.702,186.329642857143
806.176,220.08380952380963
808.649,214.7240952380953
811.119,190.87014285714295
813.588,171.80766666666682
816.055,186.91876190476205
818.521,192.58442857142867
820.984,185.13863809523818
823.446,161.4870190476191
825.906,122.01165714285719
828.365,102.99907619047626
830.821,81.83165714285721
833.276,86.36763809523816
835.729,121.65565714285722
838.181,133.45925714285718
840.631,125.78009523809533
843.079,116.95306190476195
845.525,100.02734285714291
847.97,99.29077619047627
850.412,130.36407619047623
852.854,104.4875428571429
855.293,77.47293333333336
857.731,37.79852857142859
860.167,28.41887619047624
862.601,50.669879047619084
865.034,64.31593619047621
867.465,47.64535809523811
869.894,29.37511142857144
872.321,8.50796761904764
874.747,19.713240952380996
877.171,53.66068380952386
879.594,87.21027619047625
882.014,123.74601904761913
884.433,156.84245714285723
886.851,168.9312380952382
889.266,159.01571428571438
891.68,148.09885714285724
894.092,129.61242857142864
896.503,126.17880952380962
898.912,157.70598095238105
901.319,162.24471904761913
903.724,163.60829523809534
906.128,152.60904285714295
908.53,152.2028761904763
910.931,142.20270476190487
913.329,156.75455238095245
915.726,130.00466190476197
918.122,116.14700000000006
920.516,89.42278571428577
922.908,97.78773333333339
925.298,87.95930476190483
927.687,97.60708571428577
930.074,94.353580952381
932.459,99.05896190476196
934.843,88.25012380952386
937.225,89.93019047619053
939.605,93.00667619047624
941.984,90.72051904761909
944.361,104.83672380952387
946.736,117.35787142857147
949.11,88.6200047619048
951.482,64.91143333333338
953.853,61.853561904761946
956.222,42.734614285714336
958.589,76.60477142857151
960.954,113.98986190476197
963.318,110.65382857142863
965.68,96.17012857142862
968.041,85.06448095238098
970.4,65.81484000000006
972.757,59.32781380952384
975.113,57.03336095238097
977.467,28.123305238095238
979.819,2.4560800000000076
982.17,-4.110095714285692
984.519,25.94957333333337
986.866,45.826380952380994
989.212,72.90192380952386
991.556,93.89094761904767
993.899,91.69867619047625
996.24,108.23017142857151
998.579,138.72352857142866
1000.92,129.17883809523815
1003.25,124.64331904761912
1005.59,108.78350952380956
1007.92,67.83719047619053
1010.25,54.66098571428576
1012.58,63.11132380952385
1014.91,65.99690952380959
1017.24,92.12627619047626
1019.56,119.83189523809531
1021.88,131.87495238095246
1024.2,127.68252380952387
1026.52,123.58671428571435
1028.84,117.72895238095246
1031.16,125.25080952380964
1033.48,164.19819047619058
1035.79,188.85566666666676
1038.1,207.07804761904777
1040.41,218.81623809523825
1042.72,226.16361904761916
1045.03,230.78495238095252
1047.33,249.58304761904773
1049.64,239.88914285714299
1051.94,231.70109523809538
1054.24,207.39766666666677
1056.54,190.595761904762
1058.84,187.6740952380954
1061.13,215.44004761904773
1063.43,223.55757142857155
1065.72,232.21509523809536
1068.01,207.9812380952382
1070.3,198.3298571428573
1072.59,207.6870952380954
1074.87,233.3361904761906
1077.16,237.60800000000012
1079.44,254.50000000000017
1081.72,257.3430000000002
1084.0,301.46752380952404
1086.28,374.77571428571457
1088.56,502.5027619047623
1090.84,635.0275238095242
1093.11,766.0137142857147
1095.38,780.0780000000004
1097.65,746.4557619047622
1099.92,647.2874761904766
1102.19,542.855904761905
1104.46,470.73038095238127
1106.72,446.1460000000002
1108.98,408.4812380952384
1111.24,439.8764285714289
1113.5,493.9486190476194
1115.76,540.2188095238098
1118.02,590.9703333333338
1120.28,611.8672380952385
1122.53,573.0028095238098
1124.78,509.8508571428573
1127.03,470.5520476190479
1129.28,405.00900000000024
1131.53,333.02880952380974
1133.77,277.41923809523826
1136.02,230.70214285714303
1138.26,197.780142857143
1140.5,242.84180952380967
1142.74,261.8380952380954
1144.98,274.0050952380954
1147.22,319.76990476190497
1149.45,320.2736190476192
1151.69,306.9433333333335
1153.92,297.96819047619056
1156.15,249.91838095238109
1158.38,199.26880952380967
1160.61,174.9706190476191
1162.83,132.4517142857144
1165.06,130.42538095238103
1167.28,124.74802380952387
1169.5,110.51416666666672
1171.72,106.34232857142862
1173.94,88.56520952380959
1176.16,98.51607142857151
1178.37,110.14685714285719
1180.58,93.12425714285716
1182.8,76.82926190476195
1185.01,68.26216190476192
1187.22,21.232776190476205
1189.42,30.741528571428596
1191.63,26.884335714285726
1193.84,25.138176190476226
1196.04,29.980150000000016
1198.24,41.601814285714305
1200.44,37.52815952380956
1202.64,51.474628571428596
1204.84,54.06181142857146
1207.03,44.48167333333333
1209.23,20.116797142857155
1211.42,7.207010476190478
1213.61,5.039838095238097
1215.8,3.474336190476204
1217.99,10.512485238095243
1220.18,4.346800952380967
1222.36,28.21770619047623
1224.55,51.98440761904766
1226.73,63.506330000000034
1228.91,73.21441809523812
1231.09,56.20631904761907
1233.27,33.15116666666671
1235.44,39.670738095238136
1237.62,58.57700000000005
1239.79,73.63453333333338
1241.96,67.70314285714288
1244.13,87.88101904761912
1246.3,94.40887619047625
1248.47,105.38477142857151
1250.64,116.24006666666673
1252.8,123.26340000000006
1254.96,122.31507142857154
1257.13,158.6362857142858
1259.29,177.51557142857155
1261.44,208.67038095238107
1263.6,212.72242857142868
1265.76,199.96070476190488
1267.91,172.2931333333334
1270.06,138.48479047619054
1272.22,110.34820000000008
1274.37,108.79140000000005
1276.51,104.34106666666672
1278.66,99.23865238095243
1280.81,88.20149047619054
1282.95,95.13765238095245
1285.09,84.90725238095243
1287.23,79.22775714285719
1289.37,79.76909047619053
1291.51,95.0105333333334
1293.65,106.0026238095239
1295.78,118.41514285714291
1297.92,120.25093809523817
1300.05,106.08471428571434
1302.18,100.30054761904769
1304.31,104.13962857142864
1306.44,105.2238476190477
1308.57,118.36563809523818
1310.69,127.28178095238103
1312.82,122.7373714285715
1314.94,139.83026666666677
1317.06,148.61089523809534
1319.18,172.27240000000012
1321.3,202.05578095238107
1323.41,202.15400000000014
1325.53,222.76014285714302
1327.64,265.16233333333344
1329.75,290.4106666666669
1331.87,307.31671428571445
1333.98,290.21633333333347
1336.08,279.5405714285716
1338.19,251.05314285714297
1340.3,210.66109523809533
1342.4,158.3188333333334
1344.5,123.50414285714292
1346.6,105.79032857142866
1348.7,116.7509476190477
1350.8,109.53025238095243
1352.9,102.46352857142864
1354.99,99.59946666666674
1357.09,116.51080476190485
1359.18,138.1989714285715
1361.27,133.9985714285715
1363.36,132.76766666666674
1365.45,128.36480952380958
1367.54,131.36195238095246
1369.62,157.42638095238107
1371.7,184.3685238095239
1373.79,213.23619047619061
1375.87,263.1726190476192
1377.95,272.36900000000014
1380.03,260.58714285714296
1382.1,231.16023809523818
1384.18,194.89804761904773
1386.25,162.9904761904763
1388.33,157.8658476190477
1390.4,126.14271904761911
1392.47,100.24875238095242
1394.54,67.51643809523813
1396.6,66.46896190476195
1398.67,72.43839523809531
1400.74,92.99487619047625
1402.8,85.94643809523814
1404.86,86.24389523809529
1406.92,65.07597619047621
1408.98,56.20276666666669
1411.04,55.38400952380955
1413.09,57.1412666666667
1415.15,57.7102247619048
1417.2,49.80261761904764
1419.25,47.79644000000005
1421.3,58.40326809523815
1423.35,67.42957333333338
1425.4,70.491250952381
1427.45,88.6326390476191
1429.49,80.56454761904769
1431.54,95.0927714285715
1433.58,86.6900166666667
1435.62,57.35245714285716
1437.66,43.79055952380956
1439.7,37.47658571428575
1441.74,46.88271190476195
1443.77,74.24277142857147
1445.81,86.69561428571433
1447.84,83.90366666666672
1449.87,87.05307142857146
1451.9,84.75874761904768
1453.93,86.63528095238101
1455.96,107.01148095238102
1457.98,110.40672857142864
1460.01,132.57861904761916
1462.03,143.71342857142866
1464.05,194.04509523809537
1466.07,221.3310000000001
1468.09,247.51914285714304
1470.11,284.6526190476192
1472.13,311.77500000000015
1474.14,311.97761904761927
1476.16,330.6850476190478
1478.17,299.4170000000001
1480.18,249.07447619047633
1482.19,221.8915238095239
1484.2,163.95961904761913
1486.21,125.65647619047627
1488.21,119.26430476190484
1490.22,114.97005714285721
1492.22,106.58026190476197
1494.22,95.04402857142861
1496.22,82.07281904761909
1498.22,70.14046666666671
1500.22,71.24436190476193
1502.22,36.334495238095236
1504.21,24.408652380952407
1506.21,31.03648095238099
1508.2,58.59727142857149
1510.19,74.13715523809527
1512.18,73.41680285714286
1514.17,27.006605714285726
1516.16,11.905592380952402
1518.14,12.208477142857177
1520.13,42.3433647619048
1522.11,64.54803142857146
1524.09,65.7747523809524
1526.07,59.92835714285718
1528.05,71.53289047619052
1530.03,67.49338571428575
1532.01,64.85797619047622
1533.98,41.29394761904763
1535.96,30.992333333333367
1537.93,32.66842380952385
1539.9,64.84696666666672
1541.87,77.67178571428576
1543.84,89.2392428571429
1545.81,66.16960000000005
1547.78,83.89244285714292
1549.74,101.45686190476198
1551.7,121.43594285714295
1553.67,143.11675714285724
1555.63,170.83413333333343
1557.59,161.9232761904763
1559.55,146.19501428571434
1561.5,131.69883809523816
1563.46,120.29365238095247
1565.41,128.69564761904772
1567.37,140.57330000000007
1569.32,140.54789523809532
1571.27,121.95419047619056
1573.22,123.79454285714293
1575.17,111.45161428571434
1577.11,115.26113333333342
1579.06,136.03471904761915
1581.0,162.63170476190487
1582.95,198.00608095238107
1584.89,202.25562857142867
1586.83,166.9061571428572
1588.77,113.62655238095242
1590.7,76.1333190476191
1592.64,72.14302857142863
1594.58,94.27652857142868
1596.51,99.70274285714292
1598.44,59.92382142857136
