Raman Shift,Processed Intensity
331.095,85.38257380952378
333.909,52.980507142857135
336.721,27.264564285714265
339.531,10.860895238095246
342.339,6.871547619047646
345.145,27.660885714285733
347.949,38.951495238095234
350.751,7.990547619047604
353.55,-27.926176190476216
356.348,-49.35899523809524
359.144,-16.105580952380915
361.937,21.9427285714286
364.729,45.657371428571466
367.518,76.62509047619055
370.306,112.62450952380968
373.091,240.1971952380955
375.874,379.1234333333336
378.656,424.3758095238097
381.435,382.4038285714287
384.212,246.89654285714292
386.988,108.30613809523817
389.761,40.13340476190477
392.532,-7.643761904761885
395.301,-11.379319047619026
398.068,18.71665714285715
400.833,20.673695238095263
403.596,24.28417714285713
406.358,9.055937142857136
409.117,-20.168697619047624
411.874,-3.498639999999975
414.629,9.958254285714306
417.382,31.476193333333363
420.133,46.377977142857176
422.882,41.08267523809527
425.629,55.53410047619057
428.374,140.91514571428584
431.117,231.314342857143
433.858,295.39215238095255
436.597,300.3339142857144
439.334,236.32609523809535
442.069,166.50771428571437
444.802,148.9239047619049
447.533,160.57242857142867
450.262,181.4515238095239
452.989,194.3699047619049
455.714,225.32761904761918
458.438,225.22941761904772
461.159,189.50494976190484
463.878,106.10787095238098
466.595,37.04020023809526
469.31,-6.6955814285713835
472.024,31.808521190476267
474.735,103.60314619047628
477.444,135.69218095238102
480.152,111.60361428571434
482.857,99.19931428571435
485.561,89.67463809523818
488.262,102.84443809523819
490.962,140.33280000000008
493.659,152.62206666666674
496.355,145.14664761904768
499.048,116.91300476190482
501.74,103.73686666666671
504.43,104.72028095238102
507.118,103.9172714285715
509.804,111.38243333333342
512.488,137.5986238095239
515.17,163.28718095238108
517.85,170.16941904761916
520.528,187.39570476190482
523.204,156.44887619047626
525.878,115.52642857142865
528.551,108.25441904761914
531.221,115.92538571428575
533.89,83.30827142857147
536.556,60.933919047619064
539.221,53.09439047619052
541.883,45.22516190476196
544.544,79.85650476190483
547.203,113.37585238095244
549.86,123.4083714285715
552.515,119.10303333333341
555.168,134.89410476190486
557.819,119.93028571428579
560.469,138.5023809523811
563.116,161.75895238095248
565.761,163.6095714285715
568.405,158.63051428571438
571.047,132.68353809523813
573.687,100.72531428571436
576.324,123.56914761904771
578.96,124.36207142857151
581.594,142.63148095238105
584.227,158.42799523809532
586.857,145.37365714285724
589.485,132.70899523809533
592.112,136.62680952380958
594.737,104.89133809523815
597.359,105.59962857142864
599.98,87.61020952380959
602.599,102.59092380952389
605.216,104.39965714285721
607.831,109.75124761904769
610.445,99.6937190476191
613.056,92.60791428571432
615.666,55.969809523809566
618.274,74.30231428571435
620.88,82.60464761904768
623.484,114.49454285714293
626.086,135.399161904762
628.686,156.36441904761915
631.284,174.19780952380967
633.881,233.23000000000013
636.476,257.5063333333335
639.068,281.69052380952394
641.659,245.68409523809532
644.249,210.00733333333346
646.836,183.18060000000008
649.421,149.00936190476196
652.005,109.96598095238102
654.587,100.18903809523815
657.166,80.6740333333334
659.745,70.94002857142863
662.321,74.8396047619048
664.895,64.12965714285718
667.468,35.75750000000002
670.038,54.098961904761964
672.607,75.81546190476195
675.174,80.37786190476197
677.739,79.59031428571431
680.303,79.06645238095241
682.864,63.75328571428577
685.424,80.2643428571429
687.982,88.30848514285718
690.538,78.54693466666667
693.092,44.64097885714286
695.645,5.490046285714289
698.195,3.9937188571428743
700.744,9.05157752380955
703.291,43.944284190476225
705.836,41.38122857142857
708.38,25.50048523809524
710.921,-2.8930257142857125
713.461,4.100993809523834
715.999,7.621179047619073
718.535,52.09202047619052
721.069,71.55727523809529
723.602,86.72750476190481
726.133,93.40866190476197
728.662,89.45450000000002
731.189,58.43317142857147
733.714,60.34173809523814
736.238,61.08190476190481
738.759,85.17468571428579
741.279,110.80788571428576
743.798,96.93139047619051
746.314,90.25727619047625
748.829,71.78335238095241
751.342,69.69769523809529
753.853,81.0461428571429
756.362,94.16021428571432
758.869,90.75253333333339
761.375,93.48835238095242
763.879,90.98506666666674
766.381,90.05087142857147
768.882,91.44644761904767
771.38,80.69468571428574
773.877,76.60416666666671
776.372,69.79307619047624
778.866,75.92729523809528
781.357,76.43486666666671
783.847,71.41034761904764
786.335,56.853490476190515
788.821,58.097328571428605
791.306,63.713100000000054
793.789,71.17693809523816
796.27,88.10779047619053
798.749,98.83915238095247
801.227,132.27609047619057
803.702,175.5142809523811
806.176,200.934742857143
808.649,198.82404761904772
811.119,178.84919047619059
813.588,143.72495238095246
816.055,135.21438095238105
818.521,150.31819047619055
820.984,136.98944285714293
823.446,118.75334761904767
825.906,96.89647142857147
828.365,69.8007571428572
830.821,59.372504761904814
833.276,78.04120476190481
835.729,86.42751428571434
838.181,80.34237619047623
840.631,87.12070476190482
843.079,93.47814761904769
845.525,105.08300476190483
847.97,111.98446666666672
850.412,107.5654285714286
852.854,71.01810000000003
855.293,61.58249523809528
857.731,46.49841714285718
860.167,43.1487623809524
862.601,31.05938190476192
865.034,27.756113809523825
867.465,19.574372380952404
869.894,28.611505238095262
872.321,41.393483809523836
874.747,48.63675714285718
877.171,43.77209047619051
879.594,54.51620952380957
882.014,73.6329952380953
884.433,86.31548095238102
886.851,111.8515714285715
889.266,130.6722190476191
891.68,121.25626666666675
894.092,118.74894285714296
896.503,143.628561904762
898.912,165.51690476190487
901.319,142.5591190476191
903.724,134.80541904761913
906.128,113.16316666666671
908.53,86.20603809523817
910.931,92.07957619047626
913.329,127.02425714285721
915.726,125.32841904761914
918.122,131.75646190476198
920.516,112.2155904761905
922.908,63.232166666666686
925.298,42.380276190476245
927.687,61.424218095238146
930.074,60.79514904761908
932.459,77.82880761904767
934.843,71.71817952380955
937.225,51.846688571428615
939.605,57.16916047619051
941.984,55.592798571428574
944.361,18.881889523809544
946.736,30.276929047619063
949.11,24.49455619047621
951.482,24.20375190476193
953.853,32.97822095238097
956.222,40.0106666666667
958.589,54.39853047619052
960.954,59.76302333333336
963.318,56.34431809523812
965.68,46.1920861904762
968.041,37.5464085714286
970.4,42.837751904761944
972.757,54.92514000000002
975.113,43.00084761904763
977.467,20.87609523809524
979.819,3.7430190476190504
982.17,-3.015842857142842
984.519,10.26763333333336
986.866,37.07106190476195
989.212,69.96721904761908
991.556,77.81447619047623
993.899,75.94729047619052
996.24,76.84292857142863
998.579,76.93087619047624
1000.92,64.25961428571432
1003.25,58.782242857142876
1005.59,43.97560476190478
1007.92,31.459228571428604
1010.25,40.61448571428575
1012.58,50.203547619047654
1014.91,82.08394761904769
1017.24,92.3031190476191
1019.56,102.81348095238101
1021.88,110.28154285714291
1024.2,114.70711428571437
1026.52,110.94680476190483
1028.84,134.66735238095248
1031.16,146.34400000000008
1033.48,162.0714761904763
1035.79,178.4207142857144
1038.1,196.3909523809525
1040.41,205.74280952380963
1042.72,206.18995238095252
1045.03,228.73100952380963
1047.33,201.46029523809534
1049.64,178.75773333333345
1051.94,158.19346666666675
1054.24,144.9564476190477
1056.54,156.2837238095239
1058.84,173.1737238095239
1061.13,157.05347619047626
1063.43,163.58809523809535
1065.72,167.91861904761916
1068.01,184.6147142857144
1070.3,207.2939047619049
1072.59,206.8114285714287
1074.87,201.40333333333345
1077.16,189.54428571428582
1079.44,192.51804761904776
1081.72,225.60847619047638
1084.0,276.8131904761907
1086.28,363.3682380952384
1088.56,503.6526190476194
1090.84,628.6163333333337
1093.11,724.1147619047624
1095.38,758.7647142857146
1097.65,690.1826190476194
1099.92,589.5570000000004
1102.19,485.60009523809555
1104.46,402.8806190476193
1106.72,369.3016190476193
1108.98,386.19357142857166
1111.24,407.88747619047643
1113.5,462.66709523809556
1115.76,520.5773809523813
1118.02,561.9019047619051
1120.28,559.4956190476194
1122.53,539.022285714286
1124.78,471.1943333333336
1127.03,398.43780952380973
1129.28,338.79814285714303
1131.53,298.606142857143
1133.77,239.47861904761916
1136.02,208.03219047619064
1138.26,197.97914285714302
1140.5,201.8406190476192
1142.74,212.13876190476208
1144.98,251.53742857142876
1147.22,266.93952380952396
1149.45,248.67619047619064
1151.69,251.55471428571445
1153.92,238.95385714285732
1156.15,234.8238571428573
1158.38,224.73418095238105
1160.61,196.25435238095247
1162.83,137.52531904761912
1165.06,107.5449714285715
1167.28,101.02590952380959
1169.5,105.44226666666673
1171.72,108.74481428571436
1173.94,110.36049523809528
1176.16,87.85886190476195
1178.37,98.61921238095245
1180.58,91.16394809523811
1182.8,63.20572000000003
1185.01,44.79075190476191
1187.22,32.77502952380954
1189.42,25.29991476190481
1191.63,54.36432190476194
1193.84,56.53844285714288
1196.04,39.6307523809524
1198.24,45.068847619047645
1200.44,33.89951428571431
1202.64,43.97915238095242
1204.84,67.59282380952385
1207.03,48.97816190476191
1209.23,19.51580000000002
1211.42,21.538876190476202
1213.61,19.761733333333368
1215.8,33.327480952380995
1217.99,65.33176666666668
1220.18,48.82287619047621
1222.36,36.230223809523835
1224.55,42.507209523809564
1226.73,57.22644761904766
1228.91,53.67505714285718
1231.09,59.759323809523835
1233.27,48.8619523809524
1235.44,37.88955714285718
1237.62,41.98703809523812
1239.79,41.06130476190478
1241.96,35.971809523809554
1244.13,52.86378571428576
1246.3,84.26363809523818
1248.47,111.50741428571436
1250.64,136.07417619047627
1252.8,143.633561904762
1254.96,143.33133333333342
1257.13,133.5992857142858
1259.29,151.5832380952382
1261.44,155.95319047619057
1263.6,162.42695238095249
1265.76,180.00785714285723
1267.91,180.31866666666676
1270.06,171.50585714285722
1272.22,162.1443333333334
1274.37,148.57114285714295
1276.51,135.5042857142858
1278.66,135.32838095238102
1280.81,125.04714285714293
1282.95,124.18835238095242
1285.09,104.37500952380958
1287.23,96.8014333333334
1289.37,99.18593333333338
1291.51,99.48463809523815
1293.65,71.08213333333336
1295.78,66.64899047619052
1297.92,67.09412380952386
1300.05,96.70690000000008
1302.18,118.15791904761909
1304.31,104.83171428571431
1306.44,61.970161904761945
1308.57,64.52932380952387
1310.69,81.32253333333342
1312.82,132.16283809523816
1314.94,159.9107857142858
1317.06,167.14150476190486
1319.18,166.33466666666678
1321.3,184.68438095238105
1323.41,188.09857142857155
1325.53,221.10447619047633
1327.64,230.94304761904777
1329.75,267.61776190476206
1331.87,284.8935714285716
1333.98,283.4401904761906
1336.08,261.4034285714287
1338.19,248.78623809523822
1340.3,210.49600000000012
1342.4,200.05941904761917
1344.5,171.57430000000008
1346.6,131.7574095238096
1348.7,112.80174761904769
1350.8,92.37633809523817
1352.9,90.62610952380959
1354.99,105.41044285714293
1357.09,108.35052380952388
1359.18,114.40064285714291
1361.27,121.89595238095244
1363.36,126.69523809523818
1365.45,141.7525238095239
1367.54,142.25952380952387
1369.62,142.83680952380962
1371.7,178.533142857143
1373.79,191.0161904761906
1375.87,240.71571428571445
1377.95,272.68038095238114
1380.03,283.00566666666685
1382.1,260.59687619047634
1384.18,208.21637619047627
1386.25,137.34051428571436
1388.33,93.540980952381
1390.4,76.7224952380953
1392.47,91.02754285714289
1394.54,76.31284285714288
1396.6,59.14937619047623
1398.67,57.20301904761908
1400.74,50.99677142857147
1402.8,59.00569523809527
1404.86,72.6097047619048
1406.92,62.80719523809528
1408.98,81.88236190476195
1411.04,89.26202857142862
1413.09,86.84910952380957
1415.15,80.40349047619054
1417.2,67.6375047619048
1419.25,59.881776190476245
1421.3,84.7530190476191
1423.35,81.20116190476195
1425.4,87.03290952380958
1427.45,100.0550428571429
1429.49,88.55018571428577
1431.54,88.99117142857149
1433.58,77.66051666666668
1435.62,41.697852380952405
1437.66,29.718592857142887
1439.7,32.624014285714324
1441.74,51.98172142857148
1443.77,70.97838571428575
1445.81,76.13389523809528
1447.84,65.3489904761905
1449.87,48.09570000000002
1451.9,37.08406190476194
1453.93,55.21465238095243
1455.96,54.816285714285755
1457.98,79.12250000000007
1460.01,114.79540952380961
1462.03,140.30682857142867
1464.05,167.60430952380963
1466.07,198.87385714285725
1468.09,222.3013809523811
1470.11,269.9772857142859
1472.13,314.84900000000016
1474.14,312.19804761904777
1476.16,290.40033333333344
1478.17,247.49900000000014
1480.18,209.2515714285715
1482.19,182.27242857142866
1484.2,166.69989523809534
1486.21,135.0538476190477
1488.21,140.99674285714295
1490.22,110.80997142857147
1492.22,74.44180000000004
1494.22,49.69781904761909
1496.22,56.95507619047625
1498.22,68.59119523809531
1500.22,111.41244733333338
1502.22,89.70103614285718
1504.21,61.120567523809555
1506.21,42.810927190476235
1508.2,47.91198180952385
1510.19,58.89752661904767
1512.18,71.14602352380955
1514.17,39.17904761904762
1516.16,22.899285714285732
1518.14,13.162023809523829
1520.13,24.77513809523813
1522.11,46.213338095238136
1524.09,62.66584285714289
1526.07,56.988742857142896
1528.05,68.37159523809528
1530.03,75.71849238095243
1532.01,56.26708523809526
1533.98,48.826460952381
1535.96,61.87284333333339
1537.93,93.83495142857151
1539.9,107.95089476190482
1541.87,114.17348285714287
1543.84,77.5508428571429
1545.81,54.94098095238101
1547.78,77.96384285714295
1549.74,135.09657142857154
1551.7,167.76882857142868
1553.67,172.88689523809532
1555.63,151.9283333333334
1557.59,140.79947619047627
1559.55,126.40666666666675
1561.5,134.7992380952382
1563.46,153.5505238095239
1565.41,149.37709523809534
1567.37,141.37609523809533
1569.32,140.73985714285723
1571.27,130.08995238095247
1573.22,126.8096714285715
1575.17,112.09174285714292
1577.11,113.22455714285722
1579.06,114.06759047619053
1581.0,116.43284285714296
1582.95,136.6561238095239
1584.89,159.21626666666674
1586.83,153.7825523809525
1588.77,147.1675047619048
1590.7,137.42124761904768
1592.64,136.78489523809532
1594.58,143.6179095238095
1596.51,133.39918095238085
1598.44,89.63134285714281
