Raman Shift,Processed Intensity
331.095,34.61563571428591
333.909,29.897580952381013
336.721,-2.8940404761904617
339.531,-39.80176190476192
342.339,-33.296983809523795
345.145,-13.160212380952373
347.949,8.900537142857154
350.751,27.225764761904763
353.55,25.585470476190473
356.348,-6.8208623809523745
359.144,-0.6975457142857024
361.937,24.013945238095282
364.729,37.51604761904768
367.518,109.15522142857156
370.306,174.7071285714287
373.091,266.6154476190478
375.874,362.4201142857145
378.656,409.47178095238115
381.435,339.2648571428573
384.212,252.62836190476196
386.988,119.39213685714289
389.761,37.101770904761935
392.532,15.16113228571431
395.301,-10.738831380952389
398.068,-11.906224857142838
400.833,10.59029471428572
403.596,6.826251142857144
406.358,1.9736999999999982
409.117,4.967842857142835
411.874,-28.778561904761915
414.629,-33.89913333333334
417.382,-14.597666666666655
420.133,19.399404761904812
422.882,50.652728571428625
425.629,87.2478476190477
428.374,162.22382380952394
431.117,229.2871809523811
433.858,265.7174476190478
436.597,259.9851142857144
439.334,207.08542857142868
442.069,148.157761904762
444.802,148.24666666666678
447.533,159.8262380952382
450.262,173.56209523809537
452.989,188.50138095238106
455.714,215.69161904761918
458.438,238.5147523809525
461.159,208.6387714285715
463.878,134.3991190476191
466.595,85.03627619047624
469.31,55.363095238095305
472.024,82.62124761904774
474.735,131.7671333333334
477.444,120.66244761904767
480.152,98.97862380952388
482.857,124.53054285714295
485.561,137.65703809523822
488.262,177.26916190476203
490.962,198.37287619047626
493.659,172.3559238095239
496.355,138.12958095238102
499.048,102.55800476190481
501.74,95.26714285714294
504.43,85.40731428571435
507.118,76.98580476190482
509.804,97.05790476190484
512.488,128.34548095238102
515.17,154.046861904762
517.85,173.2649190476191
520.528,160.00762857142863
523.204,124.23494285714293
525.878,127.71648571428581
528.551,122.65051904761911
531.221,123.85436190476194
533.89,92.90703809523814
536.556,79.10199047619052
539.221,45.77982857142862
541.883,68.18611428571434
544.544,75.75660476190482
547.203,82.64126666666671
549.86,95.94237142857148
552.515,109.42859047619052
555.168,107.7730476190477
557.819,127.74414285714292
560.469,138.10978095238102
563.116,117.0664714285715
565.761,117.04851428571436
568.405,116.91871904761912
571.047,146.34884761904772
573.687,170.24885238095248
576.324,183.33751428571435
578.96,153.38113809523816
581.594,133.95503809523817
584.227,123.96811904761915
586.857,130.0905857142858
589.485,124.46856190476198
592.112,129.34333809523818
594.737,104.47910000000006
597.359,114.163661904762
599.98,119.30400476190482
602.599,115.71116190476195
605.216,113.24385714285721
607.831,110.61750000000006
610.445,109.59439047619057
613.056,131.36541428571437
615.666,122.59738095238102
618.274,106.57560476190483
620.88,107.20451428571434
623.484,108.05450476190487
626.086,140.31460952380965
628.686,150.6502761904763
631.284,204.29771428571445
633.881,248.11190476190492
636.476,259.66180952380967
639.068,251.27809523809535
641.659,215.62423809523818
644.249,151.41165714285725
646.836,130.2081476190477
649.421,103.62898095238099
652.005,70.05109523809529
654.587,65.23202857142863
657.166,73.97692857142863
659.745,82.66228571428576
662.321,87.71181904761909
664.895,75.59679523809528
667.468,90.55012857142863
670.038,93.75693047619052
672.607,79.02152809523812
675.174,49.05272285714287
677.739,19.321114761904777
680.303,13.964013333333387
682.864,81.78521380952387
685.424,96.3027685714286
687.982,86.89191904761907
690.538,63.16599047619048
693.092,19.35740476190478
695.645,12.88921904761909
698.195,42.232112380952394
700.744,25.42814095238096
703.291,28.710067619047642
705.836,40.45354476190479
708.38,17.748677142857154
710.921,23.828498095238118
713.461,26.54532190476191
715.999,19.32299047619051
718.535,30.58557619047622
721.069,68.70951809523814
723.602,51.07162285714289
726.133,68.62036476190481
728.662,62.39925333333336
731.189,69.9759314285715
733.714,78.10862761904768
736.238,100.60323238095243
738.759,97.74233333333339
741.279,120.18932380952388
743.798,102.56000952380958
746.314,106.04196857142863
748.829,76.96564476190478
751.342,55.37596571428575
753.853,30.365717142857164
756.362,41.551356190476234
758.869,57.549711428571484
761.375,90.78725428571435
763.879,104.11897619047625
766.381,101.06677619047623
768.882,78.05748571428576
771.38,70.27999523809528
773.877,65.16135238095242
776.372,68.03357619047624
778.866,70.56199523809526
781.357,62.98359047619052
783.847,65.96397142857147
786.335,72.93094285714291
788.821,90.97882857142864
791.306,119.20221904761911
793.789,125.12419047619055
796.27,133.45880000000008
798.749,145.34828571428582
801.227,181.26900000000012
803.702,219.93476190476207
806.176,237.15523809523822
808.649,236.21600000000012
811.119,216.35557142857158
813.588,212.19295238095253
816.055,220.53833333333344
818.521,212.24890476190487
820.984,189.2780000000001
823.446,175.6260476190477
825.906,142.00804761904772
828.365,128.6153333333334
830.821,116.97238095238103
833.276,112.74695238095246
835.729,134.51157142857153
838.181,156.3149523809525
840.631,168.72961904761917
843.079,172.37585714285723
845.525,155.11200000000008
847.97,140.74930476190485
850.412,123.09863809523816
852.854,118.25709523809532
855.293,107.74975238095243
857.731,103.48291428571434
860.167,98.02968571428579
862.601,99.3919190476191
865.034,92.00011904761911
867.465,100.71346083809526
869.894,60.295646838095266
872.321,58.605684152381
874.747,64.45519659047623
877.171,82.03686986666673
879.594,92.11468493333338
882.014,111.07185131428578
884.433,94.57716666666673
886.851,104.7278476190477
889.266,117.90750476190483
891.68,131.4041238095239
894.092,133.55323809523816
896.503,150.73833333333343
898.912,159.81895238095245
901.319,153.2734761904763
903.724,153.72385714285724
906.128,137.17238095238105
908.53,155.24078095238107
910.931,156.5982095238096
913.329,158.2470857142858
915.726,145.38045714285724
918.122,148.42965714285722
920.516,147.77801904761915
922.908,157.3807333333334
925.298,151.47855238095246
927.687,137.59763809523815
930.074,111.07420000000006
932.459,97.14893333333337
934.843,79.82443333333337
937.225,58.34139047619053
939.605,85.17899523809531
941.984,103.7680952380953
944.361,106.96855714285721
946.736,115.1162190476191
949.11,107.8804571428572
951.482,85.97820952380958
953.853,98.3168190476191
956.222,80.85119523809527
958.589,78.15546666666673
960.954,83.37485238095242
963.318,81.65480952380956
965.68,68.14068571428575
968.041,66.59670476190479
970.4,46.40636190476194
972.757,52.572142857142886
975.113,51.810647619047636
977.467,25.600433333333335
979.819,9.229523809523823
982.17,10.22403333333336
984.519,27.157561904761952
986.866,62.93721428571436
989.212,100.8029714285715
991.556,117.7572095238096
993.899,149.61151904761914
996.24,169.65347619047625
998.579,141.74189047619052
1000.92,122.83117142857148
1003.25,98.16059047619052
1005.59,85.49386190476197
1007.92,94.78474285714292
1010.25,88.74863809523812
1012.58,71.19628095238102
1014.91,95.93802857142865
1017.24,104.11743809523816
1019.56,124.3068333333334
1021.88,140.26864761904767
1024.2,114.33642857142863
1026.52,117.93934285714293
1028.84,122.83918095238103
1031.16,129.27393333333345
1033.48,159.76784761904776
1035.79,189.74913333333345
1038.1,207.36023809523826
1040.41,233.45804761904776
1042.72,237.08990476190488
1045.03,229.82628571428583
1047.33,206.04780952380963
1049.64,191.18219047619058
1051.94,178.32352380952392
1054.24,162.51876190476202
1056.54,154.48104761904773
1058.84,167.78061904761915
1061.13,160.89261904761918
1063.43,190.2444761904763
1065.72,202.5961904761906
1068.01,188.61333333333343
1070.3,175.10380952380964
1072.59,178.30404761904774
1074.87,165.11747619047634
1077.16,193.1139047619049
1079.44,239.43400000000017
1081.72,273.40942857142875
1084.0,323.5146190476193
1086.28,368.08052380952404
1088.56,466.9625714285718
1090.84,598.3016190476195
1093.11,718.143190476191
1095.38,741.1040476190481
1097.65,677.3251904761908
1099.92,551.565904761905
1102.19,445.11000000000024
1104.46,390.24080952380973
1106.72,408.3848571428574
1108.98,423.3012380952384
1111.24,453.8927142857146
1113.5,493.91847619047655
1115.76,536.2335714285717
1118.02,576.5973333333336
1120.28,579.9123809523812
1122.53,542.3663809523812
1124.78,499.19538095238124
1127.03,431.49180952380976
1129.28,378.3962857142859
1131.53,331.7157619047621
1133.77,264.4477142857144
1136.02,230.20857142857156
1138.26,215.32985714285726
1140.5,195.95166666666682
1142.74,212.3096190476192
1144.98,243.49661904761922
1147.22,275.7480952380954
1149.45,296.8712857142859
1151.69,289.8165238095239
1153.92,243.91476190476206
1156.15,210.63985714285724
1158.38,172.51342857142868
1160.61,156.58080952380962
1162.83,152.982761904762
1165.06,160.6694095238096
1167.28,131.21000952380962
1169.5,102.07878571428577
1171.72,72.98780000000005
1173.94,71.84011904761911
1176.16,92.87199047619055
1178.37,118.65277619047626
1180.58,106.75210952380958
1182.8,90.07303428571431
1185.01,54.9471542857143
1187.22,26.80158857142859
1189.42,11.349116666666669
1191.63,2.159547619047622
1193.84,1.802965238095255
1196.04,8.325660000000006
1198.24,22.39303476190479
1200.44,43.71821333333336
1202.64,49.44297047619051
1204.84,63.42346190476195
1207.03,66.0873523809524
1209.23,59.433852380952416
1211.42,42.605119047619056
1213.61,32.64823809523811
1215.8,23.134228571428597
1217.99,33.30097619047622
1220.18,34.291190476190515
1222.36,69.2003190476191
1224.55,90.88558095238102
1226.73,81.49025238095241
1228.91,66.5387047619048
1231.09,40.88888095238097
1233.27,26.351242857142907
1235.44,48.59369047619053
1237.62,90.23655238095243
1239.79,80.32890952380956
1241.96,96.4437333333334
1244.13,118.9161476190477
1246.3,132.36731428571437
1248.47,159.32334761904772
1250.64,154.8816571428572
1252.8,132.9494095238096
1254.96,138.0527714285715
1257.13,144.05150476190485
1259.29,159.61522857142867
1261.44,184.556561904762
1263.6,178.59252380952393
1265.76,169.53595238095247
1267.91,171.86628571428582
1270.06,189.87247619047633
1272.22,210.60557142857152
1274.37,211.59261904761914
1276.51,193.0276190476191
1278.66,160.7238571428572
1280.81,136.20909523809533
1282.95,148.29642857142866
1285.09,151.989761904762
1287.23,161.62590476190488
1289.37,160.54238095238108
1291.51,165.6952095238096
1293.65,151.51700000000005
1295.78,117.39247142857147
1297.92,96.8020857142858
1300.05,89.36841428571435
1302.18,102.95288571428581
1304.31,130.60688095238103
1306.44,134.47745714285722
1308.57,141.5209047619049
1310.69,162.55057142857152
1312.82,187.61761904761917
1314.94,203.3450476190477
1317.06,198.54638095238107
1319.18,180.1780000000001
1321.3,184.86219047619062
1323.41,210.60266666666683
1325.53,257.0220952380954
1327.64,300.21909523809546
1329.75,332.3878571428574
1331.87,356.3887619047621
1333.98,344.12957142857164
1336.08,330.0898095238097
1338.19,323.5107142857145
1340.3,295.8233809523811
1342.4,263.41204761904777
1344.5,211.51714285714294
1346.6,159.52276190476198
1348.7,133.81191428571438
1350.8,111.3871428571429
1352.9,76.53598571428577
1354.99,89.45116190476196
1357.09,107.943861904762
1359.18,124.15913333333341
1361.27,162.43150000000009
1363.36,149.42889523809532
1365.45,133.58114285714296
1367.54,154.93690476190488
1369.62,200.259142857143
1371.7,229.59671428571443
1373.79,245.33080952380965
1375.87,244.84276190476203
1377.95,232.5140952380954
1380.03,230.249523809524
1382.1,241.1919047619049
1384.18,241.81785714285724
1386.25,190.84111904761915
1388.33,169.8804380952382
1390.4,130.7928190476191
1392.47,123.62495238095248
1394.54,117.28099523809531
1396.6,136.66507619047627
1398.67,110.15721904761911
1400.74,123.85124761904768
1402.8,100.03211428571436
1404.86,106.88867619047627
1406.92,105.03907142857148
1408.98,113.48158571428579
1411.04,89.64322857142862
1413.09,93.95058571428576
1415.15,87.68798571428579
1417.2,105.71041428571436
1419.25,120.06383809523815
1421.3,114.9840190476191
1423.35,103.65935238095243
1425.4,80.99225714285718
1427.45,65.79012380952385
1429.49,76.85996190476196
1431.54,80.627840952381
1433.58,53.23405285714288
1435.62,56.86645333333337
1437.66,65.7126471428572
1439.7,57.53194380952387
1441.74,85.13086238095244
1443.77,85.93516000000002
1445.81,64.79902857142864
1447.84,80.57649047619054
1449.87,106.83580000000006
1451.9,118.28809523809532
1453.93,137.45361904761913
1455.96,122.66247619047627
1457.98,136.67342857142867
1460.01,120.34021428571435
1462.03,136.23114285714297
1464.05,159.9140238095239
1466.07,203.57580952380968
1468.09,247.5462619047621
1470.11,314.9649047619049
1472.13,316.39980952380967
1474.14,318.9430952380954
1476.16,290.54342857142876
1478.17,274.292761904762
1480.18,254.3780000000001
1482.19,228.60561904761911
1484.2,188.9248380952382
1486.21,143.71333809523816
1488.21,115.82515238095246
1490.22,112.97119523809529
1492.22,98.7676190476191
1494.22,88.40229523809529
1496.22,95.4913190476191
1498.22,66.03187142857145
1500.22,55.831057142857176
1502.22,55.40981904761907
1504.21,40.19450952380956
1506.21,35.84948571428575
1508.2,65.75343809523812
1510.19,57.80911428571433
1512.18,63.5860285714286
1514.17,56.32042380952383
1516.16,59.72483428571432
1518.14,34.60718904761907
1520.13,48.15644952380957
1522.11,74.9425871428572
1524.09,87.96437809523813
1526.07,95.17298428571435
1528.05,112.42444380952385
1530.03,82.86066190476195
1532.01,71.71885238095243
1533.98,65.95053809523812
1535.96,56.69791904761908
1537.93,51.34133333333337
1539.9,51.40407619047622
1541.87,57.31430476190481
1543.84,62.643095238095285
1545.81,79.19967619047627
1547.78,116.26955238095248
1549.74,160.2336380952382
1551.7,188.28237142857154
1553.67,189.98757142857153
1555.63,163.5395238095239
1557.59,144.17657142857152
1559.55,145.184761904762
1561.5,169.8975238095239
1563.46,185.1248095238096
1565.41,183.53409523809532
1567.37,174.7448095238096
1569.32,152.75790476190485
1571.27,159.00228571428585
1573.22,166.71657142857154
1575.17,159.85414285714296
1577.11,159.46333333333342
1579.06,167.44995238095248
1581.0,153.43409523809535
1582.95,173.9880000000001
1584.89,194.44590476190487
1586.83,179.09485714285722
1588.77,152.60242857142867
1590.7,143.1128095238096
1592.64,142.24618095238105
1594.58,170.17056190476202
1596.51,169.29159047619052
1598.44,105.11028333333314
