Raman Shift,Processed Intensity
331.095,106.90217952380907
333.909,32.70709142857139
336.721,24.65546142857157
339.531,48.87014952380957
342.339,41.568970476190486
345.145,52.7320923809524
347.949,19.8405580952381
350.751,18.566634285714294
353.55,-15.32129047619047
356.348,-12.530071428571429
359.144,7.853319047619095
361.937,43.74284285714289
364.729,83.57750952380961
367.518,117.0829095238096
370.306,145.3666666666668
373.091,201.39451428571448
375.874,328.7527523809526
378.656,376.98061904761926
381.435,382.1903952380954
384.212,267.8764833333334
386.988,122.29621904761909
389.761,30.85089761904766
392.532,0.08622571428572101
395.301,-18.832183809523794
398.068,12.834289523809534
400.833,9.635267142857138
403.596,0.026322857142864198
406.358,1.1310519047618808
409.117,-28.496952380952408
411.874,-52.20752333333334
414.629,-23.92055142857141
417.382,11.7312471428572
420.133,68.92592000000008
422.882,125.4616957142858
425.629,165.23341714285726
428.374,216.89893333333353
431.117,285.9270000000002
433.858,329.88238095238114
436.597,308.09285714285727
439.334,252.60157142857156
442.069,173.88090476190487
444.802,112.11895238095246
447.533,133.885142857143
450.262,181.65457142857161
452.989,221.6649047619049
455.714,260.01190476190493
458.438,263.3630666666668
461.159,192.48247142857153
463.878,147.27699047619055
466.595,116.41638571428578
469.31,105.95189523809532
472.024,114.83978571428578
474.735,121.03683333333339
477.444,122.73877142857151
480.152,120.28385238095245
482.857,135.8207238095239
485.561,151.73676666666677
488.262,158.03821904761915
490.962,152.8745238095239
493.659,170.91946666666672
496.355,148.37035238095243
499.048,99.47291428571432
501.74,80.80635238095245
504.43,94.99723809523819
507.118,115.62490476190487
509.804,162.64978095238106
512.488,183.3180761904763
515.17,176.54247619047632
517.85,175.18833333333347
520.528,195.73982857142866
523.204,162.34825714285722
525.878,162.87880000000013
528.551,151.196980952381
531.221,139.35809047619054
533.89,96.41765238095243
536.556,83.43119047619051
539.221,34.78735714285719
541.883,79.49377142857153
544.544,113.84376666666674
547.203,141.17768095238102
549.86,136.97883809523816
552.515,137.58746666666673
555.168,118.43918095238104
557.819,136.6356571428572
560.469,138.51652380952387
563.116,142.8495714285715
565.761,143.83109523809532
568.405,173.656761904762
571.047,167.33221428571434
573.687,141.43376190476198
576.324,130.15673809523815
578.96,115.41028571428579
581.594,105.29369047619056
584.227,126.00104761904768
586.857,122.34538095238103
589.485,137.75890476190486
592.112,152.196580952381
594.737,143.18493809523815
597.359,124.77354285714293
599.98,113.05989047619053
602.599,100.426180952381
605.216,105.1596571428572
607.831,87.5467666666667
610.445,83.01666190476196
613.056,91.33149047619054
615.666,87.06310476190481
618.274,104.16320476190482
620.88,95.10746190476195
623.484,88.085361904762
626.086,127.2382904761906
628.686,157.51720952380964
631.284,193.53926666666678
633.881,239.06402857142868
636.476,237.8036666666668
639.068,232.80261904761917
641.659,208.7722857142858
644.249,182.2810380952382
646.836,162.56311904761913
649.421,132.47195238095247
652.005,107.67037142857149
654.587,94.39185714285719
657.166,65.2987952380953
659.745,79.67254285714291
662.321,71.7937047619048
664.895,81.0382571428572
667.468,65.92493809523813
670.038,90.30567619047625
672.607,90.22266190476195
675.174,94.7658428571429
677.739,75.50095238095241
680.303,86.75579523809529
682.864,83.66756190476197
685.424,88.61156190476193
687.982,71.82017333333336
690.538,39.90681142857143
693.092,11.056318095238115
695.645,-5.7367733333333275
698.195,5.8076609523809655
700.744,25.446140000000028
703.291,35.88763761904763
705.836,39.984066666666685
708.38,36.68277857142858
710.921,32.50242857142862
713.461,37.15263571428575
715.999,62.914452380952426
718.535,68.97361428571433
721.069,91.80184761904768
723.602,107.15685714285722
726.133,135.8435952380953
728.662,116.38194285714289
731.189,94.0059190476191
733.714,77.37815714285719
736.238,52.7330047619048
738.759,64.54321428571436
741.279,96.1860190476191
743.798,111.51515714285722
746.314,114.76539523809528
748.829,75.74315238095237
751.342,41.873947619047655
753.853,37.91695238095243
756.362,55.964652380952444
758.869,89.72870952380957
761.375,91.77820000000003
763.879,66.20596666666673
766.381,83.62908571428576
768.882,100.14070952380959
771.38,118.35835238095247
773.877,132.13727619047623
776.372,109.57120000000006
778.866,87.61094761904766
781.357,64.54113809523814
783.847,57.26523333333339
786.335,82.73490000000007
788.821,116.80615714285722
791.306,137.76412857142864
793.789,143.46545714285722
796.27,132.67123809523818
798.749,136.90509523809536
801.227,182.6904761904763
803.702,207.97957142857155
806.176,213.77242857142866
808.649,202.83142857142866
811.119,199.013142857143
813.588,211.17557142857157
816.055,225.79519047619058
818.521,231.2532380952382
820.984,208.50285714285724
823.446,169.44947619047628
825.906,154.52200000000008
828.365,137.62685714285723
830.821,118.76480952380962
833.276,144.31771428571437
835.729,157.7631238095239
838.181,139.3876476190477
840.631,153.2402095238096
843.079,138.94163809523815
845.525,106.1122571428572
847.97,113.46771428571435
850.412,119.62905714285722
852.854,117.21689523809533
855.293,140.61366666666675
857.731,142.91675238095246
860.167,128.46114285714293
862.601,122.15353333333339
865.034,112.99630000000006
867.465,95.03893333333336
869.894,80.23581428571434
872.321,66.58933333333339
874.747,75.14903333333339
877.171,76.82220952380959
879.594,105.51570476190484
882.014,98.42252380952387
884.433,106.87859047619055
886.851,105.60036190476197
889.266,131.0190476190477
891.68,141.4705142857144
894.092,153.71889523809529
896.503,145.909761904762
898.912,160.52223809523818
901.319,154.60604761904767
903.724,165.78331428571437
906.128,142.00902857142862
908.53,125.80976190476198
910.931,102.94998571428577
913.329,129.38484761904772
915.726,144.02163333333343
918.122,154.52986666666675
920.516,142.96020476190483
922.908,139.12508571428577
925.298,113.21727619047626
927.687,117.66819047619053
930.074,93.67115714285718
932.459,83.8954571428572
934.843,78.29658571428575
937.225,67.54389047619051
939.605,61.306504761904804
941.984,61.77785714285717
944.361,54.91299714285718
946.736,44.52411619047621
949.11,54.137694285714325
951.482,70.04215523809529
953.853,73.33538952380958
956.222,69.97234000000005
958.589,86.00338761904766
960.954,72.90709047619053
963.318,78.87638095238101
965.68,103.19962380952387
968.041,90.11722857142861
970.4,68.44112380952386
972.757,48.26908095238096
975.113,21.317508095238097
977.467,-1.9350776190476118
979.819,-1.8673147619047565
982.17,-1.9533699999999756
984.519,22.808909047619075
986.866,46.46904142857148
989.212,84.88609142857149
991.556,106.06197142857148
993.899,123.3316714285715
996.24,132.2683047619048
998.579,117.11144761904768
1000.92,113.33866666666674
1003.25,112.14162380952386
1005.59,91.47390952380957
1007.92,66.95554761904765
1010.25,55.92084761904765
1012.58,47.84666190476196
1014.91,82.87667619047626
1017.24,110.20172380952387
1019.56,125.39361428571436
1021.88,119.45240952380959
1024.2,98.80694285714291
1026.52,81.21894285714293
1028.84,115.92666666666676
1031.16,146.50086666666678
1033.48,175.03664761904773
1035.79,192.39050476190485
1038.1,197.32352380952395
1040.41,205.1206666666668
1042.72,229.9719047619049
1045.03,234.97104761904774
1047.33,221.78404761904773
1049.64,196.17204761904776
1051.94,171.18066666666675
1054.24,157.9519523809525
1056.54,161.5794761904763
1058.84,163.1092380952382
1061.13,182.7777142857144
1063.43,198.96471428571442
1065.72,225.28704761904777
1068.01,221.17190476190487
1070.3,209.47433333333342
1072.59,160.8590476190477
1074.87,156.1811904761906
1077.16,157.77204761904778
1079.44,212.20104761904778
1081.72,259.46580952380975
1084.0,316.8027142857145
1086.28,383.01861904761944
1088.56,529.2543333333338
1090.84,642.031047619048
1093.11,723.9657619047623
1095.38,739.4846666666671
1097.65,672.3472380952384
1099.92,578.6936190476192
1102.19,491.2360952380955
1104.46,425.1623333333336
1106.72,417.8986190476193
1108.98,419.871285714286
1111.24,452.0773333333336
1113.5,497.5142380952384
1115.76,511.7513333333336
1118.02,536.6903809523812
1120.28,535.9007619047621
1122.53,495.42757142857175
1124.78,471.315904761905
1127.03,425.08700000000016
1129.28,353.59566666666683
1131.53,281.12514285714303
1133.77,222.53023809523822
1136.02,198.80861904761917
1138.26,208.00561904761918
1140.5,219.59485714285728
1142.74,248.8599047619049
1144.98,264.5607142857144
1147.22,301.0758095238097
1149.45,313.1176190476192
1151.69,304.4459047619049
1153.92,262.8679523809525
1156.15,228.19128571428584
1158.38,202.41404761904772
1160.61,184.3439523809525
1162.83,162.5033904761906
1165.06,133.1287476190477
1167.28,114.78963809523816
1169.5,110.91325238095247
1171.72,127.49768571428578
1173.94,132.30365238095246
1176.16,137.09212380952388
1178.37,119.90926666666672
1180.58,100.80150476190481
1182.8,81.1491047619048
1185.01,51.47454523809525
1187.22,18.586838095238104
1189.42,10.961569047619065
1191.63,12.026585714285725
1193.84,5.733830952380972
1196.04,30.559171428571453
1198.24,23.45470000000001
1200.44,30.706147619047663
1202.64,62.884885714285765
1204.84,77.75289523809529
1207.03,72.07234285714289
1209.23,74.93888095238097
1211.42,28.68636857142858
1213.61,3.7441971428571517
1215.8,4.113058095238101
1217.99,-2.3013714285714233
1220.18,7.2638790476190795
1222.36,41.61949523809527
1224.55,61.290610476190515
1226.73,58.56431619047622
1228.91,54.58496380952383
1231.09,36.40172380952383
1233.27,37.397233333333375
1235.44,58.62082857142862
1237.62,76.93148095238101
1239.79,75.85484285714291
1241.96,90.72624761904768
1244.13,92.5000428571429
1246.3,98.98775238095244
1248.47,116.28675238095245
1250.64,120.87548571428577
1252.8,118.85136666666676
1254.96,151.35967619047628
1257.13,157.73614285714294
1259.29,164.12571428571442
1261.44,185.81676190476202
1263.6,192.76414285714299
1265.76,187.54161904761918
1267.91,197.77090476190486
1270.06,188.0734857142858
1272.22,162.45198571428583
1274.37,140.33778095238102
1276.51,120.11444285714292
1278.66,102.68969523809531
1280.81,96.58992380952388
1282.95,104.57955238095245
1285.09,101.37587142857149
1287.23,111.26706666666674
1289.37,125.63712857142866
1291.51,135.4412761904763
1293.65,127.01554761904768
1295.78,95.21983809523815
1297.92,78.43822380952386
1300.05,81.8160428571429
1302.18,88.97540000000005
1304.31,79.72833809523812
1306.44,71.26843333333338
1308.57,66.12206190476198
1310.69,90.05432857142866
1312.82,140.11509523809536
1314.94,184.6408285714287
1317.06,184.20538095238106
1319.18,186.85928571428585
1321.3,198.7004761904763
1323.41,203.97000000000014
1325.53,236.43176190476206
1327.64,265.18423809523824
1329.75,278.4200952380954
1331.87,309.4750476190478
1333.98,319.49480952380975
1336.08,313.9581904761906
1338.19,312.3910000000001
1340.3,291.0816666666668
1342.4,243.1752380952382
1344.5,202.00695238095247
1346.6,157.769961904762
1348.7,121.94252380952388
1350.8,111.33620000000008
1352.9,107.71492380952388
1354.99,100.12850476190482
1357.09,104.05480000000007
1359.18,121.01971428571436
1361.27,123.6914190476191
1363.36,130.21447619047626
1365.45,136.63838095238106
1367.54,145.96485714285726
1369.62,164.86185714285725
1371.7,186.33076190476203
1373.79,189.18209523809537
1375.87,216.98857142857156
1377.95,245.8943333333335
1380.03,267.66257142857154
1382.1,262.3893714285715
1384.18,217.02801428571436
1386.25,160.1028000000001
1388.33,117.42411428571435
1390.4,101.51599047619054
1392.47,97.52213809523815
1394.54,85.49032380952384
1396.6,81.56365714285721
1398.67,83.55174761904767
1400.74,96.50215714285721
1402.8,102.03376190476195
1404.86,99.28932857142861
1406.92,76.64939523809528
1408.98,77.11341809523813
1411.04,51.20463952380956
1413.09,44.39832190476193
1415.15,45.408022380952424
1417.2,48.565988571428605
1419.25,60.8234252380953
1421.3,84.89332761904765
1423.35,87.29807142857148
1425.4,88.32178571428575
1427.45,71.6770523809524
1429.49,69.98091428571433
1431.54,64.89816190476193
1433.58,57.42667142857147
1435.62,57.61176190476194
1437.66,65.40342095238097
1439.7,40.846680476190514
1441.74,41.93868000000001
1443.77,36.34340047619051
1445.81,49.86739428571433
1447.84,64.41235666666671
1449.87,66.54649238095242
1451.9,65.45712857142861
1453.93,70.23584761904768
1455.96,89.87942857142863
1457.98,119.09823809523817
1460.01,142.26987619047628
1462.03,152.53342857142866
1464.05,183.028142857143
1466.07,220.2261904761906
1468.09,245.36195238095257
1470.11,275.6218571428573
1472.13,283.33561904761916
1474.14,254.78504761904776
1476.16,243.77600000000015
1478.17,236.68538095238114
1480.18,244.88994285714298
1482.19,235.5765857142858
1484.2,199.07473809523816
1486.21,123.95219523809529
1488.21,94.68142380952388
1490.22,96.97309047619055
1492.22,110.34728095238101
1494.22,95.51492857142861
1496.22,74.9011761904762
1498.22,24.45505238095239
1500.22,6.173114285714303
1502.22,8.814385714285724
1504.21,6.70913809523811
1506.21,20.99735714285716
1508.2,26.247735714285724
1510.19,23.17193809523812
1512.18,36.81507380952384
1514.17,49.650980952380976
1516.16,49.82026904761907
1518.14,52.4160285714286
1520.13,52.436285714285745
1522.11,50.7839285714286
1524.09,60.552461904761934
1526.07,43.740257142857146
1528.05,37.82206190476193
1530.03,28.225076190476212
1532.01,42.85287952380956
1533.98,31.180642619047635
1535.96,53.9215566666667
1537.93,43.884555000000034
1539.9,55.87849000000003
1541.87,50.47425690476193
1543.84,44.57620809523811
1545.81,23.27933333333337
1547.78,51.77373809523815
1549.74,78.48828095238103
1551.7,104.32749047619053
1553.67,119.91074761904768
1555.63,127.23817142857149
1557.59,123.45323809523818
1559.55,135.08009523809534
1561.5,140.5955714285715
1563.46,150.33361904761915
1565.41,149.05709523809534
1567.37,149.3855714285715
1569.32,142.65352380952388
1571.27,136.3380476190477
1573.22,141.34514285714295
1575.17,144.34264285714292
1577.11,134.85561904761911
1579.06,133.3135952380953
1581.0,126.67038095238102
1582.95,127.02283333333342
1584.89,140.5628571428572
1586.83,156.5776857142858
1588.77,150.40240000000009
1590.7,135.18131428571434
1592.64,105.72573333333338
1594.58,80.29926666666682
1596.51,79.47483809523843
1598.44,120.4206809523816
