Raman Shift,Processed Intensity
331.095,58.24764190476192
333.909,62.64103238095248
336.721,52.70481238095247
339.531,37.7305885714286
342.339,29.533567619047645
345.145,45.00069333333337
347.949,44.18625619047619
350.751,23.90715142857142
353.55,-1.4476333333333287
356.348,-8.774076190476174
359.144,17.794652380952428
361.937,51.50693333333336
364.729,53.231176190476226
367.518,62.17002380952388
370.306,115.52693809523822
373.091,219.36382380952404
375.874,358.50531904761925
378.656,436.729123809524
381.435,386.62372761904777
384.212,243.15965619047623
386.988,114.26087428571434
389.761,17.186210476190496
392.532,-19.6617914285714
395.301,-7.35557857142858
398.068,-26.537722857142874
400.833,-28.087517619047595
403.596,18.402738095238114
406.358,32.437365714285725
409.117,40.76006857142857
411.874,15.734909047619016
414.629,-24.748946666666676
417.382,-27.56289476190475
420.133,-12.815168571428554
422.882,12.149138095238136
425.629,66.46235714285721
428.374,118.35321428571439
431.117,191.90872380952393
433.858,248.02664761904774
436.597,263.17700000000013
439.334,241.25923809523823
442.069,199.4120000000001
444.802,153.10814285714295
447.533,155.24995238095252
450.262,189.59776190476205
452.989,222.76985714285726
455.714,267.52785714285733
458.438,266.63396190476203
461.159,216.9943000000001
463.878,150.75347619047622
466.595,104.1521190476191
469.31,66.85980000000006
472.024,91.59409047619057
474.735,126.02556190476199
477.444,147.25400000000008
480.152,128.522280952381
482.857,115.97880000000008
485.561,113.48581428571435
488.262,119.81098095238103
490.962,126.72275238095246
493.659,125.75133333333339
496.355,100.52250952380956
499.048,77.18626190476195
501.74,65.79713333333336
504.43,53.07661904761909
507.118,54.41336666666673
509.804,95.0528000000001
512.488,147.38375714285726
515.17,211.36623333333347
517.85,241.24617142857156
520.528,231.55509523809533
523.204,186.34838095238104
525.878,142.20507619047623
528.551,100.08552380952389
531.221,95.1877571428572
533.89,79.13855238095242
536.556,67.2310428571429
539.221,51.52014761904765
541.883,48.63218571428575
544.544,49.33610000000004
547.203,76.1626428571429
549.86,67.83284761904766
552.515,57.353228571428616
555.168,66.68236666666672
557.819,88.06463809523817
560.469,121.36280476190487
563.116,168.9160714285715
565.761,160.3964190476191
568.405,175.9517142857144
571.047,181.919761904762
573.687,165.21014285714296
576.324,178.77905714285725
578.96,163.9640095238096
581.594,142.05433333333343
584.227,131.33897142857148
586.857,120.67812380952388
589.485,114.36021904761914
592.112,140.62541904761912
594.737,131.61874285714293
597.359,120.6276428571429
599.98,100.17746666666673
602.599,104.84068095238102
605.216,95.95131904761911
607.831,111.89084285714293
610.445,120.80226190476196
613.056,118.49506666666674
615.666,121.87360952380959
618.274,122.55583809523814
620.88,89.54099523809529
623.484,106.58983809523819
626.086,116.41481428571439
628.686,162.1096380952382
631.284,213.71960000000016
633.881,229.2422190476192
636.476,223.53223809523823
639.068,221.06295238095248
641.659,186.8786666666668
644.249,165.16695238095247
646.836,159.59090476190482
649.421,123.05148571428577
652.005,97.782980952381
654.587,81.54316190476196
657.166,81.42301428571433
659.745,70.37085238095243
662.321,78.76326190476195
664.895,72.78615714285716
667.468,53.57782380952384
670.038,48.94320000000004
672.607,61.97290476190479
675.174,53.51937142857147
677.739,73.29240952380958
680.303,85.1443666666667
682.864,90.16585238095243
685.424,58.30471904761904
687.982,41.98512123809525
690.538,11.869332428571436
693.092,-3.7133351428571304
695.645,7.423351857142887
698.195,37.275481809523825
700.744,24.79164033333336
703.291,32.82534180952382
705.836,35.32543114285715
708.38,23.526639619047643
710.921,25.187579333333353
713.461,33.305107428571446
715.999,26.39998095238097
718.535,28.707323809523846
721.069,50.843471428571476
723.602,70.61506190476194
726.133,88.01954761904767
728.662,108.24467619047624
731.189,93.52601904761909
733.714,72.33731428571433
736.238,75.86677142857147
738.759,68.77866666666671
741.279,64.02330952380956
743.798,58.88407142857144
746.314,45.692148571428596
748.829,25.63593190476193
751.342,31.951449523809544
753.853,29.160520476190495
756.362,49.40411142857147
758.869,54.15645571428575
761.375,62.32042952380955
763.879,41.513276190476205
766.381,37.304638095238126
768.882,35.50230952380957
771.38,73.62838095238101
773.877,95.34789523809529
776.372,105.70691428571433
778.866,82.56101904761907
781.357,55.67060476190479
783.847,41.79611904761909
786.335,45.74559047619052
788.821,58.37491428571434
791.306,81.01600000000005
793.789,102.14397142857149
796.27,98.51948095238102
798.749,109.76017619047627
801.227,144.2462380952382
803.702,185.21467619047633
806.176,204.6166476190477
808.649,212.7849333333334
811.119,199.48038095238107
813.588,165.36866666666677
816.055,159.16366666666676
818.521,166.95952380952392
820.984,164.46992380952392
823.446,144.7897095238096
825.906,131.82318095238102
828.365,105.23638571428576
830.821,86.93408571428579
833.276,100.05832857142866
835.729,139.56140000000008
838.181,135.1098333333334
840.631,135.46545714285725
843.079,115.53270476190481
845.525,72.88334761904767
847.97,55.18380952380958
850.412,59.815195238095285
852.854,73.68270952380959
855.293,93.35790000000004
857.731,77.84107142857145
860.167,70.18027619047623
862.601,45.94744285714289
865.034,72.04785428571437
867.465,93.86327761904765
869.894,74.63236285714288
872.321,47.26068047619051
874.747,55.84433047619052
877.171,61.67008428571437
879.594,108.35779904761911
882.014,111.95621619047624
884.433,105.70456190476196
886.851,99.74697619047626
889.266,113.27519047619057
891.68,133.57649047619054
894.092,144.08067619047628
896.503,149.55114285714296
898.912,163.13242857142868
901.319,151.0642857142858
903.724,158.91971428571438
906.128,150.0338095238096
908.53,150.4082857142858
910.931,147.14023809523817
913.329,150.37461904761912
915.726,145.49438095238105
918.122,147.45390476190482
920.516,129.15985714285722
922.908,133.90009523809533
925.298,129.53400000000008
927.687,127.06402380952389
930.074,120.73047619047625
932.459,120.05953809523817
934.843,105.14875238095244
937.225,106.23862380952387
939.605,106.80782857142863
941.984,94.14458571428577
944.361,89.96567619047626
946.736,100.13077619047623
949.11,82.11878095238099
951.482,64.55142380952384
953.853,61.240742857142905
956.222,61.761171428571494
958.589,88.2106095238096
960.954,114.25860000000006
963.318,111.4792571428572
965.68,116.44703809523816
968.041,117.21206380952385
970.4,96.06327523809527
972.757,70.62240571428573
975.113,29.03548761904762
977.467,-5.408912380952368
979.819,-15.231403809523808
982.17,-2.2386723809523623
984.519,23.048563809523834
986.866,36.82380476190478
989.212,48.94729523809527
991.556,64.75545238095242
993.899,57.67991428571433
996.24,78.91408571428578
998.579,100.84206190476196
1000.92,85.9905904761905
1003.25,76.45790476190481
1005.59,68.58020952380956
1007.92,47.88410952380956
1010.25,37.896019047619085
1012.58,71.2855571428572
1014.91,71.00745238095242
1017.24,76.49272857142863
1019.56,97.22007142857149
1021.88,104.38220000000004
1024.2,95.50470000000008
1026.52,133.923380952381
1028.84,106.30643809523815
1031.16,110.41757142857153
1033.48,127.63957142857151
1035.79,135.3548571428572
1038.1,156.65957142857155
1040.41,173.65066666666672
1042.72,146.66242857142868
1045.03,157.07685714285725
1047.33,170.08541904761915
1049.64,158.73664761904772
1051.94,145.36435238095243
1054.24,128.35022857142863
1056.54,87.64696666666671
1058.84,89.39778095238103
1061.13,119.41253809523816
1063.43,116.4055476190477
1065.72,118.71023333333342
1068.01,133.51715714285723
1070.3,133.73059047619057
1072.59,155.01708095238104
1074.87,173.32881904761913
1077.16,184.90323809523824
1079.44,209.69257142857157
1081.72,229.6486190476192
1084.0,273.5319523809526
1086.28,338.38961904761936
1088.56,429.1255238095241
1090.84,580.0717619047623
1093.11,682.6562380952385
1095.38,674.1632857142861
1097.65,627.734285714286
1099.92,503.41590476190504
1102.19,408.3970952380955
1104.46,371.58100000000024
1106.72,358.4900952380955
1108.98,345.2653809523812
1111.24,390.2383809523812
1113.5,409.3122380952384
1115.76,448.53261904761933
1118.02,506.61176190476226
1120.28,509.40509523809556
1122.53,470.29133333333357
1124.78,432.9825238095241
1127.03,373.19080952380966
1129.28,302.96152380952395
1131.53,255.67304761904774
1133.77,204.085142857143
1136.02,174.3379523809525
1138.26,161.42909523809536
1140.5,170.87985714285725
1142.74,207.64000000000013
1144.98,201.80228571428583
1147.22,228.36357142857153
1149.45,233.70209523809532
1151.69,224.81495238095252
1153.92,210.27080952380965
1156.15,218.7808190476191
1158.38,165.62798571428578
1160.61,130.5706857142858
1162.83,105.98730000000006
1165.06,101.20776190476195
1167.28,95.08616666666671
1169.5,94.28581428571431
1171.72,79.70839047619053
1173.94,77.44565714285721
1176.16,94.44690952380958
1178.37,80.80381428571432
1180.58,85.65596666666671
1182.8,83.57128095238099
1185.01,75.02261428571431
1187.22,70.76828571428575
1189.42,61.66196666666668
1191.63,39.319219047619086
1193.84,39.40327619047622
1196.04,46.196304761904784
1198.24,43.02820000000003
1200.44,45.6099285714286
1202.64,56.27155714285719
1204.84,76.5813428571429
1207.03,52.53624285714286
1209.23,36.085774285714294
1211.42,5.227209999999996
1213.61,-2.8038657142856813
1215.8,18.228375714285747
1217.99,58.70273904761908
1220.18,63.3316528571429
1222.36,88.49434571428576
1224.55,86.57034761904765
1226.73,75.51073333333336
1228.91,65.69538571428576
1231.09,76.59958571428577
1233.27,61.603566666666715
1235.44,77.18304285714294
1237.62,100.6234952380953
1239.79,120.44841904761914
1241.96,140.8006476190477
1244.13,180.10874285714297
1246.3,180.51614285714297
1248.47,170.83290476190484
1250.64,160.82176190476198
1252.8,169.57838095238105
1254.96,171.58004761904778
1257.13,213.2086190476192
1259.29,231.84661904761919
1261.44,248.0665714285716
1263.6,233.6320952380954
1265.76,233.1636666666668
1267.91,213.04419047619064
1270.06,209.84680952380967
1272.22,177.62133333333344
1274.37,188.5599523809525
1276.51,176.1413809523811
1278.66,196.51076190476203
1280.81,199.00361904761917
1282.95,196.5750000000001
1285.09,183.89433333333344
1287.23,191.4400000000001
1289.37,166.167761904762
1291.51,178.36585714285724
1293.65,166.8465238095239
1295.78,147.9940476190477
1297.92,159.76390476190485
1300.05,169.0638095238096
1302.18,156.46857142857152
1304.31,157.17195238095246
1306.44,162.60561904761914
1308.57,183.72533333333345
1310.69,211.15352380952393
1312.82,236.22704761904777
1314.94,237.09214285714296
1317.06,229.7524285714287
1319.18,236.49700000000018
1321.3,272.66290476190494
1323.41,282.6344761904764
1325.53,320.510904761905
1327.64,349.0100000000002
1329.75,373.0877142857145
1331.87,367.3188571428574
1333.98,375.70742857142875
1336.08,353.6376666666669
1338.19,354.68471428571445
1340.3,326.1854761904764
1342.4,286.5248095238096
1344.5,235.99157142857155
1346.6,197.3042857142858
1348.7,175.98971428571443
1350.8,174.7656666666668
1352.9,153.73090476190484
1354.99,162.60338095238103
1357.09,164.7670476190477
1359.18,157.8447142857144
1361.27,172.36314285714298
1363.36,188.61128571428583
1365.45,207.2114285714287
1367.54,227.0714761904763
1369.62,226.28971428571438
1371.7,235.2023333333335
1373.79,246.05042857142874
1375.87,283.69414285714305
1377.95,310.61233333333354
1380.03,309.1883809523811
1382.1,295.18728571428585
1384.18,263.5157142857144
1386.25,221.2714761904763
1388.33,191.98071428571438
1390.4,168.55009523809537
1392.47,154.6486000000001
1394.54,126.84988571428576
1396.6,113.53641904761912
1398.67,97.90050476190481
1400.74,84.08637619047626
1402.8,83.33360000000005
1404.86,81.262780952381
1406.92,52.68456190476195
1408.98,85.50452380952387
1411.04,83.3904428571429
1413.09,98.72412857142862
1415.15,98.93464285714289
1417.2,83.97481904761909
1419.25,78.13050000000007
1421.3,108.78283809523816
1423.35,110.0271095238096
1425.4,119.81553809523814
1427.45,112.43333333333338
1429.49,72.26089523809529
1431.54,59.01158571428575
1433.58,42.35138571428573
1435.62,29.088523809523835
1437.66,33.269309523809554
1439.7,56.3208428571429
1441.74,69.00324285714291
1443.77,83.55268571428574
1445.81,82.20519523809527
1447.84,64.1013666666667
1449.87,57.0959428571429
1451.9,70.99594761904767
1453.93,85.37024285714291
1455.96,103.78709047619054
1457.98,107.57687619047626
1460.01,123.16522857142867
1462.03,159.9774761904763
1464.05,184.8674761904763
1466.07,211.40366666666682
1468.09,237.7726190476192
1470.11,250.63747619047638
1472.13,284.7564285714287
1474.14,282.1733333333335
1476.16,262.02747619047636
1478.17,245.88661904761918
1480.18,241.93728571428585
1482.19,225.604142857143
1484.2,207.59742857142865
1486.21,158.86567619047628
1488.21,127.97648095238102
1490.22,93.73533809523815
1492.22,76.85264761904764
1494.22,56.3721666666667
1496.22,45.861485714285756
1498.22,44.31675238095242
1500.22,60.40073333333336
1502.22,55.96686857142859
1504.21,35.96383761904763
1506.21,31.530841904761928
1508.2,39.807195714285754
1510.19,60.2655371428572
1512.18,67.7120223809524
1514.17,49.38144619047619
1516.16,14.365845714285717
1518.14,-4.337882380952355
1520.13,17.74352190476195
1522.11,57.17862047619051
1524.09,76.86952285714288
1526.07,75.05171428571431
1528.05,83.62770952380957
1530.03,80.97593809523813
1532.01,73.66560952380956
1533.98,73.55179047619052
1535.96,74.01344761904765
1537.93,51.09640952380957
1539.9,69.98940000000005
1541.87,74.78600952380957
1543.84,78.05628095238102
1545.81,79.37017142857148
1547.78,106.63098095238102
1549.74,110.02803333333343
1551.7,144.94119047619057
1553.67,157.17893333333345
1555.63,164.93102857142867
1557.59,165.3869523809525
1559.55,176.45052380952393
1561.5,181.26414285714299
1563.46,195.73219047619057
1565.41,182.09209523809537
1567.37,149.2485714285715
1569.32,143.6772857142858
1571.27,153.71138095238106
1573.22,180.35066666666677
1575.17,197.49990476190487
1577.11,176.34933333333342
1579.06,155.42314285714298
1581.0,154.53090476190488
1582.95,173.19700000000012
1584.89,180.94509523809532
1586.83,183.96642857142868
1588.77,167.16566666666677
1590.7,173.4961904761906
1592.64,172.43442857142867
1594.58,168.05269047619058
1596.51,162.89897619047636
1598.44,158.64045238095264
