Raman Shift,Processed Intensity
331.095,126.92010714638172
333.909,166.6218315355427
336.721,193.28194346794817
339.531,211.2337889662458
342.339,232.9297870507612
345.145,230.15572814308507
347.949,240.0069772315651
350.751,212.57896275108305
353.55,222.8243321295049
356.348,239.50534542936748
359.144,248.76531660861792
361.937,258.8429119242069
364.729,253.0721626213981
367.518,263.8348585754643
370.306,318.1796086000436
373.091,383.8694721840825
375.874,444.04863884781525
378.656,474.6233932130399
381.435,434.2621276924456
384.212,369.2048789884607
386.988,234.54905506828618
389.761,143.39230499607402
392.532,71.3563411460591
395.301,22.872666177595875
398.068,5.80163334352892
400.833,17.718173465240397
403.596,-8.326287616125228
406.358,-14.613339571646065
409.117,-44.23376300715108
411.874,-62.84942003239166
414.629,-64.78847968855916
417.382,-66.42636244342157
420.133,-60.233358306978516
422.882,-40.96510929298438
425.629,-35.32928977594747
428.374,-1.747531644393348
431.117,62.26359845230991
433.858,146.85447515295482
436.597,191.74714739243473
439.334,206.7591190287253
442.069,164.27951042225004
444.802,134.55474382476677
447.533,121.3551811492116
450.262,166.2608093585918
452.989,192.13740204535452
455.714,218.85077624884752
458.438,199.0762873680219
461.159,168.060705026508
463.878,108.52694608055526
466.595,101.43595048411589
469.31,97.9866523920141
472.024,119.37785602502754
474.735,139.66534963018967
477.444,148.5237813458607
480.152,133.62758268583866
482.857,111.69855869015919
485.561,104.2201447425582
488.262,120.19928243554386
490.962,203.45211615526114
493.659,234.9849383352448
496.355,232.70848006853885
499.048,187.24743981504116
501.74,179.46429782314317
504.43,185.17360674183874
507.118,276.9991393757041
509.804,330.7072269160549
512.488,375.54009717210056
515.17,448.1206413735222
517.85,512.6905143063968
520.528,557.5863296872058
523.204,632.2872841082785
525.878,650.6056381260869
528.551,625.4486259209743
531.221,621.7232220997507
533.89,613.3837656411401
536.556,648.6700600317049
539.221,683.6788067351085
541.883,716.6969434232719
544.544,718.249267921828
547.203,683.1936812031936
549.86,660.9116684748815
552.515,683.0702088392409
555.168,670.5265420960491
557.819,682.7567450689144
560.469,715.4271650745395
563.116,727.2991867253172
565.761,714.943522541445
568.405,703.3116464201926
571.047,672.4024652003968
573.687,652.0718473698289
576.324,643.7945327249304
578.96,608.0450896496013
581.594,552.5836342987418
584.227,513.8844069246525
586.857,484.5167291558141
589.485,508.0973898470993
592.112,515.6239833109375
594.737,514.6653904056279
597.359,574.2189262903153
599.98,623.0436786561618
602.599,650.2795602432348
605.216,702.0187423097773
607.831,762.6866119110032
610.445,797.8036815588421
613.056,875.5570226912137
615.666,913.276461046049
618.274,915.7202958448547
620.88,961.1705427857823
623.484,1013.8138913224216
626.086,1028.6464714664085
628.686,1066.854811066219
631.284,1130.2920311812159
633.881,1195.7635652652102
636.476,1229.217640254782
639.068,1216.8881386099965
641.659,1170.6755555931973
644.249,1061.242242262094
646.836,926.7743151295185
649.421,795.2673753469844
652.005,617.1455612215905
654.587,463.9282197805351
657.166,350.08705452611366
659.745,251.28422557166004
662.321,189.18187834892115
664.895,173.6802437439933
667.468,176.6319287094575
670.038,131.41334973365883
672.607,68.35330916712837
675.174,6.590142977574487
677.739,0.595535171550182
680.303,8.555475073259004
682.864,14.13216768538814
685.424,7.606896494438843
687.982,16.59431574892551
690.538,13.042458497743155
693.092,43.8994120917655
695.645,49.6371382569846
698.195,43.156246896726316
700.744,19.405055608151088
703.291,15.570077770180433
705.836,-16.5430131780995
708.38,-35.50936987400655
710.921,-34.85638415986068
713.461,-35.30176861222253
715.999,-28.7535466235654
718.535,-3.595760477656313
721.069,27.835340637135232
723.602,57.10844292528054
726.133,70.60192896245098
728.662,43.027686292932685
731.189,18.52634459845831
733.714,-8.52320141866494
736.238,-5.741888200059748
738.759,5.487610980411773
741.279,23.116122321957846
743.798,27.52320722315153
746.314,18.27906467489629
748.829,7.001671748624631
751.342,-0.35750448692397185
753.853,-10.180176001314521
756.362,12.056859066743982
758.869,27.829333088072417
761.375,49.089315074463684
763.879,57.836635857739566
766.381,67.54745612594843
768.882,37.888548745282606
771.38,34.05062870103302
773.877,18.510254467121285
776.372,34.12506270895801
778.866,54.70519346249557
781.357,65.15614388470294
783.847,66.43114581356349
786.335,65.43592428045986
788.821,47.076313165406646
791.306,84.30587085228308
793.789,122.41159112216292
796.27,163.53770928473432
798.749,217.20950830972697
801.227,280.42855352976176
803.702,333.9107844860582
806.176,372.038892488431
808.649,382.9575553181339
811.119,372.52581478785805
813.588,362.9837400160027
816.055,364.7619478438164
818.521,343.767313728722
820.984,312.28773025669125
823.446,256.65877041652357
825.906,198.358922302687
828.365,186.43815715149412
830.821,164.6131640439312
833.276,167.60067984657462
835.729,177.73653343822616
838.181,134.3089756508366
840.631,121.32058063900195
843.079,109.63109963041825
845.525,89.57650515251908
847.97,98.96898764007256
850.412,90.23980918563666
852.854,63.91549062333661
855.293,56.80828432693443
857.731,48.44474224599253
860.167,50.35142679917817
862.601,51.10252652947929
865.034,51.081757473701145
867.465,65.14902643672531
869.894,78.59280855148108
872.321,71.13014388653619
874.747,61.906634053689686
877.171,38.11548643461174
879.594,25.37846316938203
882.014,21.412544430741946
884.433,41.98230598405917
886.851,32.66182055681611
889.266,56.21560897893323
891.68,62.64625798975703
894.092,89.14679994981361
896.503,99.05309255255361
898.912,124.27238901228975
901.319,130.61667015690182
903.724,147.37407175862973
906.128,123.73745472202108
908.53,122.2805943194885
910.931,125.38675037925941
913.329,125.62961842569848
915.726,108.96380462916295
918.122,105.20101504156264
920.516,78.53386387955607
922.908,97.1549199029746
925.298,130.20908612658468
927.687,157.93645572232754
930.074,157.48183458822314
932.459,144.8471210601333
934.843,140.84368562352302
937.225,147.6161791966499
939.605,149.4044366518599
941.984,146.87680890829893
944.361,122.46349502463386
946.736,88.97558857748663
949.11,88.22412403986596
951.482,75.73436125484432
953.853,77.0791175282784
956.222,72.9263854358187
958.589,63.9440934870579
960.954,79.03820012302049
963.318,79.11459723745475
965.68,88.84101369812583
968.041,106.7898712490603
970.4,89.05733088898774
972.757,86.83472020215322
975.113,93.7894844986672
977.467,68.11280462151058
979.819,50.66245284878846
982.17,26.6770773674084
984.519,-27.890465634193788
986.866,-14.277875111416051
989.212,-17.9610227649016
991.556,-2.463478388374824
993.899,39.35777280245816
996.24,71.1218490354604
998.579,80.87634773423474
1000.92,109.19257841315334
1003.25,81.78460509619345
1005.59,32.60447921196874
1007.92,27.12794867923276
1010.25,13.449690801908218
1012.58,-4.192880146166999
1014.91,19.485149774251795
1017.24,55.816196332593336
1019.56,47.989702665964614
1021.88,81.6711906032217
1024.2,90.1451215128518
1026.52,85.88632857943117
1028.84,84.560020508648
1031.16,83.35511856565859
1033.48,67.84140313726675
1035.79,103.20761267504054
1038.1,126.21382835272948
1040.41,139.71528729509623
1042.72,155.9004815210476
1045.03,155.4340187915193
1047.33,115.69472155260223
1049.64,132.4899163548523
1051.94,131.10305660594622
1054.24,132.4842024661807
1056.54,175.58335788684212
1058.84,173.87428383904125
1061.13,136.4973591615983
1063.43,140.497679504168
1065.72,154.72982293703058
1068.01,144.85785365612242
1070.3,150.0696114023524
1072.59,132.9814770713972
1074.87,143.8764716568246
1077.16,163.1804504313186
1079.44,187.89067808028267
1081.72,193.81392764496968
1084.0,226.61410327513227
1086.28,265.57414869596323
1088.56,341.1198604369258
1090.84,442.43893915582566
1093.11,521.5286123914543
1095.38,562.0527811257516
1097.65,544.1991663459719
1099.92,447.67931274970147
1102.19,355.4428781641632
1104.46,284.6776372512304
1106.72,245.52377092673146
1108.98,261.5976795892775
1111.24,298.8015106348091
1113.5,372.84697168542175
1115.76,422.30295334201355
1118.02,447.26219955597253
1120.28,442.2460732389666
1122.53,436.87122663463515
1124.78,419.0400812140929
1127.03,434.36940280953195
1129.28,428.4760196049647
1131.53,405.02444488887227
1133.77,369.5840236163772
1136.02,328.1527456380809
1138.26,281.44296369080894
1140.5,274.9290161502556
1142.74,299.60913549792144
1144.98,308.33878535946815
1147.22,339.8306642097491
1149.45,347.36899479212434
1151.69,312.6666706806275
1153.92,282.72240284213467
1156.15,235.63024715091296
1158.38,230.67484618888307
1160.61,254.5695281887406
1162.83,254.59916788184546
1165.06,247.33447591753202
1167.28,221.8700978062268
1169.5,154.7293795292469
1171.72,152.57865695810438
1173.94,133.51297384525333
1176.16,93.81799029101444
1178.37,79.82712930575303
1180.58,49.25491384824318
1182.8,15.958875292608582
1185.01,14.653842847643773
1187.22,8.245280595177292
1189.42,-6.36118499537065
1191.63,-0.7359518381535963
1193.84,-28.115913886497765
1196.04,-15.642552487175635
1198.24,5.257115047554635
1200.44,7.108631535360928
1202.64,-2.46704369660506
1204.84,-20.8487731377179
1207.03,-51.9390501293401
1209.23,-36.35447481938286
1211.42,-7.187660867323075
1213.61,8.087995084047407
1215.8,24.23734958856926
1217.99,21.26350021582016
1220.18,26.264917048762754
1222.36,17.86400275281676
1224.55,33.683273824565276
1226.73,48.297732316656266
1228.91,53.18723936405854
1231.09,33.4984125198514
1233.27,21.854142138624184
1235.44,10.25834585511734
1237.62,45.71500877715175
1239.79,83.37103540701946
1241.96,105.84957880265006
1244.13,117.34527450068617
1246.3,167.24328396335818
1248.47,251.07167135869986
1250.64,352.6918755788513
1252.8,483.67965844884225
1254.96,590.0393862687072
1257.13,700.8706923079778
1259.29,804.7018059668444
1261.44,889.4419295563603
1263.6,926.8098055548417
1265.76,924.1908552928378
1267.91,901.4466985904808
1270.06,846.2484829186478
1272.22,780.9340220839251
1274.37,699.7935063421405
1276.51,621.4980696547595
1278.66,536.6235950405121
1280.81,494.65071040321436
1282.95,423.7266891214863
1285.09,391.80830301943
1287.23,359.6618181944373
1289.37,354.720133702157
1291.51,373.9399202414486
1293.65,381.4206636012482
1295.78,375.1189462026723
1297.92,370.18177626016654
1300.05,355.9942026569463
1302.18,332.3697869632924
1304.31,306.83631355008083
1306.44,292.3976901785095
1308.57,297.8196581136265
1310.69,313.39169271405353
1312.82,372.2603325931402
1314.94,389.57203258964
1317.06,408.04458816695865
1319.18,433.7290360028785
1321.3,420.48584029356607
1323.41,423.7467933433029
1325.53,442.46739234468214
1327.64,443.5554066349998
1329.75,437.20420685740737
1331.87,414.7499036458728
1333.98,388.6237244053814
1336.08,393.8758186635639
1338.19,358.88953961280185
1340.3,354.0957256523359
1342.4,309.8774581208404
1344.5,236.0938666480538
1346.6,163.7944106968821
1348.7,111.69506586740681
1350.8,53.60689115328023
1352.9,44.91221524573348
1354.99,27.231299028068634
1357.09,5.803283784426185
1359.18,-3.990003448588368
1361.27,-6.481194154586774
1363.36,28.663573229306394
1365.45,79.68274731859674
1367.54,103.5288856790005
1369.62,111.01151294790975
1371.7,86.13045514634791
1373.79,83.74250732424571
1375.87,96.89476787239369
1377.95,127.53892521534613
1380.03,135.38840164717612
1382.1,124.34692573865732
1384.18,107.98472379206169
1386.25,87.63375891500505
1388.33,54.81630342762628
1390.4,30.102082698337426
1392.47,-2.510771496615689
1394.54,-18.310005708835206
1396.6,2.9402829813955123
1398.67,7.33298402777541
1400.74,20.817975216098375
1402.8,24.15450571752035
1404.86,8.482627512053568
1406.92,-13.96251394492515
1408.98,-29.041148533905243
1411.04,-4.566016082094393
1413.09,15.60240232481192
1415.15,46.93684041378697
1417.2,83.90991660816667
1419.25,84.47032930159935
1421.3,104.28095689389897
1423.35,133.3379102078527
1425.4,134.78006109650028
1427.45,146.3652377170829
1429.49,169.32737218594434
1431.54,147.61460061438856
1433.58,134.41307743024777
1435.62,104.09936112802234
1437.66,101.66899049521408
1439.7,69.45077512437388
1441.74,86.63060973466577
1443.77,93.77528849344026
1445.81,61.40393838542559
1447.84,53.70230972477839
1449.87,75.33230476237145
1451.9,78.28912534069696
1453.93,117.75842054876853
1455.96,167.30676771035814
1457.98,174.69120099127804
1460.01,229.14493048285522
1462.03,262.28210890444507
1464.05,304.33593163928276
1466.07,369.2062605798494
1468.09,493.2691527351519
1470.11,646.5673412189451
1472.13,841.3340495713007
1474.14,1026.8501394135037
1476.16,1159.348877150567
1478.17,1267.539748292795
1480.18,1334.5132241583012
1482.19,1323.359814289804
1484.2,1234.4557855380936
1486.21,1108.225071621688
1488.21,931.8059445912536
1490.22,748.8129243892561
1492.22,566.765355076283
1494.22,399.1350286764118
1496.22,288.39380902257835
1498.22,195.53744607813042
1500.22,137.75224740124304
1502.22,88.89127341885364
1504.21,40.760056510128834
1506.21,5.830891518492308
1508.2,10.766650073182518
1510.19,-7.769690803480671
1512.18,-29.924567119926905
1514.17,-25.463345260164715
1516.16,-7.484602027721849
1518.14,7.437020748238183
1520.13,15.107958955273034
1522.11,14.668106271788474
1524.09,-5.6949002512799325
1526.07,0.8257482483541025
1528.05,8.036984692675333
1530.03,13.983960590617244
1532.01,-6.2404307800691186
1533.98,2.1711116661954293
1535.96,-17.11684666197948
1537.93,-9.439620150131987
1539.9,10.153310265560094
1541.87,37.517341921695106
1543.84,59.79369905479575
1545.81,73.88561952369605
1547.78,53.648827246214296
1549.74,60.60581415963247
1551.7,75.08869360974904
1553.67,103.38205373993196
1555.63,136.48485849921758
1557.59,155.06282484088342
1559.55,169.30556182578857
1561.5,178.92656686856708
1563.46,175.210841031442
1565.41,169.9672662227938
1567.37,178.67145858621097
1569.32,175.8467171276318
1571.27,167.9211628186788
1573.22,179.89440150951532
1575.17,159.62323446075516
1577.11,142.77403554203465
1579.06,130.48941414487126
1581.0,107.10249714314159
1582.95,89.7559727583207
1584.89,98.5925629961564
1586.83,83.08835322619166
1588.77,88.0051693803423
1590.7,76.15247896099345
1592.64,68.76833966814479
1594.58,50.85272897893674
1596.51,37.83420706051379
1598.44,37.54610349239874
