Raman Shift,Processed Intensity
331.095,56.91130004170691
333.909,78.88527142695693
336.721,117.51981328874126
339.531,156.6482646496629
342.339,170.41349972038506
345.145,141.1965050174299
347.949,153.09257552858844
350.751,169.9113204021437
353.55,187.79571625514927
356.348,229.4125890531327
359.144,240.8573817040956
361.937,234.27320736679212
364.729,252.61275990186732
367.518,270.01927194205246
370.306,274.20747296234913
373.091,328.1302616359444
375.874,413.0263305710787
378.656,415.4201720002893
381.435,365.74113108871006
384.212,281.56150686141154
386.988,150.92989122598055
389.761,57.70450799509945
392.532,49.172266194842905
395.301,9.096384801540353
398.068,-8.8074110927746
400.833,-8.585170305404063
403.596,-9.806613717753862
406.358,-42.42227143703212
409.117,-44.09681132884862
411.874,-41.16141619959308
414.629,-37.28045133989599
417.382,-14.403851228902113
420.133,-2.1957012862299052
422.882,8.965747648661818
425.629,41.940444209149064
428.374,80.87413924957355
431.117,135.76979909283364
433.858,189.77330893849012
436.597,230.6972798104557
439.334,259.5924745522934
442.069,252.8906623939588
444.802,220.97604494709822
447.533,225.04239648607654
450.262,216.33115660994417
452.989,263.655237190128
455.714,294.54187693716085
458.438,315.70882930074504
461.159,304.87388370314466
463.878,283.6120058202123
466.595,239.59343024336522
469.31,240.3455626653722
472.024,241.68154873280264
474.735,271.4621762318093
477.444,300.21492013106126
480.152,292.705368577062
482.857,283.6515060323304
485.561,280.81894879452284
488.262,300.83046622985194
490.962,340.73740676840407
493.659,355.73398104232183
496.355,339.5382116906494
499.048,330.6300260213202
501.74,321.20363438743925
504.43,371.92943237309146
507.118,446.7159029791469
509.804,511.85247119000996
512.488,576.9142633022789
515.17,681.7144853010268
517.85,764.0663250456037
520.528,802.3543782649726
523.204,828.5346459815987
525.878,840.1345319353518
528.551,847.1576019121608
531.221,890.9883430726709
533.89,900.3445423285189
536.556,864.039188528141
539.221,836.8376127378151
541.883,810.3146285227058
544.544,831.6640531802923
547.203,871.460609926165
549.86,876.4218300798257
552.515,866.9318600123815
555.168,860.8986014275829
557.819,870.3251373571384
560.469,894.7383010131721
563.116,908.5696255930684
565.761,882.6315321795473
568.405,850.6411366883744
571.047,790.2202472922481
573.687,768.657266606609
576.324,733.8595700659152
578.96,716.8773128713456
581.594,698.4748559861227
584.227,708.9879064165452
586.857,677.6568479692114
589.485,677.1029291510936
592.112,670.1854034505682
594.737,694.5729553327378
597.359,717.8865548061644
599.98,792.6518357991454
602.599,857.1086173931271
605.216,938.5918536275499
607.831,1009.4363928284979
610.445,1053.1198321754491
613.056,1020.4529913156316
615.666,1040.4846716926713
618.274,1055.692130160959
620.88,1104.5525049809658
623.484,1147.5428132431307
626.086,1169.1399482917582
628.686,1179.1063914346191
631.284,1253.5854474620824
633.881,1338.5774325471893
636.476,1408.7015764314583
639.068,1446.4817341344815
641.659,1340.6797167111608
644.249,1190.3905267708324
646.836,1023.5661654249789
649.421,856.4442011396955
652.005,691.9763385881552
654.587,608.1141303602144
657.166,456.0470696244047
659.745,355.63115898040087
662.321,272.48414597815736
664.895,193.31885387513603
667.468,145.22889334592446
670.038,124.92675514422262
672.607,104.7914265743616
675.174,74.15410320092587
677.739,44.25056722503086
680.303,18.602137289173697
682.864,4.206149569429272
685.424,8.440729157846363
687.982,45.77908721852327
690.538,55.83715192526779
693.092,59.325962194607655
695.645,30.051685087183614
698.195,-27.98912869561309
700.744,-45.514289315010046
703.291,-29.813090214377553
705.836,8.77751885267844
708.38,23.444372913938423
710.921,25.421910661231777
713.461,13.51599422334857
715.999,8.722967034193971
718.535,18.75347360570504
721.069,32.50866025314963
723.602,30.603994868046357
726.133,29.178800976802904
728.662,4.2296013231657525
731.189,-15.723205215993858
733.714,-5.397238143471441
736.238,-10.986220330699325
738.759,-0.017112207236095855
741.279,7.792754049742143
743.798,-11.559554912141266
746.314,-21.02923161948138
748.829,-30.238004819727394
751.342,-43.85508319448127
753.853,-37.40667050137381
756.362,-2.6092932849842327
758.869,10.29686693868689
761.375,31.45273295024026
763.879,40.85651966632258
766.381,30.078017217169872
768.882,30.16335021462737
771.38,29.777832258265335
773.877,-2.222608129934997
776.372,-7.743811094701869
778.866,-5.45338808421775
781.357,12.45737075123725
783.847,34.36873201777962
786.335,32.08965929832539
788.821,39.2863819444201
791.306,80.05382101091936
793.789,130.8203485240133
796.27,208.0144515111424
798.749,236.25520555473213
801.227,257.78084358401975
803.702,304.639229428783
806.176,365.4021408968838
808.649,406.689076661336
811.119,430.11963457593856
813.588,391.93255665758034
816.055,348.12858359235634
818.521,306.7085473369152
820.984,269.53051133885947
823.446,241.4526250428512
825.906,204.57121649196415
828.365,197.83983730998762
830.821,186.64068863610783
833.276,145.78461848816414
835.729,116.84445245923507
838.181,104.91689584279948
840.631,107.33681671027125
843.079,147.15343375045586
845.525,146.93983744232582
847.97,107.5072731325622
850.412,79.04799554167448
852.854,65.75431374630489
855.293,84.10430282820516
857.731,98.38561076131236
860.167,82.60021767977014
862.601,80.13109990786916
865.034,89.17079875188574
867.465,77.43570357763247
869.894,43.88033488801648
872.321,8.649722638688218
874.747,-9.730120208213066
877.171,6.504942536359067
879.594,50.64288193734683
882.014,70.68597649790536
884.433,46.9222377550559
886.851,47.8301692086784
889.266,60.22162048858672
891.68,62.051308188275925
894.092,76.2263366986731
896.503,85.84429047045796
898.912,69.38370722876698
901.319,86.41836071170064
903.724,113.42678150406891
906.128,121.64939691875225
908.53,98.13614706854605
910.931,90.69886284276481
913.329,92.19697721718467
915.726,121.06133180207826
918.122,147.24655481882974
920.516,142.99296288607047
922.908,114.44560566295604
925.298,94.98759620672945
927.687,98.04963180648474
930.074,120.96713386453621
932.459,122.31357825398936
934.843,108.04334948582891
937.225,97.68221392363057
939.605,123.80350728398071
941.984,138.21860785118997
944.361,159.11979064437764
946.736,148.5087958702802
949.11,100.29206404271372
951.482,37.47120919728263
953.853,30.42873020132606
956.222,-6.119611269466532
958.589,16.351396769370922
960.954,29.319270778177042
963.318,32.6423995155817
965.68,34.798137315767235
968.041,61.311373556220815
970.4,50.18310212547658
972.757,69.36660993848409
975.113,24.957951166259818
977.467,20.48165956077719
979.819,2.081222684619661
982.17,11.75717518824763
984.519,13.98614651838443
986.866,1.6732421720596449
989.212,-47.65747862402054
991.556,-3.1963333490982677
993.899,16.77103449907827
996.24,43.00651049857743
998.579,51.50998311761987
1000.92,25.757438259800892
1003.25,0.12952999978028856
1005.59,3.435389414214569
1007.92,9.722147698404342
1010.25,3.6082688199667245
1012.58,2.188311093213997
1014.91,18.175784973429472
1017.24,43.47458264634156
1019.56,40.03612212593907
1021.88,47.002207456180486
1024.2,39.943127007937846
1026.52,31.42908510927441
1028.84,58.79210986619523
1031.16,88.84034193577759
1033.48,98.04851377548971
1035.79,96.36747651156475
1038.1,100.22420299784062
1040.41,99.52179087461013
1042.72,124.02041800840789
1045.03,151.76591697942717
1047.33,144.47073052130736
1049.64,124.18058124664162
1051.94,100.13161756295085
1054.24,81.84565482676135
1056.54,94.51113078339085
1058.84,129.31644195911622
1061.13,124.97375624381584
1063.43,139.76663499741971
1065.72,134.40717896588308
1068.01,123.03603134001969
1070.3,123.98428557623697
1072.59,147.8211075029899
1074.87,156.40135742723555
1077.16,170.437021764689
1079.44,181.97340657484915
1081.72,200.8653310960201
1084.0,238.82474985175918
1086.28,296.944565233523
1088.56,369.7462496071132
1090.84,444.1798483715081
1093.11,500.1954115891292
1095.38,503.4572827589616
1097.65,497.72505425634495
1099.92,427.42499896323193
1102.19,370.3643590413062
1104.46,324.39801565747894
1106.72,282.2380158522426
1108.98,264.1678613127881
1111.24,304.61394000326254
1113.5,357.43124350931316
1115.76,414.6652748588217
1118.02,441.456813485491
1120.28,446.8038230495788
1122.53,416.4185973538663
1124.78,393.39443006915485
1127.03,393.3484749359502
1129.28,371.2312726328107
1131.53,334.707706216127
1133.77,296.87128989323105
1136.02,268.19655303360037
1138.26,244.30094798959158
1140.5,250.8019960124086
1142.74,263.3649093585509
1144.98,261.6549753010165
1147.22,265.147082997657
1149.45,296.55429797857187
1151.69,305.3992937763685
1153.92,328.53816450879776
1156.15,313.54138031853427
1158.38,293.02712376534055
1160.61,280.94700717060505
1162.83,256.4432185333221
1165.06,242.8009055413056
1167.28,243.25770243954207
1169.5,190.7180188033078
1171.72,151.56256640652055
1173.94,119.21979085199882
1176.16,81.21349367790799
1178.37,60.87712113086877
1180.58,43.44900532002771
1182.8,14.358081561591462
1185.01,6.319129532891338
1187.22,-1.5719855735505917
1189.42,-0.8383099911918634
1191.63,12.187726123903303
1193.84,11.12621698936573
1196.04,-2.0216439255771093
1198.24,-14.635463991132383
1200.44,-45.6661218187694
1202.64,-53.921475964454885
1204.84,-30.304456098508126
1207.03,4.71074569984944
1209.23,18.26914448669868
1211.42,18.754000225810387
1213.61,-1.689382053822328
1215.8,8.560625929663502
1217.99,38.3638748366393
1220.18,60.342241419311904
1222.36,69.49867120508634
1224.55,72.36003070373931
1226.73,82.69138818602119
1228.91,102.30553255748737
1231.09,80.49153985138264
1233.27,27.776673054853745
1235.44,-8.406956160072241
1237.62,-18.674773324554963
1239.79,49.31025670929398
1241.96,153.98048390648614
1244.13,238.5302347163356
1246.3,282.4396165967846
1248.47,309.8554653958681
1250.64,349.8294355903199
1252.8,445.03228100037563
1254.96,571.7538497902792
1257.13,699.9983175640318
1259.29,836.7698966516086
1261.44,967.0728311094786
1263.6,1061.1971060068215
1265.76,1104.7184424260424
1267.91,1068.2601972251884
1270.06,966.8743104194123
1272.22,858.4222525624282
1274.37,777.4797816517876
1276.51,670.241700034147
1278.66,566.8551827391116
1280.81,481.8007248606989
1282.95,409.55880322451594
1285.09,380.7527285311278
1287.23,406.33911654703775
1289.37,399.84597834329065
1291.51,381.94414386740937
1293.65,371.2567807534199
1295.78,352.97843694141216
1297.92,363.1131309161401
1300.05,385.8552990884882
1302.18,376.87550508169693
1304.31,363.6537680652086
1306.44,366.2414625170884
1308.57,375.21369417692404
1310.69,403.90739028443795
1312.82,428.3736755323855
1314.94,420.7588194480179
1317.06,427.54232663169773
1319.18,404.58455080503563
1321.3,428.79335647807125
1323.41,454.1241139497979
1325.53,491.7701704991521
1327.64,482.3057025283922
1329.75,486.0190438969548
1331.87,474.0079190172173
1333.98,502.89372356930085
1336.08,467.39294807302326
1338.19,464.46003003127043
1340.3,375.57306321622445
1342.4,288.40045933654574
1344.5,220.80094303788815
1346.6,162.77592785579236
1348.7,95.0409397876299
1350.8,76.26370753121091
1352.9,55.159395580540604
1354.99,72.68107541680683
1357.09,88.21019669938119
1359.18,102.84230211722638
1361.27,101.33940890697727
1363.36,75.65381894244683
1365.45,53.73764310984825
1367.54,71.54280187349104
1369.62,109.44959727005107
1371.7,131.69529030074
1373.79,153.27886879966672
1375.87,172.19914863552822
1377.95,175.5023987228251
1380.03,192.8061565092646
1382.1,196.2992339393577
1384.18,167.1226757989641
1386.25,123.7983371074506
1388.33,66.99079384318952
1390.4,24.602587002381597
1392.47,2.6789904674076297
1394.54,-15.401506839105195
1396.6,-12.40338294917774
1398.67,-12.900740754605295
1400.74,-22.848729457223953
1402.8,-4.678776858883566
1404.86,15.368081742160484
1406.92,-4.806413506344143
1408.98,-8.586316940519282
1411.04,15.549001888275143
1413.09,47.50105126364065
1415.15,80.36174278403428
1417.2,111.36577558042472
1419.25,101.27159196252114
1421.3,111.74233306499855
1423.35,144.53631830325207
1425.4,182.22133435295768
1427.45,214.9365431772551
1429.49,208.0115329110672
1431.54,172.63298779304228
1433.58,147.79707238320566
1435.62,123.73800625680656
1437.66,115.59473393625467
1439.7,145.79188053734788
1441.74,130.0873740821687
1443.77,102.00102019292831
1445.81,108.3859339286737
1447.84,112.80949543151405
1449.87,141.1247817633273
1451.9,179.80390350436664
1453.93,184.9856270661603
1455.96,208.66585414726592
1457.98,221.3642916652202
1460.01,221.36255025991795
1462.03,277.7993856541327
1464.05,345.0992733473754
1466.07,437.5438404526042
1468.09,582.3194880091285
1470.11,736.231679962179
1472.13,903.4192321424766
1474.14,1078.4495536267534
1476.16,1241.6996023839995
1478.17,1375.7368409216963
1480.18,1427.3192395511085
1482.19,1453.5857558430432
1484.2,1407.3896712264695
1486.21,1241.2985942538053
1488.21,1058.6897019614357
1490.22,865.4164098016697
1492.22,659.2369463365887
1494.22,503.5762612652434
1496.22,361.43079059369325
1498.22,229.98750751934608
1500.22,157.57630664861858
1502.22,126.76524535746307
1504.21,87.88435658046319
1506.21,68.02565207611838
1508.2,32.56693521594775
1510.19,12.171804249777324
1512.18,-6.067487286111373
1514.17,20.703306029643045
1516.16,3.528997426061096
1518.14,10.025924190945261
1520.13,-9.046619887529232
1522.11,-20.167332672838256
1524.09,-35.67194605852001
1526.07,-14.848459753344741
1528.05,-0.7942819256295479
1530.03,18.2980549564802
1532.01,17.9980338940843
1533.98,9.065721617246936
1535.96,-8.214901250520143
1537.93,0.05929473412288644
1539.9,17.648680814322688
1541.87,46.885152649543215
1543.84,55.100698652363235
1545.81,72.4845397538511
1547.78,86.5593167879806
1549.74,116.75251597128977
1551.7,113.39646581111015
1553.67,117.20452448998935
1555.63,112.46155296439974
1557.59,113.64295949202187
1559.55,153.79564892093344
1561.5,172.58563864546045
1563.46,179.39329360965485
1565.41,206.31332321552668
1567.37,207.34525442175118
1569.32,165.2029524614186
1571.27,165.93366536931148
1573.22,126.06087803299238
1575.17,89.06049957722303
1577.11,106.55133646267291
1579.06,114.24747034652637
1581.0,119.4344454669058
1582.95,135.44545602728954
1584.89,132.42324786664858
1586.83,109.08202012958031
1588.77,112.46932693643794
1590.7,95.96607429155574
1592.64,80.14365984861456
1594.58,54.33539839029777
1596.51,34.87461397461584
1598.44,30.927970176458984
