Raman Shift,Processed Intensity
331.095,77.34006190476185
333.909,15.424849999999857
336.721,-11.226800000000125
339.531,-12.659238095238091
342.339,1.0829428571428732
345.145,18.431623809523824
347.949,34.53401904761906
350.751,30.490461904761933
353.55,33.592614285714276
356.348,13.752114285714287
359.144,-10.308923809523819
361.937,-12.105552380952359
364.729,10.80087142857148
367.518,69.70660476190486
370.306,145.62403809523823
373.091,233.47076666666683
375.874,302.49940952380973
378.656,311.29704761904776
381.435,281.7854476190477
384.212,210.88720476190483
386.988,98.66968095238096
389.761,8.24850952380952
392.532,-25.639642857142878
395.301,-66.25684761904762
398.068,-44.43516666666667
400.833,-9.052776190476193
403.596,6.965919047619061
406.358,18.98372857142859
409.117,38.317228571428586
411.874,29.474804761904778
414.629,32.15666095238097
417.382,25.445199047619056
420.133,16.13826476190477
422.882,10.273239047619082
425.629,59.9833076190477
428.374,110.87961333333344
431.117,171.6215323809525
433.858,219.10752380952394
436.597,226.80865714285727
439.334,187.95886666666675
442.069,137.22107142857146
444.802,80.25966666666672
447.533,62.31098571428579
450.262,87.75460000000008
452.989,135.35227142857153
455.714,175.48542857142866
458.438,176.25029047619054
461.159,140.79141428571432
463.878,134.68248285714293
466.595,98.64045904761909
469.31,74.24018000000005
472.024,68.86645047619052
474.735,72.23784190476196
477.444,76.31124952380961
480.152,107.32973047619053
482.857,112.72724285714293
485.561,114.55745238095244
488.262,119.06439047619055
490.962,137.68300476190487
493.659,173.65778095238105
496.355,151.47177619047628
499.048,133.75099047619054
501.74,104.88384285714291
504.43,84.35375238095244
507.118,69.35870000000006
509.804,109.85844761904768
512.488,104.38475238095245
515.17,151.08838095238104
517.85,177.5959333333334
520.528,161.82003809523817
523.204,132.57787619047627
525.878,101.02012857142861
528.551,59.44064761904768
531.221,72.89482857142862
533.89,80.34266190476197
536.556,94.22015238095246
539.221,118.29673809523814
541.883,97.34192857142862
544.544,71.50580952380956
547.203,74.46228571428577
549.86,76.7420476190477
552.515,99.82790476190485
555.168,127.67923809523818
557.819,141.49280000000007
560.469,116.37004761904768
563.116,109.5075333333334
565.761,108.48253809523816
568.405,113.49111428571437
571.047,132.20527142857154
573.687,169.05838095238104
576.324,156.19822857142864
578.96,127.77221904761912
581.594,124.35620000000006
584.227,124.38267619047625
586.857,103.28366190476197
589.485,115.15752380952387
592.112,119.19790000000006
594.737,119.93167619047627
597.359,126.74210000000008
599.98,137.63131428571435
602.599,118.9820952380953
605.216,119.12900000000008
607.831,120.21592380952389
610.445,116.29173333333338
613.056,106.68987619047627
615.666,99.17265238095243
618.274,91.02580952380958
620.88,100.72501428571435
623.484,109.65012380952388
626.086,108.18143333333343
628.686,130.84117142857156
631.284,184.00852380952395
633.881,214.7770000000001
636.476,224.7154761904763
639.068,201.821380952381
641.659,166.75890476190486
644.249,165.42923809523822
646.836,185.0671380952382
649.421,161.1453952380953
652.005,109.32657619047622
654.587,54.702084761904786
657.166,19.219930000000026
659.745,19.494238095238114
662.321,12.47294333333334
664.895,14.86534476190478
667.468,30.714009047619072
670.038,41.6327504761905
672.607,43.187624761904786
675.174,35.61122952380952
677.739,13.802774285714303
680.303,28.70896761904766
682.864,55.6098266666667
685.424,51.21385619047619
687.982,36.46762285714286
690.538,27.412909523809546
693.092,25.09155238095242
695.645,47.35488095238099
698.195,55.720947619047635
700.744,34.75550476190478
703.291,41.59567142857147
705.836,32.80738571428573
708.38,37.43283809523813
710.921,43.895176190476214
713.461,56.33197142857147
715.999,53.59524761904767
718.535,82.2513285714286
721.069,65.2477904761905
723.602,52.24648095238099
726.133,78.4809438095239
728.662,90.04177476190482
731.189,74.01981619047625
733.714,74.79185380952386
736.238,84.59180666666673
738.759,82.60602238095247
741.279,132.78326761904768
743.798,125.16721904761908
746.314,114.65908571428577
748.829,72.92224285714288
751.342,52.429609523809546
753.853,38.98767142857148
756.362,65.97447619047625
758.869,90.67304285714293
761.375,123.50940952380957
763.879,106.19553809523815
766.381,72.53883333333336
768.882,56.48978571428575
771.38,50.42736666666671
773.877,61.6357952380953
776.372,80.06595238095244
778.866,96.81178095238099
781.357,74.58642380952385
783.847,77.67456190476196
786.335,79.55170952380959
788.821,76.64561428571434
791.306,96.81284761904769
793.789,103.71975714285719
796.27,100.98503809523818
798.749,139.94187142857155
801.227,165.63829523809534
803.702,172.9788476190477
806.176,205.249561904762
808.649,195.06990476190487
811.119,189.72609523809535
813.588,188.9328952380953
816.055,155.02461428571436
818.521,114.23998571428578
820.984,92.48470952380957
823.446,100.33145238095247
825.906,134.067261904762
828.365,166.21672857142866
830.821,167.35280476190482
833.276,127.81022380952386
835.729,102.30477619047628
838.181,94.31440476190483
840.631,90.2217714285715
843.079,104.7426333333334
845.525,121.40273809523818
847.97,131.34674285714294
850.412,133.9101190476191
852.854,100.6186666666667
855.293,69.66497142857146
857.731,54.670180952381
860.167,46.39835238095243
862.601,81.08962857142863
865.034,94.17506190476196
867.465,99.51414666666673
869.894,85.3473204761905
872.321,61.29605047619049
874.747,43.21976047619053
877.171,61.54952190476196
879.594,89.47834428571434
882.014,107.81830857142862
884.433,110.8100952380953
886.851,121.78949523809533
889.266,150.90181904761914
891.68,157.9591476190477
894.092,169.01198095238104
896.503,163.87219047619058
898.912,147.20914285714292
901.319,138.02538095238106
903.724,129.03814285714293
906.128,126.67823809523819
908.53,131.99647619047627
910.931,140.75708571428578
913.329,122.67689523809531
915.726,110.61560000000007
918.122,114.14748571428578
920.516,129.46536190476198
922.908,140.76275238095246
925.298,143.8994666666667
927.687,133.1162190476191
930.074,113.93918571428577
932.459,102.94233333333338
934.843,102.98532857142864
937.225,100.49939523809529
939.605,84.86801428571432
941.984,74.76049047619051
944.361,61.56011904761909
946.736,52.17413333333339
949.11,60.89069047619053
951.482,83.80746190476196
953.853,82.92679523809528
956.222,77.20339523809527
958.589,64.54433809523812
960.954,38.094771428571455
963.318,31.76157619047624
965.68,63.92804761904767
968.041,89.64391904761911
970.4,97.9112523809524
972.757,82.77975238095239
975.113,28.10859047619048
977.467,8.185317142857162
979.819,0.6786576190476334
982.17,15.018996190476214
984.519,29.970042380952407
986.866,45.34305809523813
989.212,50.187348095238136
991.556,65.07593619047623
993.899,76.34370952380958
996.24,87.70636666666671
998.579,99.30810476190481
1000.92,87.15018095238098
1003.25,74.75755714285718
1005.59,57.0836666666667
1007.92,45.17703333333336
1010.25,60.32430476190481
1012.58,58.240323809523844
1014.91,75.97327619047626
1017.24,82.66648095238102
1019.56,107.51066666666674
1021.88,99.41080476190481
1024.2,113.2240952380953
1026.52,112.18836190476199
1028.84,137.06534285714292
1031.16,143.18810476190487
1033.48,185.65124761904775
1035.79,193.21623809523823
1038.1,226.35828571428584
1040.41,249.88623809523824
1042.72,246.41790476190488
1045.03,235.85714285714295
1047.33,219.72633333333343
1049.64,198.88180952380966
1051.94,200.75033333333346
1054.24,192.23552380952393
1056.54,178.8592857142858
1058.84,158.71561904761913
1061.13,137.4692857142858
1063.43,125.02366666666676
1065.72,127.94776190476199
1068.01,148.04933333333346
1070.3,184.61185714285725
1072.59,180.10985714285724
1074.87,178.0170476190477
1077.16,173.85542857142866
1079.44,185.1940952380954
1081.72,203.8403333333335
1084.0,250.69652380952397
1086.28,271.28423809523827
1088.56,356.5530952380956
1090.84,460.7392380952384
1093.11,567.0780952380956
1095.38,602.7100476190479
1097.65,573.2040952380954
1099.92,476.55790476190504
1102.19,409.1973333333335
1104.46,344.12019047619066
1106.72,327.4663333333335
1108.98,326.4238571428574
1111.24,349.0852380952383
1113.5,377.73395238095264
1115.76,422.41509523809555
1118.02,457.17395238095264
1120.28,483.6269523809526
1122.53,460.15252380952404
1124.78,412.93866666666685
1127.03,342.36385714285734
1129.28,292.3782857142859
1131.53,255.408142857143
1133.77,231.21304761904776
1136.02,198.36209523809535
1138.26,183.42442857142868
1140.5,171.11228571428583
1142.74,181.04266666666678
1144.98,190.07076190476204
1147.22,214.09904761904778
1149.45,234.5066190476192
1151.69,229.2440000000001
1153.92,222.50014285714298
1156.15,192.0349523809525
1158.38,164.79961904761916
1160.61,155.0776761904763
1162.83,132.67739047619054
1165.06,112.59786666666675
1167.28,100.17085714285719
1169.5,62.156971428571474
1171.72,52.555390476190524
1173.94,76.41248571428578
1176.16,90.58472380952388
1178.37,119.45248571428576
1180.58,112.39591714285717
1182.8,72.74793142857145
1185.01,24.269998666666673
1187.22,-3.752308952380956
1189.42,-6.3667588571428375
1191.63,3.99811085714287
1193.84,27.723452571428606
1196.04,64.61906533333337
1198.24,64.92348342857144
1200.44,46.87530952380956
1202.64,62.90390952380956
1204.84,47.81944095238097
1207.03,35.051324285714315
1209.23,28.74333428571429
1211.42,21.277447142857163
1213.61,17.70233904761908
1215.8,33.06692904761906
1217.99,43.56276952380954
1220.18,35.33402380952382
1222.36,20.762966666666692
1224.55,20.56528571428573
1226.73,22.456680952380978
1228.91,40.48634285714291
1231.09,74.51283333333338
1233.27,80.29967619047623
1235.44,94.51501904761909
1237.62,102.82735238095243
1239.79,83.33367619047625
1241.96,94.08325714285719
1244.13,103.17327142857148
1246.3,84.557880952381
1248.47,100.09610000000006
1250.64,109.2660428571429
1252.8,105.25994285714297
1254.96,152.17513809523822
1257.13,195.25178095238107
1259.29,236.34909523809543
1261.44,283.5169523809525
1263.6,275.566761904762
1265.76,238.2144761904763
1267.91,204.5580000000001
1270.06,180.78957142857158
1272.22,170.05461904761913
1274.37,171.9745238095239
1276.51,172.74166666666676
1278.66,152.83447619047627
1280.81,139.82666666666677
1282.95,156.52990476190485
1285.09,154.37509523809533
1287.23,145.4120000000001
1289.37,149.45242857142864
1291.51,155.26090476190487
1293.65,154.8394333333334
1295.78,143.47615238095244
1297.92,122.17318571428576
1300.05,75.69460476190481
1302.18,68.13815714285721
1304.31,95.07736666666673
1306.44,129.03839047619059
1308.57,133.4044285714286
1310.69,129.36820000000006
1312.82,121.88436666666676
1314.94,130.24088571428584
1317.06,164.82072857142873
1319.18,191.91175238095246
1321.3,197.61128571428583
1323.41,209.15976190476204
1325.53,227.65452380952394
1327.64,250.90723809523828
1329.75,310.11047619047645
1331.87,310.5520000000002
1333.98,291.75752380952395
1336.08,280.7768571428573
1338.19,259.0879047619049
1340.3,257.3113809523811
1342.4,260.9256190476192
1344.5,227.59914285714297
1346.6,193.8098095238096
1348.7,162.27409523809533
1350.8,145.9935238095239
1352.9,141.7792857142858
1354.99,137.2042857142858
1357.09,127.88923809523817
1359.18,138.74028571428582
1361.27,133.90219047619055
1363.36,141.09042857142867
1365.45,152.0682857142858
1367.54,152.40847619047628
1369.62,146.82661904761915
1371.7,170.56180952380967
1373.79,194.23461904761916
1375.87,228.56033333333352
1377.95,251.92080952380965
1380.03,265.7933809523811
1382.1,260.27380952380963
1384.18,226.36304761904773
1386.25,179.82395238095248
1388.33,145.3716571428572
1390.4,99.62565714285721
1392.47,104.91972380952389
1394.54,108.82570476190483
1396.6,112.39146666666672
1398.67,101.80797142857149
1400.74,94.78990000000006
1402.8,76.86108095238102
1404.86,78.49777619047624
1406.92,90.84274761904769
1408.98,103.89577619047624
1411.04,102.037780952381
1413.09,92.31607619047622
1415.15,64.82543333333336
1417.2,51.37495238095243
1419.25,75.63068095238101
1421.3,89.78236190476198
1423.35,102.8292095238096
1425.4,115.91308571428576
1427.45,84.36645238095241
1429.49,66.56929047619052
1431.54,62.5204428571429
1433.58,63.8851428571429
1435.62,66.70961428571434
1437.66,84.658880952381
1439.7,83.92192857142862
1441.74,84.06839047619052
1443.77,70.9536428571429
1445.81,43.861471428571434
1447.84,30.551790476190504
1449.87,47.641371428571475
1451.9,57.652085714285754
1453.93,89.4862190476191
1455.96,77.6654666666667
1457.98,74.09220952380961
1460.01,94.95419523809534
1462.03,145.62999047619059
1464.05,177.30763809523825
1466.07,226.22220952380962
1468.09,238.84742857142874
1470.11,253.18061904761925
1472.13,269.55223809523824
1474.14,272.76933333333346
1476.16,285.5910000000002
1478.17,272.4906952380953
1480.18,237.75120952380962
1482.19,178.41744285714296
1484.2,116.3914190476191
1486.21,73.95598571428579
1488.21,87.9181190476191
1490.22,75.84671428571433
1492.22,61.69133333333336
1494.22,51.63989333333335
1496.22,18.97556714285716
1498.22,16.886328761904785
1500.22,21.941210190476195
1502.22,8.899727047619063
1504.21,14.188103142857164
1506.21,40.85172419047622
1508.2,47.69793971428574
1510.19,46.9151151904762
1512.18,32.6440319047619
1514.17,15.02557214285715
1516.16,-5.227937142857131
1518.14,8.072120714285735
1520.13,38.1144428571429
1522.11,49.32587571428574
1524.09,54.37141095238098
1526.07,47.725676666666686
1528.05,48.33954000000004
1530.03,45.68772285714289
1532.01,46.340300714285725
1533.98,30.91500714285715
1535.96,23.79155309523812
1537.93,31.06403190476195
1539.9,57.44563404761907
1541.87,54.17342047619049
1543.84,45.484542857142884
1545.81,42.520980952380995
1547.78,50.94852857142862
1549.74,76.29028571428577
1551.7,104.45039047619055
1553.67,118.66621904761914
1555.63,130.88959523809532
1557.59,151.3102476190477
1559.55,153.16595238095246
1561.5,154.17052380952393
1563.46,158.60938095238103
1565.41,157.29190476190487
1567.37,150.5512857142858
1569.32,154.72047619047626
1571.27,164.98994285714298
1573.22,161.1688238095239
1575.17,130.35229047619055
1577.11,118.68331904761914
1579.06,125.63814761904771
1581.0,126.64553809523818
1582.95,162.84868095238105
1584.89,159.34271428571435
1586.83,148.55642857142868
1588.77,158.4424761904763
1590.7,199.28690476190488
1592.64,207.13766666666677
1594.58,217.37628571428593
1596.51,204.66942857142874
1598.44,156.85059523809528
