Raman Shift,Processed Intensity
331.095,86.29202142857118
333.909,-34.913154761904565
336.721,-55.68026190476159
339.531,-15.554133333333294
342.339,32.015328571428626
345.145,75.41194761904764
347.949,61.116028571428565
350.751,14.989719047619026
353.55,-44.4847380952381
356.348,-30.728895238095213
359.144,-0.591728571428547
361.937,35.888409523809564
364.729,53.48384761904766
367.518,73.01582380952388
370.306,112.54436190476204
373.091,218.6073714285716
375.874,317.8864714285716
378.656,366.7313047619049
381.435,321.30231428571443
384.212,215.90398571428577
386.988,107.93680857142861
389.761,42.66019190476194
392.532,14.858255238095268
395.301,18.60223666666669
398.068,36.34574095238097
400.833,14.353029047619033
403.596,7.889750476190466
406.358,-32.96758761904765
409.117,-46.474413333333324
411.874,-22.218182857142835
414.629,14.596003809523824
417.382,23.002470476190503
420.133,39.84633333333335
422.882,34.45020476190483
425.629,107.61408571428586
428.374,192.5201571428573
431.117,265.5419047619049
433.858,287.6731904761906
436.597,261.71839047619056
439.334,192.4350333333334
442.069,154.53397142857153
444.802,111.48920476190483
447.533,100.39425714285723
450.262,120.96284285714296
452.989,178.575961904762
455.714,211.51969523809532
458.438,195.12863809523816
461.159,128.4525904761905
463.878,58.73230476190479
466.595,48.54244761904769
469.31,66.98204761904769
472.024,117.96021904761913
474.735,141.10038095238102
477.444,127.16989523809531
480.152,119.7457238095239
482.857,145.50029523809536
485.561,145.9159523809525
488.262,159.9519523809525
490.962,204.7099047619049
493.659,214.00708571428584
496.355,189.5172761904763
499.048,181.3906952380953
501.74,159.6825714285715
504.43,125.01968571428581
507.118,136.6954952380953
509.804,136.2898095238096
512.488,130.90569523809535
515.17,148.4558000000001
517.85,183.37684761904774
520.528,193.62926666666678
523.204,168.5068857142858
525.878,150.1132476190477
528.551,128.36082857142864
531.221,111.73343809523818
533.89,119.61973333333341
536.556,120.6939952380953
539.221,102.058980952381
541.883,117.7697476190477
544.544,132.54745714285724
547.203,153.8278238095239
549.86,164.23637142857152
552.515,142.06547619047626
555.168,136.03566666666677
557.819,127.81980952380962
560.469,139.8045238095239
563.116,156.8527142857144
565.761,191.7312380952382
568.405,188.54057142857152
571.047,196.52347619047623
573.687,170.39871428571436
576.324,164.26542857142869
578.96,174.6034761904763
581.594,181.4164761904763
584.227,176.8981904761906
586.857,172.1465238095239
589.485,149.49757142857152
592.112,129.33423809523816
594.737,130.277380952381
597.359,133.18590476190488
599.98,166.44198095238104
602.599,162.665361904762
605.216,150.3330095238096
607.831,127.20691428571435
610.445,103.33483333333342
613.056,116.04962857142867
615.666,144.49357619047626
618.274,117.04666190476196
620.88,134.04090000000008
623.484,134.3795476190477
626.086,144.5845523809525
628.686,170.3205857142858
631.284,224.0614190476192
633.881,230.51866666666677
636.476,237.59461904761915
639.068,209.14314285714298
641.659,200.54190476190487
644.249,186.69257142857157
646.836,191.73419047619058
649.421,173.80558095238104
652.005,147.90301428571433
654.587,94.21263333333337
657.166,61.06362857142861
659.745,43.070995238095264
662.321,36.37320000000004
664.895,51.01325714285719
667.468,67.79635238095241
670.038,69.9560666666667
672.607,42.82128571428572
675.174,33.72071428571432
677.739,37.65015238095242
680.303,67.46221428571435
682.864,99.48590000000009
685.424,124.19320476190481
687.982,95.43710000000004
690.538,75.35614761904766
693.092,44.565580952380984
695.645,41.87059523809529
698.195,67.64854285714291
700.744,85.80026190476195
703.291,90.65537142857147
705.836,57.68645714285714
708.38,18.79476666666669
710.921,19.16724761904766
713.461,46.372366666666714
715.999,56.21624285714288
718.535,71.74360952380955
721.069,73.71338095238102
723.602,91.17026666666672
726.133,105.68304761904767
728.662,134.3441428571429
731.189,121.05598571428578
733.714,104.10180952380959
736.238,122.47934761904772
738.759,141.85278095238104
741.279,134.74360476190483
743.798,116.00657619047622
746.314,82.78263809523813
748.829,46.97445238095244
751.342,75.86580000000008
753.853,106.31184761904768
756.362,121.69160952380957
758.869,97.09851904761909
761.375,83.05461428571434
763.879,70.22487619047625
766.381,83.41699047619052
768.882,83.72470000000004
771.38,62.47974761904765
773.877,59.633233333333386
776.372,54.08824285714289
778.866,72.22450476190483
781.357,90.61202857142862
783.847,103.77327619047625
786.335,102.65970000000007
788.821,101.74638095238099
791.306,100.60357142857151
793.789,122.278161904762
796.27,148.721161904762
798.749,161.50310476190484
801.227,179.4332476190477
803.702,184.98680952380963
806.176,204.6868571428573
808.649,229.3902380952382
811.119,218.66745238095248
813.588,172.47033333333346
816.055,137.41783333333342
818.521,124.17638095238105
820.984,147.50740476190487
823.446,154.74426190476197
825.906,137.12495238095246
828.365,144.60130952380962
830.821,149.31642857142867
833.276,144.50888095238108
835.729,174.79742857142864
838.181,152.65861904761914
840.631,139.6644476190477
843.079,137.2434714285715
845.525,139.44396190476198
847.97,119.55233047619053
850.412,97.47356380952384
852.854,61.06569904761907
855.293,42.329526666666695
857.731,27.36099428571434
860.167,69.58964476190482
862.601,97.68310190476195
865.034,105.5470333333334
867.465,129.13507428571435
869.894,110.49606952380957
872.321,77.3932390476191
874.747,84.44687333333337
877.171,60.61086761904766
879.594,67.83891714285721
882.014,92.03743142857147
884.433,97.16063809523817
886.851,111.92433809523818
889.266,142.71099047619057
891.68,169.80844761904774
894.092,170.3137333333334
896.503,176.65704761904772
898.912,178.17419047619057
901.319,156.2955238095239
903.724,156.070761904762
906.128,162.02590476190485
908.53,153.40133333333347
910.931,171.7227142857144
913.329,180.99247619047628
915.726,162.68909523809532
918.122,161.33876190476198
920.516,138.70600000000007
922.908,155.36480952380964
925.298,148.46019047619055
927.687,155.32772380952392
930.074,135.20796190476196
932.459,126.15111428571436
934.843,124.01718095238104
937.225,135.2849238095239
939.605,132.62315238095246
941.984,133.2252952380953
944.361,122.14155238095245
946.736,114.9934952380953
949.11,100.87902380952387
951.482,105.13416190476198
953.853,109.95171428571435
956.222,101.95380476190482
958.589,98.04780952380956
960.954,71.14100952380957
963.318,89.47402380952391
965.68,128.66873333333342
968.041,148.77536000000006
970.4,130.08224095238097
972.757,69.73486285714284
975.113,11.592954285714306
977.467,2.277977142857151
979.819,-0.5882685714285394
982.17,42.71093142857147
984.519,71.51147619047623
986.866,63.91113809523814
989.212,83.38837142857147
991.556,76.46949047619053
993.899,101.3946857142858
996.24,127.40435714285721
998.579,148.3101238095239
1000.92,128.97121428571432
1003.25,99.72267619047622
1005.59,57.661642857142894
1007.92,58.2657047619048
1010.25,49.965133333333384
1012.58,68.33253333333337
1014.91,98.6074714285715
1017.24,97.31461428571436
1019.56,104.78816666666674
1021.88,109.26711904761912
1024.2,107.32346666666675
1026.52,115.4815000000001
1028.84,153.7418095238096
1031.16,160.7712380952382
1033.48,188.66485714285724
1035.79,214.85171428571442
1038.1,231.71228571428588
1040.41,245.72276190476205
1042.72,254.1209523809525
1045.03,233.04952380952392
1047.33,210.45976190476205
1049.64,195.01800000000011
1051.94,181.81876190476203
1054.24,172.67071428571438
1056.54,167.0968095238096
1058.84,150.76285714285723
1061.13,134.81042857142864
1063.43,131.0002476190477
1065.72,119.33117619047626
1068.01,116.84930476190485
1070.3,135.17244285714295
1072.59,141.63235238095248
1074.87,171.1798904761906
1077.16,191.2899142857144
1079.44,197.29376190476202
1081.72,216.23742857142872
1084.0,238.881142857143
1086.28,302.080285714286
1088.56,410.3567142857146
1090.84,531.2322380952385
1093.11,623.0381428571433
1095.38,651.8199523809526
1097.65,576.1473809523812
1099.92,495.9706190476193
1102.19,397.76371428571446
1104.46,344.6194761904764
1106.72,311.91709523809544
1108.98,308.701904761905
1111.24,349.68600000000026
1113.5,389.6289523809527
1115.76,416.5760952380955
1118.02,451.6682380952384
1120.28,463.7600476190479
1122.53,469.5635238095241
1124.78,448.266904761905
1127.03,373.48723809523824
1129.28,301.17447619047635
1131.53,250.99314285714303
1133.77,199.559761904762
1136.02,180.68166666666676
1138.26,154.64228571428583
1140.5,158.2014285714287
1142.74,180.4521904761906
1144.98,199.9162857142858
1147.22,207.11557142857157
1149.45,215.95276190476204
1151.69,224.85385714285727
1153.92,222.7218095238096
1156.15,195.88804761904774
1158.38,158.35066666666677
1160.61,132.20290476190485
1162.83,122.5381714285715
1165.06,114.21172857142864
1167.28,86.46011428571433
1169.5,60.32934761904765
1171.72,51.81780952380957
1173.94,66.6380714285715
1176.16,91.69330952380957
1178.37,97.88701333333337
1180.58,73.74162190476191
1182.8,42.58921142857144
1185.01,9.428599047619048
1187.22,-5.550805714285712
1189.42,-0.8262647619047474
1191.63,8.315569523809536
1193.84,23.873875238095263
1196.04,41.51458857142859
1198.24,39.42754571428573
1200.44,25.326508095238108
1202.64,29.972925714285726
1204.84,10.842674761904766
1207.03,11.98317809523811
1209.23,11.727687619047622
1211.42,13.647664761904775
1213.61,10.505198571428588
1215.8,29.586340952380965
1217.99,19.03443476190477
1220.18,15.75484190476191
1222.36,5.986380952380964
1224.55,21.25370952380955
1226.73,30.89117619047622
1228.91,48.090409523809555
1231.09,64.7097428571429
1233.27,70.6077666666667
1235.44,83.73849047619053
1237.62,93.15097142857145
1239.79,85.37075714285719
1241.96,76.54249523809528
1244.13,83.04894761904768
1246.3,86.03500000000007
1248.47,107.07448095238101
1250.64,106.83600476190482
1252.8,113.55994285714294
1254.96,129.58166666666676
1257.13,144.18942857142866
1259.29,165.05228571428583
1261.44,187.9824285714287
1263.6,190.64909523809533
1265.76,184.86433333333343
1267.91,180.96380952380963
1270.06,177.8552380952382
1272.22,174.20785714285722
1274.37,170.2622380952382
1276.51,175.59290476190486
1278.66,167.8215714285715
1280.81,144.6176428571429
1282.95,134.69811428571435
1285.09,98.06582857142861
1287.23,76.48532380952388
1289.37,88.05483809523815
1291.51,114.77695047619055
1293.65,95.89246000000006
1295.78,95.0704247619048
1297.92,83.4092590476191
1300.05,88.62552000000005
1302.18,86.91241238095243
1304.31,97.22495047619053
1306.44,96.08929047619056
1308.57,98.12699047619056
1310.69,126.76923333333343
1312.82,159.92273333333344
1314.94,178.54238095238105
1317.06,191.82085714285728
1319.18,205.09361904761917
1321.3,198.45852380952397
1323.41,221.44147619047632
1325.53,240.56819047619067
1327.64,282.8883333333335
1329.75,332.92747619047645
1331.87,351.2113333333335
1333.98,353.83728571428594
1336.08,351.42600000000016
1338.19,322.2650000000002
1340.3,283.2131904761907
1342.4,273.74823809523826
1344.5,230.9669523809525
1346.6,197.44238095238103
1348.7,165.36619047619055
1350.8,134.97823809523817
1352.9,107.13676190476201
1354.99,126.46190476190486
1357.09,121.05014285714293
1359.18,147.33133333333342
1361.27,149.4015238095239
1363.36,141.69047619047626
1365.45,128.00842857142865
1367.54,141.92757142857153
1369.62,149.78223809523823
1371.7,189.57309523809533
1373.79,213.34785714285726
1375.87,227.059761904762
1377.95,237.0423333333335
1380.03,256.24857142857155
1382.1,248.10728571428587
1384.18,221.95180952380966
1386.25,180.78233333333344
1388.33,140.5514476190477
1390.4,109.54454285714291
1392.47,110.90443809523816
1394.54,104.3449714285715
1396.6,98.48488571428577
1398.67,90.94309047619055
1400.74,111.90950666666672
1402.8,92.81192571428575
1404.86,86.93524666666671
1406.92,78.08835047619053
1408.98,68.936960952381
1411.04,69.62295428571434
1413.09,79.66919714285717
1415.15,68.78857619047623
1417.2,77.55134285714291
1419.25,87.05141904761912
1421.3,108.14446666666674
1423.35,130.1147571428572
1425.4,129.72251619047626
1427.45,104.15643047619052
1429.49,71.51008952380955
1431.54,54.68629809523814
1433.58,67.68327047619054
1435.62,86.4039352380953
1437.66,115.08403047619053
1439.7,112.435980952381
1441.74,99.3147714285715
1443.77,84.81330952380956
1445.81,76.64371428571434
1447.84,70.89893809523814
1449.87,66.57636190476195
1451.9,74.3406952380953
1453.93,105.80828571428579
1455.96,105.5958190476191
1457.98,109.31992380952389
1460.01,129.02571904761913
1462.03,148.90121904761915
1464.05,178.08687142857158
1466.07,215.91318095238108
1468.09,236.37800000000018
1470.11,243.4310952380954
1472.13,254.02238095238116
1474.14,269.8161904761906
1476.16,265.61928571428587
1478.17,242.8579523809525
1480.18,222.7202857142858
1482.19,191.10846666666677
1484.2,140.16322857142865
1486.21,122.78714285714294
1488.21,97.834780952381
1490.22,89.49457142857149
1492.22,86.38318571428576
1494.22,70.49851428571431
1496.22,43.07674285714289
1498.22,42.25875238095241
1500.22,48.23300190476195
1502.22,56.854790952380974
1504.21,49.55093095238096
1506.21,26.89113095238096
1508.2,10.016671904761912
1510.19,12.735501428571453
1512.18,23.474795714285722
1514.17,16.233228571428576
1516.16,4.009579999999999
1518.14,-1.3401161904761825
1520.13,0.04032000000002256
1522.11,31.483358095238124
1524.09,44.98829047619049
1526.07,37.31643142857144
1528.05,27.800598095238108
1530.03,18.67853142857144
1532.01,14.902294285714309
1533.98,22.1860342857143
1535.96,37.38680285714288
1537.93,42.314138095238114
1539.9,44.53958095238098
1541.87,37.44431904761906
1543.84,29.409533333333346
1545.81,19.007042857142885
1547.78,29.903914285714325
1549.74,71.33879047619054
1551.7,98.26460952380958
1553.67,96.25343809523814
1555.63,86.35359523809525
1557.59,73.56583333333337
1559.55,66.79576666666674
1561.5,90.61572380952387
1563.46,101.59802380952385
1565.41,94.98173809523814
1567.37,86.19638571428575
1569.32,88.52893809523816
1571.27,105.12305238095244
1573.22,116.69422857142864
1575.17,106.10077142857149
1577.11,104.01032380952387
1579.06,114.28149523809532
1581.0,124.58215238095246
1582.95,142.57986666666676
1584.89,138.75233333333338
1586.83,130.62476190476198
1588.77,129.19795238095247
1590.7,148.56861904761914
1592.64,161.64266666666674
1594.58,169.5164047619049
1596.51,168.09604761904785
1598.44,153.21626190476223
