Raman Shift,Processed Intensity
331.095,62.96603571428563
333.909,33.47918333333324
336.721,26.32454047619043
339.531,27.623890476190486
342.339,7.40349523809523
345.145,-2.9290666666666687
347.949,-16.60796761904765
350.751,-29.247436666666662
353.55,-22.651244761904778
356.348,-10.288764285714286
359.144,-14.437900476190467
361.937,7.767399523809541
364.729,24.860759523809573
367.518,66.71067428571436
370.306,123.32910142857156
373.091,215.87241809523823
375.874,276.30747619047634
378.656,290.9833238095239
381.435,238.86915238095244
384.212,160.41176666666672
386.988,90.7730428571429
389.761,44.497450476190494
392.532,12.416229047619053
395.301,5.2668104761904795
398.068,1.3593828571428657
400.833,-9.613670476190492
403.596,-15.958562857142876
406.358,-35.12299380952383
409.117,-19.791400476190454
411.874,-9.170622380952373
414.629,25.295716190476213
417.382,42.35579380952383
420.133,35.56855809523812
422.882,33.01817142857149
425.629,95.2661857142858
428.374,132.35117142857155
431.117,210.21794761904778
433.858,260.2883523809525
436.597,239.74720952380963
439.334,184.8281380952382
442.069,145.14675238095245
444.802,111.55714761904771
447.533,126.05722857142867
450.262,154.50299523809537
452.989,213.9418285714287
455.714,223.18357142857153
458.438,212.5626476190477
461.159,160.1285285714286
463.878,106.78781904761911
466.595,76.68680476190484
469.31,96.49577142857149
472.024,108.55157619047628
474.735,123.33479047619053
477.444,121.42205714285723
480.152,103.38986666666673
482.857,125.05373333333344
485.561,150.2292761904763
488.262,178.87506666666678
490.962,185.23605714285725
493.659,203.12863809523816
496.355,156.1315095238096
499.048,136.96606666666673
501.74,112.87834761904769
504.43,105.87620952380959
507.118,95.63389047619057
509.804,157.06405714285725
512.488,163.8892857142858
515.17,191.92700952380966
517.85,188.75710476190486
520.528,146.76870952380958
523.204,117.11241904761914
525.878,104.46342380952386
528.551,93.2107238095239
531.221,128.9813857142858
533.89,130.97400952380957
536.556,104.43452857142861
539.221,84.84672380952384
541.883,69.1233095238096
544.544,92.79509523809531
547.203,120.15531904761912
549.86,139.0683714285715
552.515,137.11242857142864
555.168,116.19914285714295
557.819,126.00171428571439
560.469,146.33590476190486
563.116,154.11266666666677
565.761,174.19466666666676
568.405,168.5875714285715
571.047,157.4870952380953
573.687,154.3269523809525
576.324,133.8260476190477
578.96,148.13161904761915
581.594,169.34279047619057
584.227,152.74924285714295
586.857,151.83053333333342
589.485,149.78051904761912
592.112,120.50653333333342
594.737,121.58238571428578
597.359,124.58155238095244
599.98,121.02985714285725
602.599,137.50042857142867
605.216,152.56561904761912
607.831,167.0360000000001
610.445,140.57850000000008
613.056,116.33600000000008
615.666,120.35645238095248
618.274,115.78195238095248
620.88,157.4686904761906
623.484,188.1299523809525
626.086,181.14552380952392
628.686,184.37052380952392
631.284,208.66047619047632
633.881,230.58400000000015
636.476,284.6149047619049
639.068,300.94080952380966
641.659,267.84433333333345
644.249,229.75090476190488
646.836,185.89478095238104
649.421,135.03407619047627
652.005,116.26012666666674
654.587,97.6640004761905
657.166,42.24115333333335
659.745,28.939837619047637
662.321,20.516962857142865
664.895,11.539414761904798
667.468,43.859507619047655
670.038,72.99614761904765
672.607,52.08721904761907
675.174,56.41341428571431
677.739,51.06497142857147
680.303,71.65567809523816
682.864,80.70435666666671
685.424,90.87251333333337
687.982,64.15501000000002
690.538,46.7371704761905
693.092,37.994790000000044
695.645,65.11310114285718
698.195,55.0395263809524
700.744,37.054713238095246
703.291,27.582250761904774
705.836,7.0457913333333355
708.38,2.964311142857164
710.921,16.66642923809525
713.461,23.62370380952383
715.999,28.403080952380986
718.535,50.28586190476194
721.069,68.69637142857148
723.602,79.01141428571434
726.133,78.22702380952384
728.662,71.14880952380956
731.189,77.63018571428577
733.714,72.6675428571429
736.238,87.73364285714291
738.759,80.49180000000004
741.279,85.89110476190481
743.798,65.26196666666671
746.314,88.2207047619048
748.829,62.66923809523811
751.342,49.462195238095276
753.853,51.31159047619053
756.362,81.26256190476197
758.869,76.93228571428577
761.375,93.70000476190478
763.879,59.27820952380954
766.381,34.094076190476216
768.882,37.09877619047623
771.38,44.81486190476193
773.877,42.71754285714288
776.372,45.23457619047622
778.866,43.55572380952385
781.357,69.82351904761911
783.847,96.6087952380953
786.335,106.00660000000006
788.821,82.4930047619048
791.306,71.30629047619053
793.789,88.82729523809532
796.27,107.58050476190483
798.749,125.47077142857151
801.227,132.11783333333338
803.702,141.18910476190487
806.176,168.97124285714298
808.649,205.8458380952382
811.119,205.62350476190483
813.588,170.97181428571434
816.055,139.4632476190477
818.521,130.81375714285724
820.984,118.02467619047627
823.446,131.0023380952382
825.906,135.79579047619055
828.365,128.977961904762
830.821,134.97900000000007
833.276,113.80103809523814
835.729,92.35057619047625
838.181,81.72487142857146
840.631,57.21157619047624
843.079,45.09834285714289
845.525,61.054109523809586
847.97,78.46184761904769
850.412,92.46660952380958
852.854,98.78493333333338
855.293,78.8952904761905
857.731,54.65716190476195
860.167,59.59678571428576
862.601,60.716438095238125
865.034,59.018538095238135
867.465,66.02937619047621
869.894,54.27518380952384
872.321,37.61557904761906
874.747,34.48158533333335
877.171,11.970942000000015
879.594,19.41939066666671
882.014,57.020131333333396
884.433,90.6801592380953
886.851,111.83041628571436
889.266,135.4737510476191
891.68,141.94566666666677
894.092,150.20114285714294
896.503,163.67147619047628
898.912,172.69191428571438
901.319,143.5030333333334
903.724,132.29801904761914
906.128,128.2219190476191
908.53,130.8484476190477
910.931,141.51327142857153
913.329,159.5520095238096
915.726,142.0145238095239
918.122,144.85576190476195
920.516,116.64928571428578
922.908,107.49240000000006
925.298,105.76801428571434
927.687,100.90693809523815
930.074,79.95863809523814
932.459,86.25884285714291
934.843,75.47592857142861
937.225,94.13574761904769
939.605,101.24011904761909
941.984,102.83853333333337
944.361,81.12324285714291
946.736,93.47700952380957
949.11,76.5204047619048
951.482,76.92160476190482
953.853,65.110880952381
956.222,85.32766190476197
958.589,82.09730000000008
960.954,123.32593809523817
963.318,130.20527619047627
965.68,121.40318571428577
968.041,116.15896666666673
970.4,117.9973047619048
972.757,77.91930952380957
975.113,72.4020285714286
977.467,43.874845238095254
979.819,28.100420000000028
982.17,19.74613904761906
984.519,28.241092380952413
986.866,35.34766571428575
989.212,71.39952571428579
991.556,84.01608428571436
993.899,125.10233904761913
996.24,121.03936190476198
998.579,117.97007142857149
1000.92,99.46579809523813
1003.25,75.47876476190478
1005.59,28.62787238095241
1007.92,46.15077809523815
1010.25,58.523367619047676
1012.58,90.07852190476198
1014.91,132.86318857142865
1017.24,143.54338095238103
1019.56,128.8327714285715
1021.88,131.87296190476198
1024.2,127.99671428571436
1026.52,130.0124761904763
1028.84,158.77638095238106
1031.16,192.47790476190488
1033.48,217.73471428571443
1035.79,244.92609523809537
1038.1,280.4322857142859
1040.41,291.9657619047621
1042.72,297.33490476190497
1045.03,286.5859523809525
1047.33,258.6692857142859
1049.64,226.8211904761906
1051.94,223.1833809523811
1054.24,229.65864761904774
1056.54,200.05493333333345
1058.84,190.6561047619049
1061.13,189.555542857143
1063.43,164.65577142857154
1065.72,184.71726666666683
1068.01,227.21421904761917
1070.3,215.62076190476205
1072.59,222.41114285714298
1074.87,234.58328571428586
1077.16,217.27780952380965
1079.44,229.7308571428573
1081.72,254.51166666666686
1084.0,270.5232857142859
1086.28,327.52542857142885
1088.56,430.8017619047622
1090.84,572.4452857142861
1093.11,674.8821428571432
1095.38,691.3007142857145
1097.65,639.7945714285717
1099.92,553.170904761905
1102.19,449.0943333333336
1104.46,397.8484761904764
1106.72,351.7164761904764
1108.98,345.839523809524
1111.24,376.54900000000026
1113.5,422.7474285714288
1115.76,476.2424285714289
1118.02,511.46047619047647
1120.28,516.3515714285718
1122.53,519.5810952380955
1124.78,478.4326666666669
1127.03,409.61871428571453
1129.28,366.51828571428587
1131.53,305.22447619047637
1133.77,276.83090476190495
1136.02,239.19333333333353
1138.26,222.88152380952394
1140.5,212.75080952380966
1142.74,222.60871428571443
1144.98,234.88271428571446
1147.22,297.3330952380954
1149.45,298.38719047619065
1151.69,285.5198571428573
1153.92,273.2057142857144
1156.15,216.9673809523811
1158.38,177.32804761904774
1160.61,168.28604761904774
1162.83,160.9358095238096
1165.06,143.27642857142865
1167.28,148.68783809523816
1169.5,123.45498095238102
1171.72,113.86300952380958
1173.94,118.67310476190484
1176.16,122.40864285714292
1178.37,121.2597714285715
1180.58,129.94027809523814
1182.8,106.02131857142861
1185.01,62.55039428571431
1187.22,42.71807190476192
1189.42,30.810018095238128
1191.63,24.064554285714323
1193.84,47.6247685714286
1196.04,51.53865000000002
1198.24,48.80670000000004
1200.44,49.9057166666667
1202.64,61.36020000000002
1204.84,49.64707142857145
1207.03,55.624328571428606
1209.23,45.340590476190506
1211.42,43.987357142857164
1213.61,41.661028571428595
1215.8,46.83899047619051
1217.99,35.37964761904764
1220.18,36.23675238095239
1222.36,24.364185714285725
1224.55,28.001547619047656
1226.73,34.38857619047622
1228.91,47.05078095238098
1231.09,49.08525714285719
1233.27,81.9698952380953
1235.44,95.23056666666672
1237.62,114.25034285714293
1239.79,121.26916190476197
1241.96,122.57496190476199
1244.13,123.07504761904768
1246.3,126.19985714285718
1248.47,105.8092285714286
1250.64,102.09583809523818
1252.8,120.34760952380961
1254.96,144.99568571428583
1257.13,178.75725714285727
1259.29,206.06314285714296
1261.44,206.5831904761906
1263.6,229.605523809524
1265.76,239.56109523809536
1267.91,231.31009523809536
1270.06,208.56942857142866
1272.22,179.34200000000007
1274.37,146.44019047619057
1276.51,164.24795238095248
1278.66,167.10109523809533
1280.81,178.62190476190486
1282.95,164.52740952380958
1285.09,130.91607142857148
1287.23,105.1239333333334
1289.37,101.48727142857149
1291.51,92.48541904761912
1293.65,103.16863333333339
1295.78,105.39713809523816
1297.92,106.17406666666672
1300.05,91.50225238095244
1302.18,89.62241904761912
1304.31,83.82368095238101
1306.44,95.82285714285723
1308.57,110.9088380952382
1310.69,143.70349523809534
1312.82,163.87640952380963
1314.94,168.4776000000001
1317.06,142.03395238095246
1319.18,137.69090476190485
1321.3,132.5944285714287
1323.41,179.12790476190492
1325.53,233.7228095238097
1327.64,287.8577142857145
1329.75,324.5352857142859
1331.87,335.2340000000002
1333.98,300.0997142857144
1336.08,278.51523809523826
1338.19,250.7213333333335
1340.3,243.05347619047637
1342.4,234.65680952380964
1344.5,205.0574761904763
1346.6,165.35280952380964
1348.7,144.06841904761913
1350.8,124.01606666666673
1352.9,100.67360476190481
1354.99,86.80497142857148
1357.09,77.07869047619053
1359.18,94.06740000000008
1361.27,119.7729714285715
1363.36,115.10166666666672
1365.45,101.76901428571435
1367.54,119.06234285714295
1369.62,138.60162380952391
1371.7,169.29266666666678
1373.79,197.04140952380965
1375.87,192.94419047619058
1377.95,202.66800000000012
1380.03,226.11880952380963
1382.1,224.34429523809538
1384.18,192.20222380952387
1386.25,151.40727619047627
1388.33,110.95983809523815
1390.4,76.09779047619053
1392.47,84.4403714285715
1394.54,80.93963333333338
1396.6,78.40491428571433
1398.67,66.59767142857146
1400.74,63.70781904761908
1402.8,52.877500000000055
1404.86,64.62961428571433
1406.92,60.15371904761908
1408.98,53.543890476190484
1411.04,36.132176190476216
1413.09,37.440966666666704
1415.15,50.99246666666671
1417.2,75.83234285714292
1419.25,96.57793333333339
1421.3,92.27479047619052
1423.35,72.53979047619052
1425.4,63.51344285714289
1427.45,62.145657142857196
1429.49,79.29082857142862
1431.54,92.80363809523814
1433.58,100.49074761904767
1435.62,92.63500952380956
1437.66,68.13820476190479
1439.7,57.75918571428574
1441.74,46.018614285714314
1443.77,54.10377247619053
1445.81,53.20185795238097
1447.84,48.30957780952383
1449.87,47.042627285714325
1451.9,50.016620666666704
1453.93,61.6566722380953
1455.96,84.48326771428576
1457.98,97.39733333333339
1460.01,116.72899523809534
1462.03,152.14126666666675
1464.05,145.0593333333334
1466.07,165.8127142857144
1468.09,225.25547619047637
1470.11,274.0978571428573
1472.13,306.4799523809525
1474.14,300.39790476190495
1476.16,277.32471428571444
1478.17,259.4473333333335
1480.18,251.2388095238096
1482.19,214.60040952380962
1484.2,170.71981428571434
1486.21,97.78407619047626
1488.21,79.4570190476191
1490.22,71.21203333333337
1492.22,60.427100000000046
1494.22,62.670957142857176
1496.22,47.75050238095239
1498.22,27.94890000000002
1500.22,24.359021428571452
1502.22,39.502390476190506
1504.21,29.85309285714287
1506.21,43.36150476190478
1508.2,32.835282476190486
1510.19,25.558427476190488
1512.18,16.291304952380962
1514.17,21.88962119047619
1516.16,-0.9336306666666525
1518.14,10.582294333333351
1520.13,29.960164285714306
1522.11,26.199075428571444
1524.09,43.774310095238135
1526.07,61.39954533333336
1528.05,59.16942666666671
1530.03,61.7025028571429
1532.01,51.71261476190477
1533.98,29.342298095238128
1535.96,44.54352714285717
1537.93,45.935302857142894
1539.9,49.94605857142861
1541.87,53.14722285714288
1543.84,55.44342857142861
1545.81,56.69208571428576
1547.78,85.56016190476197
1549.74,107.90476190476198
1551.7,135.9168095238096
1553.67,141.5014095238096
1555.63,125.8017047619048
1557.59,119.91353809523818
1559.55,114.5517714285715
1561.5,120.57404285714296
1563.46,134.9809238095239
1565.41,132.91594285714294
1567.37,128.8084380952382
1569.32,146.89734285714295
1571.27,129.23090476190484
1573.22,119.42914285714293
1575.17,114.73090476190482
1577.11,107.3275714285715
1579.06,114.31538095238102
1581.0,116.02895238095246
1582.95,116.27842857142866
1584.89,124.30323809523819
1586.83,143.24733333333344
1588.77,144.96871428571436
1590.7,152.23023809523818
1592.64,155.74757142857152
1594.58,161.06916666666666
1596.51,156.45845238095237
1598.44,134.91676190476193
