Raman Shift,Processed Intensity
331.095,94.10284191766368
333.909,98.53183331801938
336.721,105.68047625255531
339.531,122.38211346137632
342.339,167.68439221240715
345.145,235.2540356129275
347.949,245.66256630203407
350.751,255.9101253812205
353.55,276.7588151544742
356.348,274.87556567790944
359.144,266.5940489284385
361.937,271.62897392483865
364.729,232.88561994404154
367.518,205.36460783268558
370.306,228.6857189376874
373.091,323.80219022732035
375.874,434.0007236979982
378.656,487.0443529239187
381.435,439.79150008290117
384.212,307.7197948869898
386.988,154.59275065590055
389.761,55.93596419999449
392.532,32.75141094135142
395.301,-0.3873075841993341
398.068,6.903140917811015
400.833,0.7205908120317872
403.596,0.9726259958652008
406.358,-27.67102907069284
409.117,-55.9213563538101
411.874,-102.25098636692428
414.629,-74.75133400430877
417.382,-30.513550929541907
420.133,27.561936338542637
422.882,70.67016389040418
425.629,113.91112587041653
428.374,206.90879700348978
431.117,354.62063926445035
433.858,515.3852159297335
436.597,634.2079008671758
439.334,670.998968778184
442.069,662.5259711541858
444.802,651.2232550902158
447.533,634.6681487651681
450.262,644.1047659696796
452.989,691.253524919719
455.714,696.0730480225698
458.438,679.9030140237569
461.159,639.0355815825515
463.878,587.429669990317
466.595,523.7585732222055
469.31,481.838526369791
472.024,442.6763196927586
474.735,420.70738886106346
477.444,456.79580995899323
480.152,473.3295325844924
482.857,488.55370818655865
485.561,494.3802088788502
488.262,521.9114319675518
490.962,557.2974378125973
493.659,606.0692781650705
496.355,624.5675625998515
499.048,643.7519773292183
501.74,682.2012802069107
504.43,749.9228195417159
507.118,839.8287195777357
509.804,936.9263516889218
512.488,1073.8897579545783
515.17,1208.9167890205754
517.85,1347.2052895796073
520.528,1432.572140994303
523.204,1501.500875348926
525.878,1503.9035752153477
528.551,1531.8827734190336
531.221,1553.636209947888
533.89,1605.0758745753715
536.556,1621.828001864595
539.221,1637.4711614104936
541.883,1616.8695861772476
544.544,1623.411262740447
547.203,1594.198402481656
549.86,1606.9045794496333
552.515,1631.631868221556
555.168,1670.767981764246
557.819,1739.0338854858833
560.469,1823.4837922400948
563.116,1917.5527763776659
565.761,2059.247244941092
568.405,2188.4306469543794
571.047,2326.1091827128394
573.687,2440.9556083109724
576.324,2531.404468741791
578.96,2640.128283377087
581.594,2717.6089695429387
584.227,2717.852123238086
586.857,2685.5774903284787
589.485,2620.314199646608
592.112,2473.4959960908313
594.737,2312.699330867549
597.359,2116.9766898286284
599.98,1942.428017046912
602.599,1809.4388050583975
605.216,1724.2991374853705
607.831,1612.7751126119092
610.445,1553.5850288641545
613.056,1555.9231893381875
615.666,1661.793230137443
618.274,1842.6271629958483
620.88,2085.2377512342796
623.484,2358.48517143133
626.086,2634.562722713095
628.686,2881.2825360429715
631.284,3086.075569225746
633.881,3164.9439828640384
636.476,3078.984944886193
639.068,2879.009673169388
641.659,2612.829144829431
644.249,2265.158853129592
646.836,1905.3330881989682
649.421,1533.1620748936962
652.005,1173.5510154200738
654.587,858.7857986243489
657.166,668.1044235682302
659.745,520.3636611996317
662.321,416.61047792818545
664.895,310.32012586741257
667.468,251.96756641022694
670.038,161.9322271377696
672.607,131.64085396633982
675.174,114.75798234194508
677.739,107.6145036729522
680.303,74.01718414368861
682.864,97.43913590899228
685.424,60.019812098297734
687.982,53.27929511127422
690.538,37.023061103956934
693.092,9.675322052869433
695.645,4.279039947206911
698.195,16.019754367313908
700.744,-8.869636507872201
703.291,13.367334141167248
705.836,20.10596111701625
708.38,38.34038748908688
710.921,69.63600721319244
713.461,91.79615550361996
715.999,130.67165634806224
718.535,178.77989383207614
721.069,200.876264415921
723.602,207.2399149256844
726.133,176.72138530631628
728.662,122.2188228032287
731.189,64.3446723343709
733.714,36.04474781468525
736.238,13.264922528181614
738.759,5.427343309535445
741.279,19.62093043996765
743.798,-10.589074837825137
746.314,-27.780134233317767
748.829,-24.00572203608317
751.342,-47.12863474372625
753.853,-59.9162082563048
756.362,-36.421251757940354
758.869,-45.98203411782197
761.375,-24.079419508692354
763.879,-13.527340062229996
766.381,-26.948987559519082
768.882,-35.15776702628682
771.38,0.5093687194671475
773.877,28.76334642461825
776.372,58.50582477464195
778.866,91.59109438639643
781.357,108.2070254199466
783.847,113.97030090466978
786.335,134.97403101774262
788.821,177.12108164833353
791.306,226.0764505808479
793.789,337.12440558292656
796.27,479.16847963630426
798.749,612.3028947390899
801.227,751.8601761842451
803.702,881.7921001713876
806.176,960.9077842757324
808.649,992.8736826789409
811.119,934.3564385428276
813.588,871.451450668776
816.055,786.6352496809695
818.521,707.9559694477161
820.984,665.5095327884856
823.446,623.0586943238122
825.906,526.1282738013938
828.365,471.7194370412276
830.821,363.78588164265693
833.276,295.56716554856484
835.729,283.44584513336713
838.181,277.13794662435294
840.631,251.07391371348922
843.079,252.82717421684902
845.525,224.2569924483305
847.97,228.2703692124178
850.412,225.2982275112363
852.854,209.29540777540433
855.293,164.35971071393533
857.731,157.82713064032941
860.167,131.89089832247828
862.601,150.26814288018613
865.034,139.58083939697735
867.465,140.83199462714356
869.894,124.21516603612054
872.321,126.49540941230089
874.747,113.24736933598615
877.171,119.52194107690593
879.594,110.60817058698058
882.014,120.98563068355088
884.433,148.94346389927568
886.851,182.43752057012762
889.266,203.09035406624253
891.68,213.90550173706015
894.092,208.17224204693775
896.503,220.94178028219721
898.912,228.02724378198263
901.319,262.67034383578357
903.724,265.7318471047688
906.128,265.2153803764568
908.53,228.45790198605346
910.931,239.32017323778518
913.329,237.281991730993
915.726,260.7755199243252
918.122,234.42337560469332
920.516,205.0862461657448
922.908,147.95812193397023
925.298,142.70914854241664
927.687,161.72371739964683
930.074,207.05284187298503
932.459,213.3665334717598
934.843,216.95379707816937
937.225,220.81786427338102
939.605,229.19999809220508
941.984,246.62710730157733
944.361,260.10221782190683
946.736,242.15208700555968
949.11,221.49386553439763
951.482,223.225568841126
953.853,219.92131043540394
956.222,204.25034475375833
958.589,177.21515762855415
960.954,171.8657472331456
963.318,187.2520002651254
965.68,201.85225860576656
968.041,206.09712407470033
970.4,154.60754889887676
972.757,90.385307133904
975.113,62.051085133007746
977.467,42.939714873131834
979.819,22.290645376275734
982.17,21.10508079749934
984.519,21.47930898911136
986.866,17.128508546742978
989.212,45.67246278629182
991.556,67.87365687391593
993.899,91.54204338672025
996.24,103.915998349637
998.579,118.4718487008704
1000.92,80.97149499543866
1003.25,63.79574839443649
1005.59,69.89671527334076
1007.92,87.0358961160423
1010.25,69.40323678981804
1012.58,49.47427505840869
1014.91,37.200620428420734
1017.24,47.81948161479113
1019.56,62.61557495861871
1021.88,61.58779474976609
1024.2,60.40159783516674
1026.52,68.05567394142554
1028.84,100.78671123551203
1031.16,128.8789237902165
1033.48,151.85453143055884
1035.79,148.75947767543607
1038.1,166.78248101260056
1040.41,163.01694331649446
1042.72,168.03238207561208
1045.03,141.92205309604924
1047.33,157.73152558600646
1049.64,175.07773343077338
1051.94,198.0061217058019
1054.24,207.60969795168444
1056.54,196.0290358300906
1058.84,181.07132639874885
1061.13,156.6865722435714
1063.43,137.49140065840015
1065.72,156.1024006342725
1068.01,175.65993603917468
1070.3,163.97100641683573
1072.59,205.50925064266676
1074.87,211.98637915113113
1077.16,240.9712252107372
1079.44,274.31832000854774
1081.72,309.31075344898795
1084.0,320.89827304787445
1086.28,376.6972875883632
1088.56,462.99087077689046
1090.84,592.0620982324438
1093.11,675.7654797139319
1095.38,706.7174389666066
1097.65,658.2010792827625
1099.92,590.118568110061
1102.19,491.18161689794465
1104.46,432.34005618214974
1106.72,417.5913630501693
1108.98,415.74256955910005
1111.24,454.50550448681565
1113.5,526.734892225998
1115.76,601.0474040591257
1118.02,679.2978522906039
1120.28,731.5791939027031
1122.53,730.0796770686443
1124.78,708.6542733799656
1127.03,659.6818243596069
1129.28,608.4459974987958
1131.53,555.8019565796544
1133.77,501.60493675971225
1136.02,480.23405775165406
1138.26,493.68756557450274
1140.5,550.6304552571748
1142.74,632.0611411610857
1144.98,691.4543177789501
1147.22,723.4752491050092
1149.45,723.694058005251
1151.69,695.7285870162075
1153.92,633.3396400961358
1156.15,560.2405100904791
1158.38,464.4303157211457
1160.61,362.3368623853039
1162.83,291.00712200179464
1165.06,258.2500938099329
1167.28,215.97014135877725
1169.5,180.50032949640786
1171.72,156.74528516872192
1173.94,118.13358202775794
1176.16,100.855839325734
1178.37,100.34091604718151
1180.58,87.25591456489155
1182.8,57.88713667680531
1185.01,4.473420595295238
1187.22,-56.174807777841124
1189.42,-60.580293100200834
1191.63,-29.170375036875157
1193.84,10.15158072258464
1196.04,30.19664902863633
1198.24,23.442713307794975
1200.44,26.79635848289513
1202.64,58.87857652150592
1204.84,84.83428396198087
1207.03,117.80850891176146
1209.23,120.0416256647236
1211.42,157.8217321756713
1213.61,214.24655134434852
1215.8,250.0805703946928
1217.99,296.94551358742115
1220.18,330.3203387421329
1222.36,318.3507575689448
1224.55,306.37304171441383
1226.73,285.5806859503084
1228.91,242.2624999338193
1231.09,257.4692713963309
1233.27,258.2994769512534
1235.44,274.4707071875571
1237.62,307.9387108109322
1239.79,374.5640578325649
1241.96,464.7311837102916
1244.13,575.0626715849892
1246.3,717.7525821360175
1248.47,868.9950215318977
1250.64,1056.1746141428948
1252.8,1313.1998323964617
1254.96,1645.3125171088634
1257.13,1959.8021597215686
1259.29,2305.243994061445
1261.44,2564.8323261962028
1263.6,2654.3805309564964
1265.76,2624.749619886611
1267.91,2510.8482377665664
1270.06,2290.632659134233
1272.22,2030.1067848074267
1274.37,1805.560233644118
1276.51,1557.139767635964
1278.66,1342.8492884304212
1280.81,1195.2641195671367
1282.95,1034.6262410952995
1285.09,871.939524190981
1287.23,757.5887752982885
1289.37,702.0540183657567
1291.51,745.3866818446481
1293.65,778.9714999729672
1295.78,832.7169854880503
1297.92,898.5316166248672
1300.05,942.9905003047998
1302.18,1034.8115591339442
1304.31,1195.8079088776017
1306.44,1297.5069026014385
1308.57,1446.8644129078793
1310.69,1581.4553046487017
1312.82,1683.1877171614333
1314.94,1771.9697274581322
1317.06,1840.3283943665556
1319.18,1922.7430883856114
1321.3,1927.9312024931837
1323.41,1883.3719581920677
1325.53,1757.306402032084
1327.64,1570.2135926083874
1329.75,1378.0963113692978
1331.87,1254.6715353288914
1333.98,1106.9418621605473
1336.08,970.0526495761987
1338.19,822.9586785151223
1340.3,670.0908163327204
1342.4,571.879822846452
1344.5,483.1372992389097
1346.6,406.6747321989824
1348.7,324.4463475868406
1350.8,279.31101171795945
1352.9,234.7465135995335
1354.99,217.4209900240221
1357.09,198.05006494842337
1359.18,202.3968460163951
1361.27,200.4147782232344
1363.36,183.77144996180868
1365.45,144.99144668752888
1367.54,125.3134902976035
1369.62,136.35710231982011
1371.7,158.64640995846776
1373.79,184.18157118787667
1375.87,212.0578188935715
1377.95,237.46545739437988
1380.03,243.83271610739575
1382.1,229.20669845103566
1384.18,196.25337836715016
1386.25,169.40045398598295
1388.33,150.6944870054317
1390.4,134.41994683219832
1392.47,105.09920710391043
1394.54,67.30206602075486
1396.6,42.93145715331275
1398.67,12.366303107527301
1400.74,-13.300385889381232
1402.8,-20.404361268308776
1404.86,-13.662507843276671
1406.92,15.303354367073098
1408.98,69.10933263051902
1411.04,107.99041768242841
1413.09,152.1814415443207
1415.15,214.44089248529053
1417.2,326.9080633167687
1419.25,476.38877111584793
1421.3,632.7363150438516
1423.35,722.5657674982297
1425.4,714.444455740658
1427.45,658.844348287023
1429.49,587.3325365355224
1431.54,433.7617163947464
1433.58,348.3178127689123
1435.62,273.2342707097621
1437.66,239.07777513988663
1439.7,245.51016105223925
1441.74,253.0503237096525
1443.77,217.9313669395924
1445.81,219.43394190510617
1447.84,220.50530016148969
1449.87,239.7116800462809
1451.9,255.52402640259652
1453.93,298.03228173103616
1455.96,372.18348686540367
1457.98,446.21035783889965
1460.01,585.8693865598386
1462.03,753.4408462492763
1464.05,975.2526064024325
1466.07,1234.2515667977439
1468.09,1596.5274724582923
1470.11,1982.7891095656166
1472.13,2404.7452632782833
1474.14,2829.5809136456883
1476.16,3140.8620029504496
1478.17,3314.202107812679
1480.18,3368.548158913325
1482.19,3200.6090178603667
1484.2,2881.42691119785
1486.21,2473.4726739387675
1488.21,1969.6457550026648
1490.22,1525.4170797961413
1492.22,1137.1623889838
1494.22,821.1146248782609
1496.22,599.5067940206422
1498.22,425.52435357057516
1500.22,304.8290262676421
1502.22,243.17785348805796
1504.21,185.37558163468293
1506.21,155.0841913841707
1508.2,135.48956979127138
1510.19,106.82532525026977
1512.18,86.75374531357056
1514.17,46.93723070075794
1516.16,6.324015021945797
1518.14,3.5767416439794033
1520.13,-12.022768967168759
1522.11,-5.192561427819555
1524.09,10.778031429615112
1526.07,6.028392781327739
1528.05,-13.778135867956053
1530.03,-14.930440936468813
1532.01,-39.62201349308475
1533.98,-18.093803577856534
1535.96,1.1753049047501918
1537.93,52.89706267769566
1539.9,44.830993147390245
1541.87,43.87962569781371
1543.84,30.231348032248206
1545.81,60.55087756263106
1547.78,60.645923275097175
1549.74,124.22908569076253
1551.7,144.6321377788911
1553.67,197.80602015576778
1555.63,231.74940771214665
1557.59,282.31822862165404
1559.55,314.0351833491884
1561.5,387.23259699266055
1563.46,397.7190811485375
1565.41,413.112862444063
1567.37,396.7465396409002
1569.32,339.571840738781
1571.27,297.4453324601102
1573.22,244.12841544885669
1575.17,189.38255756467765
1577.11,170.6359557484716
1579.06,152.4597216974546
1581.0,135.52025801642503
1582.95,151.29353913093314
1584.89,127.82701124807045
1586.83,122.78720660297199
1588.77,110.2216434196007
1590.7,78.98739253819485
1592.64,55.46535832843597
1594.58,46.51265484070336
1596.51,44.534029576375815
1598.44,48.02947773432584
