Raman Shift,Processed Intensity
331.095,68.48254897046081
333.909,56.9716645464614
336.721,54.7669059704167
339.531,59.36828008807606
342.339,69.03771219858936
345.145,69.6561957573831
347.949,106.271418269489
350.751,117.12157765907887
353.55,153.30205578184632
356.348,191.146377651693
359.144,206.03574209596263
361.937,216.68474288689504
364.729,243.76042320638635
367.518,221.59656820602095
370.306,234.24133090040687
373.091,300.50485806053575
375.874,364.48310658333276
378.656,426.5102312897707
381.435,402.15859177061475
384.212,274.0959020893092
386.988,146.8471423896226
389.761,76.12789907470778
392.532,12.987228795708688
395.301,2.950522440347413
398.068,1.2099881691547125
400.833,-2.4705798340228284
403.596,-4.374842135330709
406.358,-7.452954700906048
409.117,-65.17870504356733
411.874,-82.97807740953658
414.629,-75.8482949748086
417.382,-30.214965536821637
420.133,18.639333091548906
422.882,51.241695565700866
425.629,65.88124201243909
428.374,108.13290173975565
431.117,171.8097739593445
433.858,273.77263846199
436.597,419.0728104798718
439.334,489.38070983459147
442.069,500.41443008519127
444.802,485.0349743428442
447.533,462.91291965697746
450.262,432.05222425854436
452.989,465.26641575567464
455.714,507.702398376945
458.438,513.5547364051308
461.159,501.3037471347566
463.878,447.0488319248816
466.595,404.41323582331506
469.31,374.54404528608165
472.024,398.77885256354057
474.735,382.78861056270443
477.444,368.43477342383676
480.152,358.7216751922915
482.857,415.84414658557307
485.561,425.520846046124
488.262,459.4704479369657
490.962,494.4592593087741
493.659,541.444074762192
496.355,534.6674122625118
499.048,563.2765584781823
501.74,573.228328405015
504.43,634.2890630856336
507.118,731.7012939956021
509.804,868.0885026676397
512.488,940.9313088872732
515.17,1046.2341350789588
517.85,1140.1442516446004
520.528,1215.9041556353868
523.204,1255.0420446617545
525.878,1327.2289574699976
528.551,1345.3263907093565
531.221,1369.4815347467197
533.89,1381.555842814667
536.556,1375.1726477785564
539.221,1365.5266836655169
541.883,1388.2888452886668
544.544,1401.5585669189668
547.203,1410.9590580999247
549.86,1423.5420632718206
552.515,1430.216430919746
555.168,1457.843349388315
557.819,1488.9030112678042
560.469,1555.8755634945892
563.116,1613.7172955468063
565.761,1651.4320657352728
568.405,1708.1189179705807
571.047,1750.0196985302186
573.687,1821.9476252066352
576.324,1876.0968088362583
578.96,1927.7565367332645
581.594,1918.1207942186056
584.227,1917.57397662519
586.857,1866.5004108269059
589.485,1859.3319720057248
592.112,1791.5957004188226
594.737,1720.9137991180678
597.359,1568.8607745266559
599.98,1461.3920055871686
602.599,1379.8913605286807
605.216,1352.5997660148187
607.831,1358.7580620061008
610.445,1349.1308090032426
613.056,1344.2920000523613
615.666,1407.7679156073273
618.274,1547.6085498206912
620.88,1750.292370167931
623.484,2017.678696119333
626.086,2220.960077811852
628.686,2419.4718175781354
631.284,2517.2157771898305
633.881,2568.3841851008974
636.476,2512.5977294051972
639.068,2406.905555555994
641.659,2176.690025990219
644.249,1916.3810035622537
646.836,1595.3606111682006
649.421,1292.963229465383
652.005,1009.9993041156636
654.587,797.5172482668386
657.166,621.8986783673777
659.745,485.7155547430598
662.321,400.8254174117101
664.895,330.9428123741304
667.468,259.30595600026027
670.038,199.39101846297035
672.607,171.91212145756117
675.174,156.48800258793244
677.739,159.54677499084664
680.303,140.80211553161735
682.864,71.15802442836912
685.424,26.756442019154747
687.982,4.215341719551816
690.538,15.533496857849514
693.092,0.4714409306870948
695.645,10.31338072057406
698.195,-18.513746019245445
700.744,-4.05930806502829
703.291,10.484363852460774
705.836,43.1629385503843
708.38,38.450569259676286
710.921,72.2499034062539
713.461,66.41590191602882
715.999,115.04156328182626
718.535,132.07698096363447
721.069,142.71030555075686
723.602,139.2248974001568
726.133,117.42790784623594
728.662,64.45981279156831
731.189,55.08013677381541
733.714,14.810319889794755
736.238,-5.256748613790023
738.759,-13.98053008295119
741.279,-18.02996953235197
743.798,-12.550152530759533
746.314,-9.06705732460432
748.829,-11.48754505675197
751.342,-27.670778556730056
753.853,-49.61868874998754
756.362,-37.23786963859402
758.869,-11.10147605350221
761.375,-10.925412308547948
763.879,-1.1397627282603935
766.381,-1.0316507471011391
768.882,-10.269050389658332
771.38,-4.329359655600456
773.877,9.595835619172249
776.372,15.267426472816624
778.866,23.35115981353829
781.357,37.370017415596976
783.847,40.5613568200647
786.335,57.734052235595755
788.821,115.64944496300313
791.306,174.16419858173822
793.789,262.18267794589883
796.27,368.1331377040465
798.749,471.6343870095011
801.227,583.5434066115799
803.702,700.4315373754152
806.176,761.8225735636697
808.649,771.6213323087359
811.119,749.494604037312
813.588,699.7759124187869
816.055,622.3702743136328
818.521,583.2303882932242
820.984,507.309013635846
823.446,420.8923017036568
825.906,347.3140797005999
828.365,317.47965823984396
830.821,258.0086865302778
833.276,219.85419803919103
835.729,190.87403710733452
838.181,182.35466651636625
840.631,160.86830838962214
843.079,168.51103747384923
845.525,160.85516013522238
847.97,127.6634981172615
850.412,117.69891039399545
852.854,128.4861959755076
855.293,97.07399671348139
857.731,88.98717629722478
860.167,88.22681829730618
862.601,63.50831944728998
865.034,52.35662578260826
867.465,56.391944969914675
869.894,18.710696731669486
872.321,30.361701365970475
874.747,52.39379683780908
877.171,62.76059872746737
879.594,78.46335541701455
882.014,93.69380327680483
884.433,96.215117090067
886.851,127.2190509536872
889.266,162.23069822660636
891.68,172.6799181448887
894.092,166.853714817737
896.503,163.6105209854145
898.912,136.85638653907154
901.319,137.54497656438616
903.724,150.05852176615463
906.128,184.06495936907595
908.53,200.80364544709573
910.931,218.9901148718095
913.329,220.33988887990245
915.726,224.04466359297476
918.122,226.86754615641166
920.516,234.14305278301617
922.908,231.68186870141471
925.298,223.1517985806363
927.687,243.74443124041545
930.074,235.3179948376801
932.459,223.06402157684806
934.843,194.3168695629829
937.225,203.4108637025679
939.605,197.20410327094714
941.984,242.17369805119415
944.361,262.1776711396501
946.736,259.74067127527314
949.11,234.29206612136886
951.482,200.35641649969875
953.853,160.22014110077498
956.222,165.883895479873
958.589,174.34828438637533
960.954,172.75671695026676
963.318,154.63349996385978
965.68,139.40764544923832
968.041,127.4128687018956
970.4,139.64949109627105
972.757,108.45110479605
975.113,85.77028508351623
977.467,68.70239792699113
979.819,46.53321707209034
982.17,24.69130303773227
984.519,13.414667826436471
986.866,-9.725417508235296
989.212,11.318434887183685
991.556,64.78401741238531
993.899,110.57571843552569
996.24,146.21690540009422
998.579,147.5642126936914
1000.92,120.14087713585195
1003.25,88.80340679920027
1005.59,76.02729744965882
1007.92,99.09751089141173
1010.25,108.39419140710879
1012.58,105.72600124569226
1014.91,95.23488468165033
1017.24,91.77702255046188
1019.56,103.2561677364206
1021.88,90.76650446997746
1024.2,61.73550762508739
1026.52,50.35251630227776
1028.84,55.90206931647299
1031.16,117.38295497053878
1033.48,185.07964178120346
1035.79,210.32418539545597
1038.1,218.25813550693965
1040.41,213.30872848663512
1042.72,174.4269847754531
1045.03,162.99247294348334
1047.33,146.28950232068337
1049.64,171.12617277042227
1051.94,196.16771017730048
1054.24,222.07932574450388
1056.54,233.57383719590916
1058.84,235.31643283533413
1061.13,222.35324512959915
1063.43,231.30182905349307
1065.72,214.44640233949826
1068.01,196.1664190608535
1070.3,205.03180988128133
1072.59,211.1363175428171
1074.87,230.28797521077354
1077.16,260.7710133901353
1079.44,290.6315763657624
1081.72,297.53486721402373
1084.0,336.90800710015037
1086.28,374.41622790891347
1088.56,454.10573154199096
1090.84,551.0227396915061
1093.11,626.1182578992923
1095.38,642.2480777113981
1097.65,599.7918264516311
1099.92,540.6529693760576
1102.19,463.83024039892916
1104.46,401.179549009089
1106.72,352.1758871863665
1108.98,372.86571250846464
1111.24,402.05742649593026
1113.5,477.32137676665843
1115.76,526.6089068094343
1118.02,580.3475962336724
1120.28,600.7269772096231
1122.53,620.8413937657253
1124.78,576.26143251453
1127.03,509.6053533786253
1129.28,444.92004412609094
1131.53,418.8238796678568
1133.77,400.4114861169671
1136.02,398.44421913356405
1138.26,377.9692136984331
1140.5,394.1289100770284
1142.74,436.5896274025479
1144.98,497.5891848780525
1147.22,551.2702372643091
1149.45,576.0612294152497
1151.69,551.3430650991411
1153.92,501.5919662959486
1156.15,439.18899916137025
1158.38,357.70579046705257
1160.61,293.8569107074791
1162.83,238.97606673066434
1165.06,204.0161038926624
1167.28,161.59662725970202
1169.5,162.3849561436457
1171.72,150.85803101840747
1173.94,123.25479662684324
1176.16,72.81429937336043
1178.37,40.20426090699766
1180.58,1.8067945616487577
1182.8,-1.4244496322860414
1185.01,-3.4404732695816165
1187.22,0.7125965762422766
1189.42,-16.01125236005055
1191.63,-15.467439505988523
1193.84,-18.939837158877936
1196.04,-13.902675031282115
1198.24,-16.211017865210124
1200.44,3.756373972349593
1202.64,8.430372892250034
1204.84,32.86100122521293
1207.03,21.09837732225742
1209.23,31.621281565454865
1211.42,48.28953190248694
1213.61,70.67731387816139
1215.8,87.69222495163376
1217.99,124.00384262316174
1220.18,116.56753065610064
1222.36,138.24348339413382
1224.55,166.74910341183795
1226.73,176.80185535572764
1228.91,173.83354835672208
1231.09,151.46652320451904
1233.27,126.98983952197477
1235.44,154.59736770138124
1237.62,160.57826179312997
1239.79,185.93600382294335
1241.96,249.38840049006558
1244.13,328.60567510354576
1246.3,434.30570237566735
1248.47,594.5397194058496
1250.64,750.7875604740698
1252.8,944.148129929526
1254.96,1139.6727322221545
1257.13,1362.3174495531916
1259.29,1601.6574242876413
1261.44,1812.4106651762718
1263.6,1946.8666154823613
1265.76,1963.362340156073
1267.91,1859.1872844373988
1270.06,1709.2975562686224
1272.22,1531.9825896591747
1274.37,1328.246093764773
1276.51,1139.187001966557
1278.66,974.9994685692759
1280.81,861.8776274042325
1282.95,794.7774932893685
1285.09,733.2264825369739
1287.23,662.1329334613911
1289.37,629.8337221248134
1291.51,597.8085447497497
1293.65,583.0608667981542
1295.78,603.4988720505571
1297.92,639.0306973994861
1300.05,677.3263343095446
1302.18,752.3414350394028
1304.31,820.2696902923567
1306.44,881.1618735335551
1308.57,957.3067900691299
1310.69,1019.6598451729546
1312.82,1092.6525645943516
1314.94,1156.6687817324582
1317.06,1237.9970152867872
1319.18,1307.7828469077872
1321.3,1349.2193940854872
1323.41,1305.213973514346
1325.53,1235.8166692199984
1327.64,1099.98223401933
1329.75,991.2843719329417
1331.87,864.7728777404664
1333.98,783.7831574882607
1336.08,667.4600347113892
1338.19,605.3291757032275
1340.3,510.15422907078073
1342.4,438.0796795757128
1344.5,338.6308448325208
1346.6,298.6186339114638
1348.7,225.90144879865193
1350.8,210.76613347517332
1352.9,178.21368490098394
1354.99,179.57829733213885
1357.09,167.09878759039157
1359.18,150.20430604708827
1361.27,135.27623808324552
1363.36,121.31486745439224
1365.45,112.22508727445756
1367.54,126.24496814252143
1369.62,119.66004055527083
1371.7,157.04138684327154
1373.79,195.1980188215266
1375.87,206.0340173447953
1377.95,207.88186233910528
1380.03,187.1214771189716
1382.1,168.84689175224185
1384.18,180.34243023445833
1386.25,139.4636595679881
1388.33,88.3516721744777
1390.4,55.76641592636361
1392.47,44.562881321235636
1394.54,39.45300294191111
1396.6,32.76756091651896
1398.67,14.31332497886524
1400.74,1.1349644481842915
1402.8,-20.770657471190134
1404.86,-14.787806914448538
1406.92,-13.158059600082652
1408.98,11.591135612166909
1411.04,64.02741531951096
1413.09,147.0992206189767
1415.15,209.51675546090837
1417.2,275.6567545262776
1419.25,362.9910606278074
1421.3,430.80091639681245
1423.35,473.3674464462215
1425.4,460.73356810503583
1427.45,434.18018786707535
1429.49,360.32144545876713
1431.54,313.77138647836773
1433.58,248.62015884470793
1435.62,215.43401876974235
1437.66,158.35057482633897
1439.7,159.7454605875007
1441.74,158.61329297986822
1443.77,173.9962496848475
1445.81,173.79359892068578
1447.84,165.52361017692988
1449.87,153.46641732983335
1451.9,174.56878651966804
1453.93,232.68221736137457
1455.96,319.46771082187684
1457.98,391.4433942402527
1460.01,430.4130987288602
1462.03,506.2282699077932
1464.05,616.073688163144
1466.07,823.2769984290837
1468.09,1115.737287588985
1470.11,1464.448899971789
1472.13,1826.358586181699
1474.14,2182.0321757374
1476.16,2457.08315447318
1478.17,2643.6488609876737
1480.18,2677.438111664035
1482.19,2572.731206642485
1484.2,2340.5704119833454
1486.21,2014.7123465919706
1488.21,1618.7708453341559
1490.22,1240.4074411991685
1492.22,914.3789903199222
1494.22,646.7757731836257
1496.22,475.97388155671433
1498.22,355.2066530288314
1500.22,245.94562936633497
1502.22,159.28151486579736
1504.21,109.40037280274896
1506.21,67.7264885470845
1508.2,32.9223755356104
1510.19,-2.6350282792122925
1512.18,-30.949592551954538
1514.17,-26.97741714310041
1516.16,-30.912540697771192
1518.14,2.4321093653557
1520.13,18.053287807427978
1522.11,2.9479039692121205
1524.09,-5.553648686253837
1526.07,2.926789349944329
1528.05,5.481806803481504
1530.03,23.775560411985452
1532.01,38.424723537323416
1533.98,24.665149063605668
1535.96,16.351865628516407
1537.93,9.720978616559478
1539.9,21.53252353325024
1541.87,43.64189080788492
1543.84,67.2379172629685
1545.81,98.93812044079391
1547.78,107.12202816811009
1549.74,122.59784145412459
1551.7,135.88814500755802
1553.67,172.4679987060788
1555.63,184.52683858954765
1557.59,228.34942547230844
1559.55,244.553936412623
1561.5,277.5205323725738
1563.46,312.91516397320925
1565.41,312.3562343925407
1567.37,290.12888131116074
1569.32,264.1373540959544
1571.27,216.1907243171479
1573.22,175.4790724558261
1575.17,149.09729365907788
1577.11,114.4736653999073
1579.06,107.36984370857476
1581.0,119.02371654679405
1582.95,113.05416194383793
1584.89,116.69913946597558
1586.83,93.00616263829056
1588.77,84.92753327125638
1590.7,92.12986150160395
1592.64,107.75596678556371
1594.58,104.21058841592026
1596.51,82.63657222954384
1598.44,37.70058112443735
