Raman Shift,Processed Intensity
331.095,57.908028676851245
333.909,29.362574380627848
336.721,33.192289046446604
339.531,52.563845113374555
342.339,42.001069422423825
345.145,86.00399660799485
347.949,101.33458915596839
350.751,138.8976955570488
353.55,180.02677036486602
356.348,226.38864187313266
359.144,241.84066074517978
361.937,263.57356292921304
364.729,273.39718971642014
367.518,310.07382684671484
370.306,367.41344837637916
373.091,449.7975319742786
375.874,511.1314456466557
378.656,485.034929700023
381.435,429.7468644183323
384.212,365.5062282163499
386.988,262.2663891263478
389.761,161.88558676099456
392.532,48.36503332386974
395.301,-38.24631871336851
398.068,-29.232723219502986
400.833,-0.6402060599161814
403.596,-1.4194208425310535
406.358,11.907682534222204
409.117,-0.8950012098034676
411.874,-27.158687215040572
414.629,10.30934625348118
417.382,42.98766159030674
420.133,58.640657810691664
422.882,144.6995199541334
425.629,220.92888277362226
428.374,299.188732520136
431.117,408.33916586997475
433.858,491.1451488521029
436.597,568.3241329183411
439.334,622.0698614897401
442.069,630.1476050743981
444.802,624.0846344805045
447.533,586.5035511722508
450.262,559.8841890543208
452.989,594.7540876849343
455.714,633.9265845365244
458.438,653.7865263040153
461.159,641.8140754512119
463.878,574.5370881857366
466.595,557.5787305292247
469.31,525.8003324827514
472.024,518.063289811319
474.735,513.8481086854704
477.444,528.825831275291
480.152,522.0961280110619
482.857,553.3777707963127
485.561,542.2943443161025
488.262,566.1361478214949
490.962,618.6220969140418
493.659,683.8044824731078
496.355,683.8308724403478
499.048,684.086965985131
501.74,726.2442095747365
504.43,818.4978892350159
507.118,921.757603763439
509.804,1050.504404608807
512.488,1166.314602417633
515.17,1231.574049770998
517.85,1303.5257572547448
520.528,1402.3175095296724
523.204,1444.763767116025
525.878,1525.5361396065364
528.551,1603.5919541175767
531.221,1606.8885380260072
533.89,1609.1927398012772
536.556,1635.0809260280012
539.221,1591.8437403332832
541.883,1585.7718146950137
544.544,1563.965290273954
547.203,1559.5242906267827
549.86,1556.0727282524686
552.515,1566.3297301862522
555.168,1610.204873117449
557.819,1668.4172280310545
560.469,1754.2096429445796
563.116,1841.5392161210748
565.761,1886.8868169011957
568.405,1957.1142255829072
571.047,2049.654606634504
573.687,2103.0839342885934
576.324,2146.406703850366
578.96,2163.9606906249196
581.594,2180.1788517017058
584.227,2217.8274182151827
586.857,2188.958273319741
589.485,2142.1470444503616
592.112,2032.0645289165786
594.737,1892.7147861631252
597.359,1747.911325268677
599.98,1665.8961495874432
602.599,1590.006420438377
605.216,1532.3411207943977
607.831,1464.5705761144477
610.445,1449.7459751755623
613.056,1446.9660337620794
615.666,1603.0912774024696
618.274,1812.9821336299729
620.88,2029.0703575765751
623.484,2270.93045756699
626.086,2524.374930236445
628.686,2720.930448029418
631.284,2882.0283324126676
633.881,2934.8140747073016
636.476,2862.8616188256206
639.068,2707.030501150811
641.659,2474.4182285119
644.249,2193.122179968206
646.836,1848.1443657366585
649.421,1500.1057099286386
652.005,1187.5317618582462
654.587,940.2812644934352
657.166,745.927103859523
659.745,584.1848774903265
662.321,461.86527240310625
664.895,371.01691926398144
667.468,317.64067512478414
670.038,261.4515252075312
672.607,212.4023894507941
675.174,166.87459572275793
677.739,136.77311493901652
680.303,103.14560570419371
682.864,71.37288752498944
685.424,36.88322354703223
687.982,22.34279376792574
690.538,37.703311107440186
693.092,48.34487927629925
695.645,51.21885297510562
698.195,43.18117807782619
700.744,41.420969910526765
703.291,20.984329625336613
705.836,11.202922479179051
708.38,27.170179326764355
710.921,55.55083367178622
713.461,102.53331708047926
715.999,151.02025268314674
718.535,160.29513915188454
721.069,148.927129916397
723.602,135.96152666552734
726.133,127.30074903926652
728.662,116.13292336838413
731.189,111.64618569975755
733.714,82.64774672648173
736.238,60.42105195606882
738.759,36.5829418786484
741.279,11.65509784945425
743.798,-27.93594060011992
746.314,-29.57304032411048
748.829,-35.543690200966466
751.342,-32.56379165102271
753.853,-7.39669092127906
756.362,-16.23412061683348
758.869,-17.077145315926828
761.375,-10.164727105349812
763.879,-17.307054980172325
766.381,-31.07601916795602
768.882,-41.75759142550805
771.38,-48.828016958572334
773.877,-23.287153099722673
776.372,12.341519963532846
778.866,22.248977291700612
781.357,50.054914902964356
783.847,54.90296925663688
786.335,75.31784394845454
788.821,94.77672726524906
791.306,133.85214388493296
793.789,166.59290181457254
796.27,259.4764678998913
798.749,395.7899147633434
801.227,549.1537248850391
803.702,646.9979756360667
806.176,687.0385243118099
808.649,712.6103360224047
811.119,682.7627163451107
813.588,666.9735915957185
816.055,655.5304557666336
818.521,604.292269845912
820.984,518.2608849458124
823.446,464.53341781231484
825.906,405.0641501441505
828.365,349.71214219754256
830.821,272.003132105237
833.276,193.5581018621906
835.729,157.2837480731755
838.181,141.27723841466104
840.631,164.87382523955694
843.079,155.8849353724272
845.525,117.69340276183902
847.97,90.3963201803358
850.412,103.75741473393236
852.854,95.34989956208483
855.293,95.4136112519509
857.731,88.95024249073822
860.167,83.0566699561573
862.601,59.25828220686117
865.034,34.36611709671388
867.465,3.0959039509539252
869.894,12.401391456644433
872.321,27.76005650551042
874.747,35.07786098929819
877.171,32.83210513530639
879.594,26.642855069479992
882.014,-1.2508677157411512
884.433,-5.800611179289717
886.851,-0.8627767813277387
889.266,12.46804871378663
891.68,59.049570331184896
894.092,117.59654760154581
896.503,113.96651094043773
898.912,112.2073827895797
901.319,120.50986066285532
903.724,134.2550382875761
906.128,157.68107436478067
908.53,170.02605180573937
910.931,147.00417030178141
913.329,114.37717698936285
915.726,126.09722568657162
918.122,143.35449803438541
920.516,167.57720559031623
922.908,143.43159192205258
925.298,121.91717279634304
927.687,84.12864303453762
930.074,78.25587860623818
932.459,99.82203396103978
934.843,162.77878221741503
937.225,170.60155535159447
939.605,200.67049867216156
941.984,209.22285386607837
944.361,185.82915156852687
946.736,169.53607059940896
949.11,161.86644005698872
951.482,127.10495569725936
953.853,125.15532488473445
956.222,125.06407820990262
958.589,125.7348572971614
960.954,128.5950835651247
963.318,134.21500793932
965.68,136.2600938982141
968.041,134.49101956686354
970.4,109.33510838198845
972.757,106.5053788046639
975.113,76.04816546158554
977.467,45.96216885776812
979.819,32.34131461304605
982.17,3.279517460481202
984.519,-12.224554755238387
986.866,8.494425777757442
989.212,35.19702036073613
991.556,53.548548426811976
993.899,88.16670742148517
996.24,93.14538315937443
998.579,79.10226970476015
1000.92,53.55982258545828
1003.25,44.4690691495548
1005.59,16.352466541189187
1007.92,38.87533110490904
1010.25,56.6553630281237
1012.58,67.02455193594278
1014.91,73.98155867647984
1017.24,72.85838282046097
1019.56,64.89179206558447
1021.88,82.08046592660367
1024.2,94.66118704444762
1026.52,99.1564610667806
1028.84,110.37451748093736
1031.16,128.69502473258035
1033.48,151.64051963006432
1035.79,171.73355103452013
1038.1,186.4014425975538
1040.41,184.881055498945
1042.72,218.3616464224392
1045.03,233.46105886487294
1047.33,230.70191444529655
1049.64,206.8925661188614
1051.94,184.17471805737478
1054.24,161.8329502917568
1056.54,163.58043383068843
1058.84,167.7017886364065
1061.13,150.0530844576274
1063.43,155.204698805333
1065.72,169.58417492856142
1068.01,188.95241312352664
1070.3,209.68938585226715
1072.59,215.55604333748306
1074.87,199.4086001097503
1077.16,196.2461548880774
1079.44,207.6392628414078
1081.72,259.9680316596514
1084.0,329.9459319104185
1086.28,386.23884549100785
1088.56,444.1317331280047
1090.84,497.7191114006896
1093.11,592.2383869073101
1095.38,631.8317618599217
1097.65,626.8319492030332
1099.92,559.285982970353
1102.19,462.4790286415305
1104.46,372.3153363560473
1106.72,362.0325274604411
1108.98,351.2968334364782
1111.24,409.536430067423
1113.5,488.3700096995449
1115.76,565.1782106464796
1118.02,620.3893323078773
1120.28,661.5269550499518
1122.53,654.5432743717445
1124.78,647.7238636428172
1127.03,642.8781511266584
1129.28,581.4822779564772
1131.53,506.2505275395656
1133.77,421.4686597235693
1136.02,359.85105448656304
1138.26,361.0169032461763
1140.5,449.0616382639673
1142.74,489.3188382402643
1144.98,535.2649910518674
1147.22,573.5671136326034
1149.45,595.0827528062698
1151.69,580.5266527862414
1153.92,571.7564702941283
1156.15,496.5822992022413
1158.38,423.2428618427389
1160.61,362.16741460248136
1162.83,310.83289161313246
1165.06,233.09723891744397
1167.28,193.29465339744866
1169.5,155.61653598836597
1171.72,128.73054013060437
1173.94,92.20914403128631
1176.16,90.5772705448212
1178.37,82.21704991061824
1180.58,63.17734439556625
1182.8,48.459463412697005
1185.01,27.112402449375622
1187.22,-0.8623941949858818
1189.42,-4.8443659093154565
1191.63,-22.784311128411673
1193.84,1.462280075005765
1196.04,29.754273829751128
1198.24,57.236318693191606
1200.44,86.57693870025469
1202.64,96.01615022195756
1204.84,84.84165025251059
1207.03,77.86500469641487
1209.23,63.897836655563424
1211.42,69.08515757348232
1213.61,114.57203171290848
1215.8,173.7892882524111
1217.99,227.1201857639653
1220.18,214.09088621434057
1222.36,208.22759563315094
1224.55,180.05656192375864
1226.73,168.34216791227345
1228.91,165.65835772988066
1231.09,170.43625367136474
1233.27,165.20224924411968
1235.44,191.48276888380815
1237.62,213.47093243193922
1239.79,262.64560056581195
1241.96,335.4380392760786
1244.13,430.0890605347795
1246.3,556.2680677252833
1248.47,724.83495821509
1250.64,892.9353592619614
1252.8,1071.2863401105365
1254.96,1291.557362184185
1257.13,1551.2274197530514
1259.29,1837.4421806020969
1261.44,2075.7282695562876
1263.6,2228.898028196266
1265.76,2242.2399888597242
1267.91,2156.804586738038
1270.06,1969.499395782399
1272.22,1743.9462693718679
1274.37,1517.671814314759
1276.51,1330.1073886595336
1278.66,1148.2557661723827
1280.81,992.7863722433649
1282.95,881.79718645922
1285.09,817.5290261285677
1287.23,779.0798298071009
1289.37,736.7379884418337
1291.51,712.0299622296293
1293.65,698.1488498566823
1295.78,741.4781958332401
1297.92,816.1634168759451
1300.05,892.4927520996994
1302.18,952.897260828579
1304.31,1046.5698680257915
1306.44,1121.989171628405
1308.57,1181.919440358262
1310.69,1248.505849628125
1312.82,1313.988765066882
1314.94,1360.9894546161704
1317.06,1418.6053244365307
1319.18,1470.3146786230905
1321.3,1499.4052884450489
1323.41,1474.3077234899297
1325.53,1433.0239209030592
1327.64,1331.2700403413437
1329.75,1219.3812236889416
1331.87,1086.1687357253118
1333.98,988.3009143170743
1336.08,843.1126920384459
1338.19,742.1770225535711
1340.3,634.5905927131457
1342.4,530.2595346510384
1344.5,428.6613283571037
1346.6,390.5590852023688
1348.7,335.4301171785137
1350.8,303.03736328020614
1352.9,263.857958744577
1354.99,204.94037571927083
1357.09,171.52346869239545
1359.18,169.9888532558125
1361.27,162.0989991541419
1363.36,164.2353233337658
1365.45,162.39818775373897
1367.54,156.11165910145928
1369.62,169.99493517500468
1371.7,204.2861522178514
1373.79,237.0328589202627
1375.87,255.13963327781812
1377.95,263.17760421184494
1380.03,242.241592237468
1382.1,222.33105965547384
1384.18,205.30248931559026
1386.25,205.53604909406113
1388.33,181.07844684740712
1390.4,152.02388060428302
1392.47,104.99022685258069
1394.54,77.45237168368112
1396.6,31.12316098430938
1398.67,22.953398247455425
1400.74,11.846128097557994
1402.8,13.323300768086938
1404.86,15.097200793995853
1406.92,36.499019784964275
1408.98,49.28838294895786
1411.04,83.22478192048447
1413.09,123.16281711266583
1415.15,200.14744006930505
1417.2,290.413957721712
1419.25,381.76898902648327
1421.3,468.97142160328553
1423.35,494.87527313453506
1425.4,493.38207657461203
1427.45,460.2504082162077
1429.49,397.76255861382583
1431.54,319.48644160251524
1433.58,311.0851223642319
1435.62,288.0787264465696
1437.66,307.93968211483025
1439.7,291.80701032313823
1441.74,238.91490039984546
1443.77,172.92604763769532
1445.81,153.36022897923044
1447.84,157.92764060696527
1449.87,199.52890220021573
1451.9,234.4455373824228
1453.93,262.7209303589302
1455.96,315.4936635071592
1457.98,372.66418830010684
1460.01,433.7043533727067
1462.03,553.0859802072337
1464.05,716.3284864377738
1466.07,917.52269963088
1468.09,1219.949909161462
1470.11,1591.4152038029656
1472.13,1967.0093807461244
1474.14,2388.394664141515
1476.16,2717.2332807849652
1478.17,2894.6160358029692
1480.18,2951.7289835761894
1482.19,2843.2343843772487
1484.2,2584.2707086275677
1486.21,2257.309784011345
1488.21,1838.1091806847721
1490.22,1410.474120294781
1492.22,1032.4955754739728
1494.22,726.8836074307931
1496.22,508.5864178254167
1498.22,378.36178159801807
1500.22,287.53895598751865
1502.22,221.63773240747128
1504.21,140.41605975052585
1506.21,91.82242959764312
1508.2,48.61492809397896
1510.19,20.266002110484806
1512.18,24.819606357884823
1514.17,34.74835050065781
1516.16,34.905884366257396
1518.14,36.33642601147062
1520.13,17.370004074495228
1522.11,19.908176317487232
1524.09,2.4240338833983515
1526.07,3.0574436480528675
1528.05,11.186481048412588
1530.03,9.808386720370208
1532.01,-13.508048292037074
1533.98,-14.62247827978831
1535.96,-35.013474802518886
1537.93,-17.159476209619015
1539.9,12.937404179910118
1541.87,29.79899465334256
1543.84,52.70915608159339
1545.81,73.14234908706294
1547.78,66.2874393067209
1549.74,81.47626455995032
1551.7,122.37410677829348
1553.67,147.59873536377472
1555.63,205.14897435674425
1557.59,247.40469817514736
1559.55,260.98397021094434
1561.5,303.02875285509526
1563.46,355.3477603796914
1565.41,360.8450261057992
1567.37,334.80561242845033
1569.32,278.6098922702081
1571.27,214.78116386806278
1573.22,175.03326556033267
1575.17,152.27057152593784
1577.11,157.54036847605926
1579.06,139.27094663151593
1581.0,131.84302403346487
1582.95,143.78021847315472
1584.89,142.03475751691508
1586.83,142.7969980549583
1588.77,130.97161251684588
1590.7,102.74901318219622
1592.64,68.79582411043566
1594.58,63.70725783245416
1596.51,58.57853966131984
1598.44,42.742998669639974
