Raman Shift,Processed Intensity
331.095,49.69128907638151
333.909,75.46447251251266
336.721,86.01997687288986
339.531,92.85780712117412
342.339,126.54940671976419
345.145,136.07099592682061
347.949,185.42262437894715
350.751,213.46150938819846
353.55,188.99727900097787
356.348,197.26816743790368
359.144,220.36959148605
361.937,272.6827268911966
364.729,307.4935609405402
367.518,330.70718314066926
370.306,360.08588541933386
373.091,402.8205956605616
375.874,461.10231123976337
378.656,481.07448493980974
381.435,426.0235061051926
384.212,325.8072770342851
386.988,232.998075085884
389.761,144.35874811908616
392.532,112.60462421888587
395.301,57.11780237415314
398.068,36.99477648894208
400.833,6.5702498699961325
403.596,1.60761638092481
406.358,-20.891510784580078
409.117,-32.11586488942294
411.874,-42.396900795827605
414.629,-10.827839046786721
417.382,26.974429340192273
420.133,62.63124279578915
422.882,79.19263938501763
425.629,83.94687733716864
428.374,138.08709843289307
431.117,263.3303723436693
433.858,417.72721716175556
436.597,522.0901675491868
439.334,574.7556762201116
442.069,566.3936344707367
444.802,536.531178423571
447.533,507.31459050977037
450.262,553.7950104752699
452.989,611.9284321012201
455.714,674.8614142101278
458.438,688.5977440529396
461.159,653.5698626009012
463.878,545.5436231707304
466.595,488.6182881450504
469.31,469.0360495023356
472.024,461.37250172782024
474.735,481.96520996249865
477.444,513.2470400568809
480.152,543.0794886247568
482.857,520.943155954089
485.561,539.366314156011
488.262,549.1153800757193
490.962,579.8615786795654
493.659,622.228558823093
496.355,702.2209614000403
499.048,733.1291779675248
501.74,805.4341093712374
504.43,848.1404957992077
507.118,879.7769135022327
509.804,945.9195810381148
512.488,1071.7637845635286
515.17,1209.5048269354033
517.85,1348.433262526597
520.528,1438.3634653748945
523.204,1517.0145782843906
525.878,1563.5819381173437
528.551,1599.1180248955766
531.221,1634.5324585209078
533.89,1675.0681859717815
536.556,1669.1586208808617
539.221,1679.6657354935514
541.883,1659.6895811979675
544.544,1645.9492376263197
547.203,1638.782809375346
549.86,1657.7188512981666
552.515,1668.2382699866207
555.168,1678.25051096789
557.819,1707.3792697106346
560.469,1784.819631202562
563.116,1836.2904476232416
565.761,1957.7962398264272
568.405,2051.1510035843103
571.047,2140.2163015460387
573.687,2217.5203075771924
576.324,2265.067327289741
578.96,2273.194937619627
581.594,2312.3835073567147
584.227,2298.7323843414133
586.857,2285.293225518447
589.485,2231.5938031810865
592.112,2153.0189540725382
594.737,2044.8581951539982
597.359,1906.5914346108016
599.98,1784.1746828585724
602.599,1684.4210016446114
605.216,1610.3814531492726
607.831,1591.5355728968761
610.445,1573.0770807618533
613.056,1585.1519729272632
615.666,1705.477566224276
618.274,1932.9615424716444
620.88,2189.892421386628
623.484,2440.7967001625675
626.086,2695.4864692369506
628.686,2872.107028059469
631.284,3029.517834193405
633.881,3096.7686905122623
636.476,3041.6235514440223
639.068,2905.512900643957
641.659,2683.20041438174
644.249,2340.97343445235
646.836,2008.2620125155522
649.421,1617.7817639591844
652.005,1275.8195789052997
654.587,1009.4240951210741
657.166,785.4056947392414
659.745,627.4793581213762
662.321,503.45513676880273
664.895,398.8571976620806
667.468,336.6381056957239
670.038,247.36929658910503
672.607,203.66964503545796
675.174,169.0626042794479
677.739,149.5476314090406
680.303,158.79066026640794
682.864,153.02886007312236
685.424,111.88015596010246
687.982,92.48608283090516
690.538,53.607020177390496
693.092,67.81266499063167
695.645,64.2439332432582
698.195,52.041533482969044
700.744,44.77454042605041
703.291,26.630873312794392
705.836,14.226827202438017
708.38,41.607085100151835
710.921,56.054256746048395
713.461,74.18413324892026
715.999,111.75523178874437
718.535,138.62120319162204
721.069,181.92133474280854
723.602,202.9377196664118
726.133,196.33337898604077
728.662,159.96181195688223
731.189,111.4860703073
733.714,76.712118194715
736.238,53.39838263767979
738.759,7.541494424140637
741.279,-12.766542408874102
743.798,-35.195461258828345
746.314,-46.22431898226432
748.829,-32.28432150538811
751.342,-31.711177520030105
753.853,-60.84031505059602
756.362,-59.24495907191431
758.869,-61.974212964168146
761.375,-33.02924295165849
763.879,-12.220422447316196
766.381,-7.548293832049694
768.882,-23.394058054818743
771.38,-24.32911328354794
773.877,-3.7341182428308457
776.372,6.391465463811983
778.866,-4.046838544811635
781.357,15.142409099980341
783.847,51.48416143531904
786.335,76.59876833289536
788.821,174.29719468684107
791.306,208.62862494119872
793.789,283.3090276666703
796.27,374.4354344230892
798.749,472.7716471933172
801.227,576.1291839123746
803.702,719.1767954251536
806.176,768.011887206023
808.649,824.684322030826
811.119,830.0059369345781
813.588,795.1695839786989
816.055,730.8443614944222
818.521,680.7946548500272
820.984,574.4515581704463
823.446,485.15096272354276
825.906,398.8002167349541
828.365,330.8781185362823
830.821,266.29205257041986
833.276,235.2827444445038
835.729,204.94806360190933
838.181,172.33825456567683
840.631,153.07497770575173
843.079,141.8751119109811
845.525,154.5983667849223
847.97,145.77108531784825
850.412,148.72909417779465
852.854,111.6176968587497
855.293,76.86785730504062
857.731,55.91047877380197
860.167,49.50973031650301
862.601,34.81065897475264
865.034,20.67251626181951
867.465,9.668751310824518
869.894,-3.151087677588748
872.321,-7.451830792007968
874.747,5.339694397473977
877.171,7.844186164466464
879.594,16.396534001173222
882.014,41.14105598655806
884.433,43.55530840728443
886.851,35.54532564401143
889.266,68.06466958148849
891.68,79.9239552091476
894.092,117.98132860263468
896.503,134.61865919105912
898.912,114.26535107186464
901.319,100.1126305161797
903.724,90.87545252177551
906.128,104.36393117555099
908.53,127.62619858745211
910.931,146.28174001485695
913.329,154.1880623203083
915.726,179.91688623876325
918.122,151.03986245437454
920.516,129.36666862964648
922.908,96.51643976793639
925.298,96.72729381403042
927.687,110.85633344521557
930.074,134.9510764337747
932.459,151.344695533292
934.843,139.65602026970873
937.225,153.64668158952963
939.605,166.7925422223152
941.984,180.0932222812703
944.361,166.16733914954875
946.736,151.68108069989466
949.11,125.39582613332459
951.482,142.78719538923815
953.853,152.85457474601208
956.222,161.59730908825395
958.589,148.68137036454073
960.954,145.2488831880164
963.318,109.63241234174666
965.68,100.30734552218382
968.041,99.12999036833617
970.4,72.14710006237374
972.757,41.357779882608156
975.113,44.7134889945728
977.467,4.070423194484192
979.819,-8.334292823491523
982.17,23.59358680003197
984.519,23.567335642644593
986.866,19.538303561167595
989.212,13.553060490773078
991.556,8.515302148873161
993.899,12.042993834236313
996.24,47.99218089278111
998.579,50.837942040508096
1000.92,43.53153316262615
1003.25,39.64324539839072
1005.59,37.26716798784582
1007.92,38.02118921380588
1010.25,30.38033067717106
1012.58,34.53389109605678
1014.91,25.24259010491278
1017.24,38.64809300602428
1019.56,50.8920593305329
1021.88,65.40185806613272
1024.2,92.70009240856234
1026.52,104.64269594167854
1028.84,86.18083834133131
1031.16,91.50378346019716
1033.48,89.6579378888041
1035.79,128.07066142131544
1038.1,167.55026799751113
1040.41,180.47650283523217
1042.72,178.51482908663638
1045.03,187.4735716373143
1047.33,191.2086799530207
1049.64,189.29039568831013
1051.94,169.90801553327083
1054.24,159.1556064412125
1056.54,166.9843875230158
1058.84,174.44082622720498
1061.13,174.47616309143723
1063.43,165.56546030352365
1065.72,167.80284073863322
1068.01,168.42529842508156
1070.3,186.19365186724917
1072.59,196.5354021304097
1074.87,199.9256861636536
1077.16,235.03013488471242
1079.44,251.4191598362204
1081.72,248.8060493657831
1084.0,263.1422076631866
1086.28,314.42667951189514
1088.56,393.18234170722144
1090.84,502.21780876020557
1093.11,607.4845766967346
1095.38,649.8389287614227
1097.65,607.280031597672
1099.92,524.2356504753657
1102.19,424.56215023283994
1104.46,342.4968771712429
1106.72,364.9914933298405
1108.98,395.85483457085456
1111.24,419.84814961667416
1113.5,463.399386706114
1115.76,513.8412897744879
1118.02,549.5542565384435
1120.28,601.8234822950853
1122.53,656.6008656258573
1124.78,641.4573902908933
1127.03,614.4402690281322
1129.28,542.8824683048165
1131.53,474.7836616404179
1133.77,403.42927816766087
1136.02,405.6762178602162
1138.26,416.6195191413476
1140.5,459.49712173065063
1142.74,519.7851056812747
1144.98,600.578644702859
1147.22,628.2110547225657
1149.45,633.9204614937244
1151.69,611.8974205854329
1153.92,528.3325373721532
1156.15,462.27361083282995
1158.38,417.054205921439
1160.61,347.3412735565789
1162.83,306.46848489679087
1165.06,244.7695656158653
1167.28,200.1973444638802
1169.5,174.2761351615586
1171.72,186.05411829464174
1173.94,163.10334225587167
1176.16,150.66258132983558
1178.37,107.63733663495441
1180.58,95.40936087498721
1182.8,75.2176116619712
1185.01,67.9677762677261
1187.22,39.041796375364356
1189.42,8.059773783178116
1191.63,-15.500981034329016
1193.84,-9.544043222555501
1196.04,-15.496728921082195
1198.24,6.070857227768556
1200.44,36.350583082366484
1202.64,34.20104834302856
1204.84,36.95710642623544
1207.03,68.9536720531346
1209.23,75.62095740946734
1211.42,121.10351782931502
1213.61,168.2126308121742
1215.8,207.9977226590845
1217.99,237.79398558494404
1220.18,286.79380435464464
1222.36,264.85627815729504
1224.55,246.22150438520612
1226.73,225.93914812716548
1228.91,206.39224975694606
1231.09,188.1543658551509
1233.27,193.41813870249325
1235.44,206.85243720163817
1237.62,253.88806922761887
1239.79,315.14635112111364
1241.96,400.01053432457275
1244.13,494.6734224945408
1246.3,606.8992743282729
1248.47,791.9285635331917
1250.64,979.0017864154065
1252.8,1171.5023170872682
1254.96,1433.9564055320643
1257.13,1737.7474613830054
1259.29,2022.2112900831594
1261.44,2314.3503766644317
1263.6,2472.738645717034
1265.76,2487.1405070732217
1267.91,2408.4156157767616
1270.06,2227.042679671433
1272.22,1957.8337431800155
1274.37,1729.0294234642156
1276.51,1477.0608132512712
1278.66,1276.216145565314
1280.81,1141.450315601594
1282.95,1026.8610692673665
1285.09,927.9747155323062
1287.23,868.2699340170079
1289.37,804.9396778195883
1291.51,776.7483144375219
1293.65,793.3173381180577
1295.78,832.5539393514905
1297.92,891.6510029358601
1300.05,967.7537727083127
1302.18,1053.055087705035
1304.31,1131.985856416427
1306.44,1251.1198167565562
1308.57,1323.1735341278513
1310.69,1373.958780438179
1312.82,1436.6682464512478
1314.94,1516.0183969941686
1317.06,1595.106611879285
1319.18,1684.3635649212515
1321.3,1699.5056029541156
1323.41,1646.4871248483973
1325.53,1581.310103385314
1327.64,1466.6431309405198
1329.75,1333.1547508821432
1331.87,1191.2277413497764
1333.98,1031.3400657001253
1336.08,899.1601086669543
1338.19,801.3085791876879
1340.3,692.5489846585947
1342.4,628.168581380442
1344.5,565.216467861294
1346.6,485.02739240503115
1348.7,425.84079879510546
1350.8,392.2293957878246
1352.9,341.765821843735
1354.99,304.59407176376317
1357.09,263.4771138015417
1359.18,214.51117344240902
1361.27,202.3162076585968
1363.36,229.7978077358539
1365.45,243.71862590958654
1367.54,213.41265914385713
1369.62,212.2138186246725
1371.7,208.31307068183924
1373.79,238.90129199653666
1375.87,263.0264105231731
1377.95,269.0219749826729
1380.03,252.98334340337124
1382.1,222.43434785239833
1384.18,212.99395916705726
1386.25,213.13818978143854
1388.33,199.43818702923136
1390.4,183.79832644652652
1392.47,166.98001936034098
1394.54,106.07790142951671
1396.6,76.37697356658282
1398.67,30.019266669132776
1400.74,0.4324111131140853
1402.8,-1.6703651824595909
1404.86,26.09071675048881
1406.92,45.76198810048345
1408.98,65.96109517316108
1411.04,81.01986019518017
1413.09,134.60333259432218
1415.15,223.5669355176833
1417.2,349.4802790165372
1419.25,424.38906846928467
1421.3,501.33891776631253
1423.35,542.8039243996136
1425.4,572.7819112190805
1427.45,569.4610967602189
1429.49,517.4581941432953
1431.54,425.5803194962891
1433.58,354.0630908540311
1435.62,284.5706318192515
1437.66,270.38605141409903
1439.7,259.9828763126218
1441.74,249.83457831133956
1443.77,241.55743513314656
1445.81,212.00577218359672
1447.84,197.89101383099774
1449.87,223.97216325793602
1451.9,247.05580612232893
1453.93,271.80563802800134
1455.96,326.12342056669195
1457.98,381.3394611695837
1460.01,468.5459501016935
1462.03,605.3112498372068
1464.05,804.2989463395841
1466.07,1044.648805103568
1468.09,1346.8815367209995
1470.11,1721.946419589486
1472.13,2162.792732144887
1474.14,2598.845946998552
1476.16,2965.1029726936104
1478.17,3200.65596688983
1480.18,3256.978054310379
1482.19,3097.018568498119
1484.2,2795.822103095699
1486.21,2389.718991697081
1488.21,1944.0872162705004
1490.22,1523.066696533794
1492.22,1164.8926269487863
1494.22,819.0859565728169
1496.22,570.9295831959794
1498.22,398.5159760497893
1500.22,291.5090842301406
1502.22,211.04910226311745
1504.21,151.60961662318095
1506.21,93.99760939421208
1508.2,68.16298574008488
1510.19,71.0081013752349
1512.18,52.435385273321344
1514.17,22.2997242806548
1516.16,-4.639152270380691
1518.14,-21.859526043130927
1520.13,-27.839590797531628
1522.11,2.7520746105074068
1524.09,16.675554759724264
1526.07,6.738643263097629
1528.05,-2.1079211563642275
1530.03,2.9438290292089278
1532.01,-1.0599594859461376
1533.98,-0.16829640568357718
1535.96,11.427030889317393
1537.93,4.391455004317095
1539.9,19.77143571709621
1541.87,15.375410021677226
1543.84,29.011885029191262
1545.81,56.20372134492891
1547.78,75.33098787396534
1549.74,99.53572138868526
1551.7,159.0552575248821
1553.67,189.88889511119055
1555.63,237.41694145090355
1557.59,280.30547188950027
1559.55,291.60156557264736
1561.5,332.1142554899134
1563.46,372.2716689946758
1565.41,375.64483499069115
1567.37,382.8048244520012
1569.32,337.5608433237867
1571.27,278.57927780418026
1573.22,235.52654914988602
1575.17,195.4024446722749
1577.11,167.68297254300592
1579.06,202.65369279012384
1581.0,219.1240006751018
1582.95,246.2366481651227
1584.89,233.3725035006023
1586.83,202.34102504842667
1588.77,180.42787801233112
1590.7,173.01397971471238
1592.64,190.43264011653173
1594.58,206.4457499562693
1596.51,164.9342546031669
1598.44,23.398151719985663
