Raman Shift,Processed Intensity
331.095,43.74436663178085
333.909,2.989543591499114
336.721,14.41083501733874
339.531,58.17491194428658
342.339,121.37702557253078
345.145,154.80291639768893
347.949,155.54786619814058
350.751,194.85003573666745
353.55,190.4714215097115
356.348,190.50738392520543
359.144,216.33903262326112
361.937,242.9665641778147
364.729,237.86640932208275
367.518,242.75314207878
370.306,285.389007937958
373.091,336.5839282253228
375.874,435.48121875626975
378.656,469.1766418232555
381.435,416.67079151650523
384.212,284.9643361875742
386.988,152.4389751986223
389.761,53.04791948120828
392.532,36.93494352366679
395.301,14.10105640609845
398.068,27.21402997822088
400.833,15.798879418175147
403.596,-26.571656208669083
406.358,-28.610442914719442
409.117,-27.31594581759464
411.874,-25.781750052311054
414.629,-12.14894223078727
417.382,-27.320399977278612
420.133,-23.722703698889745
422.882,33.69385492173615
425.629,91.88383231234366
428.374,163.61137974795565
431.117,231.49785115229997
433.858,276.68846794812725
436.597,309.5189839075356
439.334,357.4680642880053
442.069,352.3953792541456
444.802,328.7320782518318
447.533,308.24269295376416
450.262,313.54894496693623
452.989,357.9868868734229
455.714,409.27356708069965
458.438,429.887980386246
461.159,422.88058997071676
463.878,369.58761129588083
466.595,307.3929150501831
469.31,274.87088247525253
472.024,264.1197368828912
474.735,310.38058945778357
477.444,348.942199345925
480.152,369.3314480287545
482.857,361.5990517925352
485.561,344.4624170548782
488.262,355.35325759602574
490.962,382.322354647285
493.659,395.134793169927
496.355,446.2699600388546
499.048,484.3977327024618
501.74,529.330858318669
504.43,575.2154281290636
507.118,628.4832565949441
509.804,686.9471176762213
512.488,793.3721715865181
515.17,894.8569153577741
517.85,982.976038166767
520.528,1043.0661338044793
523.204,1106.130460764522
525.878,1131.5532261410744
528.551,1176.051964764928
531.221,1228.487061196659
533.89,1240.3379383864767
536.556,1206.8935320483597
539.221,1204.490384081807
541.883,1171.8935931364495
544.544,1149.24919374809
547.203,1151.2270116652112
549.86,1153.9730429850183
552.515,1183.5856428132847
555.168,1220.877428209923
557.819,1250.2800382774126
560.469,1262.6536561539906
563.116,1284.3346262449331
565.761,1306.611642882418
568.405,1374.535272318708
571.047,1390.679855671719
573.687,1418.8101737753532
576.324,1438.6909691726814
578.96,1436.2298014424687
581.594,1415.7151406209418
584.227,1387.4830320521219
586.857,1320.917094571499
589.485,1289.0675663087554
592.112,1267.2227314428683
594.737,1254.289870766735
597.359,1223.3190693946594
599.98,1180.2175006603047
602.599,1161.3684719194102
605.216,1168.4885655906
607.831,1185.5323992438161
610.445,1221.9783380697022
613.056,1260.4475406823221
615.666,1346.608719207587
618.274,1500.082899371699
620.88,1639.5862758276744
623.484,1778.834972243787
626.086,1920.5926585348557
628.686,2033.7181680935441
631.284,2138.498829307359
633.881,2222.031416123282
636.476,2222.5554795647695
639.068,2146.215250677323
641.659,1982.7263053788197
644.249,1756.7565150241226
646.836,1513.6879493506617
649.421,1267.474017519227
652.005,1034.7823234404973
654.587,833.8994258634593
657.166,646.8736937019339
659.745,509.0867327896631
662.321,441.3962412068331
664.895,349.46934079707535
667.468,255.4492420177976
670.038,186.14571831432295
672.607,124.84462811308185
675.174,111.06981776718158
677.739,124.48788164483904
680.303,117.2414936463756
682.864,103.42559586407879
685.424,74.32549200395897
687.982,24.36922652179237
690.538,16.603773282972725
693.092,17.695033746170793
695.645,31.975456910889534
698.195,24.444042073452238
700.744,3.2425339989472377
703.291,4.084002369726932
705.836,7.9195190208793065
708.38,8.461978384154918
710.921,-3.90912925253906
713.461,-10.71913413997163
715.999,-19.25531688436604
718.535,35.81405656811012
721.069,33.15403216408686
723.602,33.334405812454406
726.133,23.30592335860274
728.662,28.114575796745612
731.189,13.663513529876127
733.714,22.71305586780818
736.238,-22.26215661763854
738.759,-45.02553354697284
741.279,-59.67376333022594
743.798,-48.20823224034166
746.314,-28.392162287728297
748.829,-15.798231433389446
751.342,-25.52286046872905
753.853,-34.995737990584985
756.362,-29.59886918579832
758.869,-21.285624615769848
761.375,-17.104550905789438
763.879,-16.67556238673569
766.381,-38.7613708320232
768.882,-39.219867575504395
771.38,-45.146981819841585
773.877,-49.019538944884516
776.372,-36.40954738747678
778.866,-9.07943790221816
781.357,-10.982064726979843
783.847,27.31072182299522
786.335,26.179502761004187
788.821,67.48109878717287
791.306,110.83428340865612
793.789,159.66740082173465
796.27,236.64693617486728
798.749,323.5346572603071
801.227,381.187613348583
803.702,473.93908640392465
806.176,530.0271613473146
808.649,552.3090106052532
811.119,571.7370834204207
813.588,536.0733904004437
816.055,510.4609309237944
818.521,494.18559673617256
820.984,458.6761707849819
823.446,402.50432605381
825.906,326.43224344452756
828.365,260.8888010879582
830.821,227.11243032121683
833.276,224.7701621412425
835.729,221.62429270595203
838.181,167.6752393115803
840.631,114.73296779859538
843.079,83.2741342433128
845.525,63.82303617332127
847.97,66.33256378291026
850.412,72.70800829135578
852.854,61.47372744405857
855.293,61.011239585119256
857.731,55.46398439657105
860.167,44.73732173286089
862.601,33.641387598181154
865.034,25.081569171426963
867.465,43.53469411686615
869.894,54.00141037100502
872.321,48.67285164373129
874.747,43.50206482421868
877.171,36.061151672550295
879.594,42.541267654199146
882.014,39.22881125070012
884.433,54.648279936983045
886.851,39.51464996823529
889.266,52.63813711914099
891.68,70.73371932788427
894.092,96.80208791157247
896.503,119.60583687691133
898.912,157.5742236594358
901.319,154.85078700561826
903.724,140.96001247400477
906.128,125.99780746017314
908.53,107.34578574549755
910.931,114.19507585544147
913.329,135.4987008464177
915.726,145.49538666408694
918.122,130.56670383498295
920.516,123.28468534862009
922.908,115.45944453959532
925.298,123.09155487445491
927.687,132.80062021476238
930.074,123.49194031825505
932.459,123.11841443524554
934.843,141.7281591907447
937.225,150.79784075228986
939.605,165.51838795016874
941.984,158.3188006357327
944.361,161.00900565875872
946.736,150.398903321003
949.11,155.20312811546887
951.482,145.75533327519224
953.853,137.10342770299076
956.222,105.10481290120492
958.589,99.28352466335059
960.954,101.4492795276658
963.318,94.60223551637705
965.68,105.4568004940063
968.041,121.53686909710859
970.4,114.4615358544861
972.757,92.65937973597988
975.113,71.41608203459123
977.467,15.969663296225917
979.819,5.320005963723133
982.17,-6.1520991695877
984.519,9.934095102697938
986.866,42.43548387236774
989.212,59.54225330982399
991.556,64.49216774018873
993.899,85.52295195750844
996.24,87.25324496753001
998.579,107.39688706380821
1000.92,94.90577833238467
1003.25,92.82702287075381
1005.59,72.44578729253612
1007.92,96.14244494644618
1010.25,102.53543442096907
1012.58,110.1955466204663
1014.91,86.02687850794928
1017.24,87.26683446690163
1019.56,77.43850861548367
1021.88,91.96973378739744
1024.2,82.81213051275427
1026.52,69.06015599894818
1028.84,76.47491501628542
1031.16,93.00797078361393
1033.48,137.13467966347162
1035.79,146.37800204771793
1038.1,162.68945610030573
1040.41,158.7348334048163
1042.72,158.22753365961262
1045.03,153.26189937299637
1047.33,159.36083627264907
1049.64,146.85676704840876
1051.94,145.84401366647057
1054.24,179.08356063597398
1056.54,195.14591351367562
1058.84,208.36348121814785
1061.13,198.4496250106463
1063.43,205.97485033310932
1065.72,171.03347483664402
1068.01,176.4817249814348
1070.3,160.84249930332135
1072.59,142.9244173946645
1074.87,138.72658317093033
1077.16,171.3433481372699
1079.44,176.25002703605423
1081.72,208.87432778011794
1084.0,258.3106385288645
1086.28,306.12955285960675
1088.56,387.5683473198569
1090.84,456.38812564628734
1093.11,520.6357248884549
1095.38,552.7865739134652
1097.65,530.12564714874
1099.92,484.795084991448
1102.19,421.55609993222106
1104.46,356.83659696458403
1106.72,328.5406987562867
1108.98,339.81065177302617
1111.24,363.7887324021651
1113.5,395.9029626002607
1115.76,463.34330173107014
1118.02,499.10926697498394
1120.28,548.5813632622651
1122.53,582.044894158669
1124.78,553.5471060844009
1127.03,483.99242777115523
1129.28,469.4758049572665
1131.53,384.9017493685633
1133.77,324.2224353182744
1136.02,264.5805582116975
1138.26,244.2140978127652
1140.5,268.1229862725261
1142.74,354.7833952052365
1144.98,422.814403716847
1147.22,451.88276167158415
1149.45,447.17908152996074
1151.69,446.5606968534612
1153.92,406.6945208092277
1156.15,376.6284761033171
1158.38,336.5534011044324
1160.61,284.2792416819457
1162.83,253.9969573296314
1165.06,230.80233205130912
1167.28,203.74359477029407
1169.5,189.2023730721737
1171.72,145.41750409045403
1173.94,93.67551205886298
1176.16,59.45346681603155
1178.37,24.561842310185057
1180.58,17.287375103826207
1182.8,21.72639906890572
1185.01,1.9753229391276363
1187.22,-17.86936832821675
1189.42,-30.13968361898992
1191.63,-22.405647905014575
1193.84,-8.094350251848937
1196.04,21.65290952207738
1198.24,0.028233595814981527
1200.44,1.6047380244424403
1202.64,4.241309643089153
1204.84,26.36831535489887
1207.03,42.74950206551375
1209.23,77.10103992343215
1211.42,75.80580630162285
1213.61,98.48481263627377
1215.8,91.90196459888557
1217.99,105.77358417311893
1220.18,119.76840792212283
1222.36,142.2694900177687
1224.55,158.80277193655093
1226.73,150.03708072691438
1228.91,108.11746060991572
1231.09,101.14136172273925
1233.27,84.73006695745698
1235.44,97.2191664188324
1237.62,152.75379378689559
1239.79,192.71719601284644
1241.96,243.3497792054352
1244.13,322.60624975544215
1246.3,425.9651364125318
1248.47,545.4287885525844
1250.64,671.1424220640758
1252.8,824.536974758259
1254.96,1011.8052951126813
1257.13,1191.6640453004177
1259.29,1410.7822708859642
1261.44,1600.2575895687535
1263.6,1705.6638084980966
1265.76,1773.0509225405012
1267.91,1731.707017308906
1270.06,1607.7773150490432
1272.22,1425.6927443353331
1274.37,1270.027081195348
1276.51,1132.6874235676078
1278.66,995.8189514736614
1280.81,839.376353856833
1282.95,747.7428744685931
1285.09,667.6826910882558
1287.23,647.95996140935
1289.37,641.3388213069425
1291.51,610.2500497716308
1293.65,578.3624957482998
1295.78,578.0592668796426
1297.92,607.104394440154
1300.05,658.7856887463145
1302.18,713.2480707572586
1304.31,781.2554751040036
1306.44,824.7146578805907
1308.57,872.7704330066515
1310.69,909.8056704947355
1312.82,945.7746280509741
1314.94,961.0124731519359
1317.06,971.4733765500541
1319.18,995.254320064764
1321.3,1041.690332945072
1323.41,1074.9735377559307
1325.53,1051.8674343598523
1327.64,972.040231517572
1329.75,892.9696070601385
1331.87,806.085563299099
1333.98,745.5323300557311
1336.08,694.8350295950415
1338.19,601.4234844169011
1340.3,507.2988821900426
1342.4,463.98615497176684
1344.5,384.5815965228953
1346.6,345.51476533700657
1348.7,290.5961019553888
1350.8,228.49311771056273
1352.9,186.30182156503997
1354.99,180.88005171198438
1357.09,160.4189024139705
1359.18,154.63319846080572
1361.27,145.047207722572
1363.36,115.94702036934973
1365.45,101.7138804718868
1367.54,105.72894617370207
1369.62,121.65900224413667
1371.7,150.21836310759977
1373.79,182.74029968234095
1375.87,192.27227574302674
1377.95,202.909279521411
1380.03,219.65096483081697
1382.1,207.21117314299818
1384.18,165.3512651888102
1386.25,112.54678589221976
1388.33,72.70174835192665
1390.4,35.86291782298872
1392.47,14.267429031782513
1394.54,-11.99054888999217
1396.6,-22.81695339535463
1398.67,-21.59401562428002
1400.74,12.343551145519314
1402.8,22.946646135106903
1404.86,17.737492280446304
1406.92,5.095348736621872
1408.98,5.351749512569313
1411.04,43.45717248812866
1413.09,110.88580420438916
1415.15,165.34982902316278
1417.2,230.8946706674169
1419.25,252.51804328551452
1421.3,273.50328822973324
1423.35,328.75271083478424
1425.4,339.31139338681123
1427.45,355.6052938066766
1429.49,368.4412490951504
1431.54,329.10221687334274
1433.58,261.58537406598566
1435.62,206.45926320376498
1437.66,150.578081582795
1439.7,141.27216090028014
1441.74,149.7765421282768
1443.77,149.94526467316223
1445.81,151.48946505892013
1447.84,147.59642799136964
1449.87,164.59625647002008
1451.9,189.39044666182826
1453.93,209.2137961082915
1455.96,231.01535955159147
1457.98,294.1251190464516
1460.01,353.9682731196124
1462.03,446.3985735483484
1464.05,585.9364240437535
1466.07,735.102217029259
1468.09,937.3210989905806
1470.11,1198.3991643970971
1472.13,1477.4282210517924
1474.14,1788.4524602031104
1476.16,2066.944650466332
1478.17,2257.0918555544768
1480.18,2356.081152009205
1482.19,2324.290108836482
1484.2,2146.143933808909
1486.21,1885.9250007204298
1488.21,1547.4395194981882
1490.22,1186.7794444096144
1492.22,889.846287031422
1494.22,662.1606435043227
1496.22,482.3860075020161
1498.22,342.9954403430497
1500.22,229.03347919790417
1502.22,145.06852148656571
1504.21,100.00235213323617
1506.21,76.07014701152207
1508.2,57.07857162771779
1510.19,31.024832185041078
1512.18,10.001440933580852
1514.17,13.862886282145382
1516.16,29.89230291011404
1518.14,32.0871894983452
1520.13,26.492745507698373
1522.11,10.67806510041737
1524.09,-16.3114784622976
1526.07,-17.95422937510375
1528.05,-4.109388700467207
1530.03,2.9353683206365986
1532.01,12.654368306440801
1533.98,-6.144632264729353
1535.96,-7.129971434522304
1537.93,-6.541320430342466
1539.9,-3.761113436744836
1541.87,5.2568790432681
1543.84,42.320880917094655
1545.81,77.71539322852891
1547.78,111.91547688375704
1549.74,116.63436871068575
1551.7,125.44252608969987
1553.67,117.05333825108642
1555.63,136.75169471531808
1557.59,157.91779182858113
1559.55,190.5033202506811
1561.5,218.26955720485307
1563.46,261.2159349180497
1565.41,263.67527572789345
1567.37,287.3614081420144
1569.32,246.1310686116667
1571.27,234.60294616249416
1573.22,197.44339369196018
1575.17,175.12832974296862
1577.11,146.03847361081716
1579.06,140.17362806919914
1581.0,99.86696209620618
1582.95,103.92786502889862
1584.89,107.83241976550289
1586.83,85.29482834855912
1588.77,73.1245518337837
1590.7,43.369164444644866
1592.64,44.933398203135084
1594.58,80.05533041768786
1596.51,87.6635235520414
1598.44,29.924641284585277
