Raman Shift,Processed Intensity
331.095,-22.706375238095557
333.909,-80.1307809523811
336.721,-88.6508023809525
339.531,-67.99647619047622
342.339,-54.99393333333335
345.145,-24.729999999999997
347.949,1.1164604761904577
350.751,1.2025828571428754
353.55,21.520779523809548
356.348,29.589848571428575
359.144,22.74044142857145
361.937,35.30528095238098
364.729,38.38125142857152
367.518,135.02032571428592
370.306,287.7521161904765
373.091,470.346847619048
375.874,603.005047619048
378.656,591.8341904761907
381.435,440.3244285714287
384.212,307.9687333333335
386.988,179.3085285714287
389.761,94.50684761904768
392.532,58.44244285714288
395.301,46.42503809523814
398.068,40.67022857142863
400.833,51.681671428571455
403.596,68.1072142857143
406.358,55.025114285714324
409.117,42.80099523809528
411.874,72.94509047619052
414.629,59.540223809523816
417.382,17.194790476190512
420.133,49.04217619047627
422.882,93.55080476190487
425.629,158.80925238095256
428.374,252.9551333333335
431.117,351.412685714286
433.858,381.4645714285716
436.597,381.68019047619066
439.334,312.82057142857155
442.069,271.83809523809543
444.802,230.21009523809542
447.533,255.8905714285716
450.262,278.929523809524
452.989,316.56866666666684
455.714,357.2403809523812
458.438,376.3782857142859
461.159,336.36861904761923
463.878,264.3123809523811
466.595,205.93038095238106
469.31,155.03904761904772
472.024,159.45538095238103
474.735,166.0920000000001
477.444,167.14738095238107
480.152,178.24923809523824
482.857,211.4539523809525
485.561,204.24685714285727
488.262,254.97090476190493
490.962,308.96871428571444
493.659,308.9169047619049
496.355,303.15876190476206
499.048,254.70400000000012
501.74,177.65828571428582
504.43,162.69838095238103
507.118,170.40590476190488
509.804,168.1724285714287
512.488,195.1507142857144
515.17,195.25590476190487
517.85,213.59347619047634
520.528,208.74482857142863
523.204,192.62493333333336
525.878,124.43436428571434
528.551,78.99222380952385
531.221,45.83215000000005
533.89,51.63037142857147
536.556,60.34862142857148
539.221,77.71047142857145
541.883,71.62987619047625
544.544,104.97279523809532
547.203,111.84297142857149
549.86,122.53446666666673
552.515,108.96033809523814
555.168,117.74744761904769
557.819,96.37994761904771
560.469,124.96042857142866
563.116,138.2578000000001
565.761,149.51699047619053
568.405,123.93509047619055
571.047,131.6610952380953
573.687,105.46303333333341
576.324,99.20345238095246
578.96,115.12579523809531
581.594,115.56825238095244
584.227,123.5354857142858
586.857,114.60332857142862
589.485,128.20451428571437
592.112,121.3424095238096
594.737,110.78225238095244
597.359,93.76489523809529
599.98,88.38819523809528
602.599,68.32121904761912
605.216,82.75622380952387
607.831,99.83767619047626
610.445,102.85233333333339
613.056,111.13413333333341
615.666,99.7792476190477
618.274,122.74013333333343
620.88,129.30205714285722
623.484,142.89339047619058
626.086,168.84661904761919
628.686,203.6839047619049
631.284,230.88047619047637
633.881,272.1008095238097
636.476,270.77128571428585
639.068,236.74685714285724
641.659,191.16761904761916
644.249,158.55435238095248
646.836,128.66575714285722
649.421,124.83146666666674
652.005,127.809680952381
654.587,114.50120952380956
657.166,91.6635571428572
659.745,85.006880952381
662.321,61.05021428571433
664.895,70.45550952380958
667.468,80.40835714285717
670.038,88.76084761904767
672.607,69.03171428571433
675.174,75.45360476190481
677.739,68.35473809523813
680.303,83.63456666666671
682.864,86.57338571428576
685.424,80.5467523809524
687.982,44.406395238095264
690.538,32.765761904761916
693.092,24.81019523809526
695.645,36.05819523809525
698.195,19.695095238095238
700.744,14.620590476190483
703.291,-1.0273904761904795
705.836,-0.3964999999999792
708.38,13.270566666666687
710.921,37.826538095238114
713.461,32.83858095238098
715.999,54.68358571428574
718.535,37.7386523809524
721.069,60.57131428571434
723.602,62.03529047619051
726.133,71.07952857142863
728.662,73.12924285714291
731.189,96.65767619047625
733.714,88.66170476190483
736.238,112.51904761904768
738.759,112.46549047619055
741.279,115.54602857142864
743.798,109.3294571428572
746.314,96.05169523809528
748.829,56.94848571428574
751.342,46.683980952381006
753.853,54.066352380952445
756.362,91.04595238095246
758.869,111.66850000000005
761.375,123.2658190476191
763.879,114.93151428571434
766.381,100.04487619047622
768.882,58.89063095238098
771.38,44.181685714285734
773.877,32.25027380952385
776.372,44.00027142857147
778.866,65.95446904761909
781.357,62.683490476190485
783.847,53.329500000000024
786.335,46.17759428571431
788.821,25.274915714285726
791.306,39.14462190476194
793.789,46.929427142857165
796.27,47.10528857142862
798.749,67.62441571428575
801.227,82.39141333333339
803.702,85.16825238095245
806.176,124.8596238095239
808.649,156.9896142857144
811.119,174.41560952380965
813.588,166.37604761904768
816.055,147.5852857142858
818.521,147.18676190476202
820.984,157.5144285714287
823.446,186.2357142857144
825.906,178.63688095238103
828.365,149.48071428571436
830.821,113.14859523809533
833.276,116.68885714285722
835.729,126.4835857142858
838.181,137.53387619047624
840.631,111.60250952380957
843.079,101.40493333333339
845.525,76.32316666666672
847.97,72.97728761904766
850.412,57.98777809523811
852.854,40.3081704761905
855.293,31.606483809523848
857.731,44.55064190476193
860.167,46.523030476190506
862.601,48.525078095238115
865.034,39.60585238095241
867.465,64.2907952380953
869.894,82.00985238095244
872.321,79.38363333333339
874.747,79.79470000000006
877.171,76.38746190476198
879.594,103.21126666666677
882.014,156.17254761904775
884.433,184.8445047619049
886.851,194.6097142857144
889.266,184.56514285714297
891.68,184.18880952380965
894.092,227.3874285714287
896.503,252.06704761904774
898.912,248.13461904761917
901.319,231.06780952380961
903.724,175.86861904761915
906.128,145.87204761904775
908.53,163.03242857142868
910.931,157.7322857142858
913.329,160.78338095238107
915.726,165.18740952380958
918.122,122.18436190476197
920.516,109.87105714285721
922.908,112.48730476190482
925.298,91.32058095238104
927.687,131.1826000000001
930.074,148.0271714285715
932.459,151.57047619047628
934.843,170.76674285714293
937.225,146.09364761904766
939.605,97.55290952380956
941.984,63.76549047619049
944.361,36.161214285714344
946.736,50.64683333333339
949.11,77.70011809523814
951.482,65.08448952380955
953.853,51.65864571428574
956.222,37.9955104761905
958.589,28.429802857142885
960.954,37.67737047619052
963.318,60.02534666666671
965.68,75.61774285714291
968.041,87.59890476190482
970.4,100.39863809523813
972.757,87.11344761904766
975.113,78.07779047619051
977.467,74.05466190476196
979.819,87.52100000000007
982.17,101.85925714285722
984.519,122.30815714285721
986.866,129.29738571428578
989.212,142.92282857142868
991.556,169.0423809523811
993.899,212.75223809523823
996.24,223.48185714285728
998.579,227.7555238095239
1000.92,214.7646190476192
1003.25,194.98547619047628
1005.59,164.3235714285715
1007.92,171.73200000000008
1010.25,156.21109523809537
1012.58,143.90414285714297
1014.91,145.19266666666675
1017.24,138.21942857142864
1019.56,130.36604761904772
1021.88,147.77566666666678
1024.2,162.25795238095247
1026.52,187.38447619047633
1028.84,196.34609523809536
1031.16,199.28576190476204
1033.48,219.96552380952392
1035.79,228.48061904761914
1038.1,216.35471428571444
1040.41,219.92128571428583
1042.72,208.75166666666678
1045.03,217.7030952380954
1047.33,235.87076190476208
1049.64,247.6832380952382
1051.94,250.42576190476206
1054.24,235.9079523809525
1056.54,239.93890476190495
1058.84,239.3277142857144
1061.13,232.64600000000013
1063.43,248.65547619047635
1065.72,266.2124761904763
1068.01,278.1267619047621
1070.3,289.15947619047637
1072.59,292.88152380952397
1074.87,289.8643333333335
1077.16,303.48838095238114
1079.44,320.1818571428573
1081.72,359.610904761905
1084.0,407.10814285714315
1086.28,501.9589523809528
1088.56,599.2579523809528
1090.84,725.0524285714291
1093.11,828.9610000000005
1095.38,831.60180952381
1097.65,785.736285714286
1099.92,693.8877142857145
1102.19,588.8648571428574
1104.46,536.0005238095241
1106.72,516.9607142857145
1108.98,499.8400952380956
1111.24,555.2092380952386
1113.5,632.16280952381
1115.76,692.2716666666671
1118.02,733.7731428571434
1120.28,756.3806190476195
1122.53,716.7127619047624
1124.78,683.0067619047624
1127.03,642.0235714285718
1129.28,566.7152380952384
1131.53,494.3191904761907
1133.77,459.6911904761907
1136.02,385.0216666666669
1138.26,369.4046190476193
1140.5,349.36314285714303
1142.74,306.13476190476206
1144.98,287.0521904761907
1147.22,311.828523809524
1149.45,298.9397142857145
1151.69,303.57485714285735
1153.92,283.44785714285723
1156.15,228.9387142857144
1158.38,192.4275238095239
1160.61,174.91370476190482
1162.83,125.825180952381
1165.06,100.97068571428576
1167.28,93.30183333333338
1169.5,80.57974761904767
1171.72,66.42245238095241
1173.94,65.87707142857145
1176.16,50.08570476190481
1178.37,63.38113333333338
1180.58,59.191028571428596
1182.8,74.46714761904767
1185.01,73.73256666666671
1187.22,76.31991428571433
1189.42,78.70483809523816
1191.63,106.26740476190484
1193.84,105.24510952380962
1196.04,147.68509047619057
1198.24,169.58678095238105
1200.44,170.282761904762
1202.64,170.58188571428582
1204.84,154.81683809523815
1207.03,137.27282857142865
1209.23,128.47330571428577
1211.42,89.98922714285717
1213.61,59.772325714285756
1215.8,58.63149190476194
1217.99,49.99496190476195
1220.18,52.81461333333335
1222.36,57.89956952380954
1224.55,27.20179095238096
1226.73,6.863798095238128
1228.91,43.36131857142863
1231.09,75.50363333333338
1233.27,98.8618676190477
1235.44,140.29303428571433
1237.62,136.41578095238103
1239.79,100.22992857142863
1241.96,106.54484761904766
1244.13,93.9791952380953
1246.3,97.81894285714294
1248.47,133.11144285714295
1250.64,137.76146190476197
1252.8,128.3402476190477
1254.96,124.75290000000008
1257.13,119.61821904761912
1259.29,100.93642857142862
1261.44,130.18354285714295
1263.6,141.78824285714296
1265.76,176.60770476190487
1267.91,183.83290000000008
1270.06,179.70192380952392
1272.22,167.4529047619049
1274.37,172.6100000000001
1276.51,175.03028571428584
1278.66,192.23809523809535
1280.81,186.56719047619058
1282.95,156.16066666666677
1285.09,186.44728571428587
1287.23,197.85580952380963
1289.37,226.0533333333335
1291.51,261.23071428571444
1293.65,254.91214285714295
1295.78,226.38389523809536
1297.92,195.7414190476191
1300.05,153.50898095238102
1302.18,136.83010476190486
1304.31,155.6097904761906
1306.44,171.6102285714287
1308.57,212.9274666666668
1310.69,198.37128571428582
1312.82,210.60904761904777
1314.94,218.68900000000014
1317.06,237.32566666666685
1319.18,258.9483333333335
1321.3,295.4147619047621
1323.41,306.8683809523812
1325.53,340.6906190476193
1327.64,354.5011904761907
1329.75,382.5385714285717
1331.87,418.5654761904765
1333.98,450.7255238095241
1336.08,459.5431904761907
1338.19,456.78071428571457
1340.3,435.0579523809526
1342.4,417.61371428571454
1344.5,401.21047619047636
1346.6,362.7060000000002
1348.7,320.95804761904776
1350.8,291.72900000000016
1352.9,288.6864761904764
1354.99,320.64095238095257
1357.09,345.3070952380954
1359.18,354.8281904761907
1361.27,364.3007619047621
1363.36,357.6772857142859
1365.45,359.86352380952405
1367.54,396.669904761905
1369.62,425.00142857142885
1371.7,460.95395238095267
1373.79,504.7192380952384
1375.87,520.7259523809527
1377.95,518.0227142857145
1380.03,534.8959523809527
1382.1,545.6793809523813
1384.18,522.3737619047622
1386.25,440.694285714286
1388.33,357.3558095238097
1390.4,289.1207619047621
1392.47,283.41838095238114
1394.54,280.3922857142859
1396.6,270.37642857142873
1398.67,228.03833333333347
1400.74,235.8548095238097
1402.8,258.77838095238116
1404.86,288.5718571428573
1406.92,292.5692380952383
1408.98,297.7232857142859
1411.04,270.32061904761923
1413.09,267.2188095238097
1415.15,227.84685714285726
1417.2,211.77680952380967
1419.25,201.15238095238107
1421.3,197.54519047619056
1423.35,186.86085714285727
1425.4,194.6709047619049
1427.45,186.9283809523811
1429.49,209.15752380952392
1431.54,207.2636666666668
1433.58,213.19952380952395
1435.62,221.10861904761916
1437.66,207.4195238095239
1439.7,192.56166666666675
1441.74,185.48780952380963
1443.77,172.24571428571443
1445.81,192.74052380952395
1447.84,219.59152380952398
1449.87,232.37047619047635
1451.9,215.88738095238108
1453.93,206.9521904761906
1455.96,195.7556666666668
1457.98,216.53566666666683
1460.01,211.24490476190485
1462.03,206.16938095238106
1464.05,195.07114285714297
1466.07,195.6647142857144
1468.09,198.9027142857144
1470.11,215.1181904761906
1472.13,197.45438095238106
1474.14,179.53033333333346
1476.16,192.39380952380967
1478.17,182.8064761904763
1480.18,191.6734000000001
1482.19,172.23232857142864
1484.2,153.6260857142858
1486.21,119.37832857142863
1488.21,105.01286666666672
1490.22,78.10086666666672
1492.22,65.49952380952382
1494.22,36.636990476190505
1496.22,48.75107619047624
1498.22,67.88936190476197
1500.22,93.28943142857149
1502.22,96.28426238095241
1504.21,61.87349142857145
1506.21,34.53290428571431
1508.2,23.35734857142861
1510.19,42.727505238095276
1512.18,54.59509333333336
1514.17,47.34059047619049
1516.16,32.39204285714287
1518.14,26.03468095238096
1520.13,3.791785714285723
1522.11,12.948580952380965
1524.09,13.552190476190482
1526.07,14.792580952380963
1528.05,15.240714285714294
1530.03,11.99145714285715
1532.01,26.520333333333372
1533.98,40.39857142857145
1535.96,48.34008095238099
1537.93,51.296861904761926
1539.9,50.50663809523812
1541.87,30.58816190476194
1543.84,59.92179047619052
1545.81,70.55509047619051
1547.78,72.24964761904765
1549.74,57.052795238095264
1551.7,45.29754285714288
1553.67,42.221980952381
1555.63,70.87321238095242
1557.59,79.10823666666668
1559.55,61.54590380952382
1561.5,26.233667142857158
1563.46,26.45686952380957
1565.41,44.072910952381
1567.37,65.0337390476191
1569.32,93.86326952380958
1571.27,93.08500000000004
1573.22,79.03216190476195
1575.17,88.27586666666672
1577.11,69.34002857142862
1579.06,55.55784761904767
1581.0,78.21503809523814
1582.95,74.54957619047622
1584.89,72.56142857142862
1586.83,88.15534761904766
1588.77,88.61706666666674
1590.7,115.47029523809533
1592.64,137.85752380952388
1594.58,142.46938095238107
1596.51,146.115323809524
1598.44,155.96198571428602
