Raman Shift,Processed Intensity
331.095,-60.13862333333325
333.909,-75.84696761904769
336.721,-58.02222404761907
339.531,-24.894460952380953
342.339,4.11492238095237
345.145,1.3952257142857116
347.949,-4.922789047619055
350.751,-16.80130285714285
353.55,9.561755714285724
356.348,4.208915238095251
359.144,22.232466666666706
361.937,54.250957142857196
364.729,75.36123809523819
367.518,127.13866190476206
370.306,244.6844000000002
373.091,387.72080952380986
375.874,516.1153333333336
378.656,548.0706190476193
381.435,484.981523809524
384.212,356.1022857142858
386.988,227.16520952380964
389.761,124.14263809523814
392.532,40.72336666666668
395.301,-15.545171428571416
398.068,-15.923257142857123
400.833,2.568886666666689
403.596,20.38902714285715
406.358,30.615614285714297
409.117,20.32876857142858
411.874,12.086388571428587
414.629,23.209802857142883
417.382,30.02178761904765
420.133,46.27537190476197
422.882,86.43858380952389
425.629,139.6956523809525
428.374,191.27938571428584
431.117,284.3285904761907
433.858,338.60228571428587
436.597,333.5750952380954
439.334,296.531142857143
442.069,235.32809523809536
444.802,184.01452380952398
447.533,228.30638095238118
450.262,280.2062380952383
452.989,317.86047619047633
455.714,352.3682857142859
458.438,333.11544761904776
461.159,254.91701904761916
463.878,198.34999047619056
466.595,128.6111238095239
469.31,117.80299047619059
472.024,132.2661142857144
474.735,170.7225904761906
477.444,182.7996666666668
480.152,205.12471428571442
482.857,224.65895238095254
485.561,255.50676190476204
488.262,260.1059047619049
490.962,299.08500000000015
493.659,297.73923809523825
496.355,288.6499047619049
499.048,250.96985714285725
501.74,207.66138095238108
504.43,176.4967142857144
507.118,191.81909523809537
509.804,180.3051904761906
512.488,213.67938095238108
515.17,235.71323809523824
517.85,278.41700952380967
520.528,270.94334285714297
523.204,217.96875238095242
525.878,129.69343809523815
528.551,86.50791428571435
531.221,69.08800952380957
533.89,90.44327142857148
536.556,87.3921428571429
539.221,94.6099952380953
541.883,87.77234761904766
544.544,80.74479047619053
547.203,84.6307095238096
549.86,105.15237619047628
552.515,120.74644285714295
555.168,151.03910000000008
557.819,139.7044428571429
560.469,125.65393333333341
563.116,119.17989047619056
565.761,132.28882857142867
568.405,132.89183809523817
571.047,140.6135714285715
573.687,115.2213952380953
576.324,117.48203809523815
578.96,116.01945238095246
581.594,112.2668714285715
584.227,123.27586666666674
586.857,146.66958571428577
589.485,140.16555238095248
592.112,144.8619857142858
594.737,129.2855047619048
597.359,84.01004761904768
599.98,71.418580952381
602.599,76.3225428571429
605.216,84.24697619047625
607.831,83.66917142857147
610.445,76.44704285714289
613.056,73.24756190476195
615.666,76.78514761904769
618.274,100.86895238095246
620.88,131.11754285714295
623.484,156.81558095238108
626.086,179.5809523809525
628.686,220.7453333333335
631.284,296.0212380952383
633.881,318.2636190476192
636.476,305.2318095238097
639.068,259.06619047619057
641.659,202.57319047619058
644.249,164.17797142857154
646.836,156.59150000000005
649.421,111.28618571428578
652.005,102.3054314285715
654.587,73.26460761904765
657.166,65.77812000000003
659.745,58.222370476190484
662.321,30.21191714285715
664.895,3.408587619047644
667.468,31.6170485714286
670.038,45.92753714285718
672.607,64.23971142857147
675.174,91.643720952381
677.739,65.13445714285714
680.303,46.37332380952385
682.864,58.498300000000036
685.424,55.980314285714336
687.982,62.3857571428572
690.538,78.32865238095239
693.092,58.66111428571433
695.645,77.99737619047625
698.195,85.66583809523814
700.744,77.99509904761909
703.291,53.59955142857144
705.836,35.47465047619051
708.38,51.520610476190534
710.921,62.25721428571431
713.461,39.680022380952394
715.999,34.02312190476191
718.535,10.663505238095276
721.069,49.31188000000007
723.602,89.8215185714286
726.133,100.80827333333337
728.662,104.41138571428577
731.189,120.38986666666675
733.714,143.02617142857156
736.238,164.88921904761912
738.759,154.64259047619058
741.279,154.42685714285724
743.798,133.66781428571434
746.314,130.60143809523817
748.829,110.17752857142861
751.342,83.91802857142865
753.853,98.29691904761913
756.362,114.26474285714292
758.869,123.58142857142866
761.375,149.72161904761913
763.879,127.54090476190484
766.381,116.27606190476197
768.882,94.9257523809524
771.38,55.4409428571429
773.877,55.34440000000005
776.372,64.63505714285719
778.866,79.02605714285721
781.357,111.46933809523817
783.847,128.05919047619057
786.335,117.74737619047625
788.821,99.29549523809526
791.306,74.51238571428576
793.789,83.4929714285715
796.27,90.66578571428578
798.749,97.12563809523813
801.227,102.34886666666672
803.702,87.3829714285715
806.176,101.60900000000011
808.649,138.55124761904773
811.119,146.40021904761915
813.588,149.5371238095239
816.055,128.4864333333334
818.521,138.48665714285727
820.984,153.96719523809534
823.446,176.50000952380964
825.906,167.41920476190484
828.365,143.72534285714292
830.821,104.03874285714295
833.276,124.02691428571435
835.729,120.5958476190477
838.181,142.84162857142866
840.631,133.52750476190482
843.079,120.22595238095245
845.525,111.60524285714293
847.97,113.80951428571436
850.412,115.22100571428578
852.854,104.26990809523814
855.293,78.43396095238099
857.731,35.286148571428576
860.167,19.590115238095272
862.601,18.204813333333366
865.034,49.41750000000005
867.465,68.65869000000005
869.894,78.54929238095242
872.321,79.51978095238101
874.747,95.76246190476196
877.171,96.37487619047627
879.594,123.50169047619057
882.014,148.04981904761914
884.433,172.2593809523811
886.851,228.2753333333335
889.266,236.38561904761917
891.68,239.25909523809537
894.092,240.80257142857153
896.503,225.97076190476204
898.912,214.8607142857144
901.319,215.04642857142866
903.724,183.1015238095239
906.128,175.69471428571438
908.53,156.25723809523816
910.931,162.02933333333345
913.329,177.8225142857144
915.726,164.0676095238096
918.122,140.290361904762
920.516,134.58839047619054
922.908,130.44013333333342
925.298,138.32401904761912
927.687,139.5279571428572
930.074,111.6252666666667
932.459,96.52302380952388
934.843,102.9850857142858
937.225,113.72755238095245
939.605,106.6096723809524
941.984,66.96671285714287
944.361,41.991049523809565
946.736,38.35138714285716
949.11,47.85892440952384
951.482,42.13447433809525
953.853,39.98923820000001
956.222,19.663016471428588
958.589,13.728822961904779
960.954,26.47395671904766
963.318,58.85212726666671
965.68,76.67447619047624
968.041,92.22809523809528
970.4,93.3238047619048
972.757,87.62970000000007
975.113,102.1469952380953
977.467,105.06692190476195
979.819,69.4384004761905
982.17,63.357724761904805
984.519,51.111542380952436
986.866,77.27229619047627
989.212,116.5075576190477
991.556,138.29425047619057
993.899,151.061542857143
996.24,179.6198761904763
998.579,200.44585714285728
1000.92,234.54014285714297
1003.25,226.95090476190484
1005.59,201.678761904762
1007.92,178.2472857142858
1010.25,149.80009523809534
1012.58,134.48023809523818
1014.91,139.47847619047627
1017.24,154.17576190476203
1019.56,181.47742857142873
1021.88,189.8594285714287
1024.2,195.84561904761915
1026.52,193.86490476190488
1028.84,184.10709523809533
1031.16,186.19138095238108
1033.48,190.73690476190484
1035.79,179.41004761904773
1038.1,148.97242857142868
1040.41,154.37614285714295
1042.72,158.2397142857144
1045.03,180.56319047619058
1047.33,201.77457142857153
1049.64,234.73080952380965
1051.94,233.5266666666668
1054.24,250.447142857143
1056.54,238.63452380952396
1058.84,229.612142857143
1061.13,217.85552380952396
1063.43,218.36419047619063
1065.72,217.47100000000015
1068.01,238.93700000000018
1070.3,243.57104761904776
1072.59,260.6105714285716
1074.87,281.53071428571445
1077.16,283.33080952380965
1079.44,316.81980952380974
1081.72,353.2347142857146
1084.0,402.4799523809527
1086.28,493.1734285714289
1088.56,634.21880952381
1090.84,774.6152857142862
1093.11,876.4570476190481
1095.38,843.5527619047622
1097.65,747.3302380952384
1099.92,636.8360000000004
1102.19,551.2595238095241
1104.46,497.31409523809555
1106.72,491.9033809523813
1108.98,482.5505238095241
1111.24,533.5402380952385
1113.5,615.1568095238099
1115.76,654.7801904761909
1118.02,699.3618571428576
1120.28,757.9005714285719
1122.53,750.8242857142861
1124.78,715.2269523809528
1127.03,675.583428571429
1129.28,567.0355238095241
1131.53,482.7729523809527
1133.77,408.5088571428573
1136.02,330.57547619047637
1138.26,275.59090476190494
1140.5,280.17295238095255
1142.74,274.74909523809544
1144.98,279.89000000000016
1147.22,300.21333333333354
1149.45,332.0990000000002
1151.69,317.5939047619049
1153.92,282.5540476190477
1156.15,235.12110476190483
1158.38,159.1039333333334
1160.61,112.59644285714295
1162.83,101.50257619047625
1165.06,87.53578571428578
1167.28,89.21894666666672
1169.5,88.31268476190478
1171.72,61.00681714285716
1173.94,35.44325333333335
1176.16,26.668764761904797
1178.37,34.634941904761945
1180.58,64.007560952381
1182.8,66.88103714285717
1185.01,50.778422857142864
1187.22,27.032350476190494
1189.42,21.16584380952384
1191.63,33.89269809523816
1193.84,98.16460857142866
1196.04,142.02842285714294
1198.24,140.81696666666673
1200.44,137.57736666666673
1202.64,98.26159047619053
1204.84,96.10763333333342
1207.03,110.30553333333339
1209.23,113.47394190476194
1211.42,85.3746442857143
1213.61,55.00751238095238
1215.8,8.658293809523837
1217.99,22.27948285714288
1220.18,14.061631428571452
1222.36,42.14778761904765
1224.55,50.157370000000014
1226.73,32.23363619047622
1228.91,43.56739190476195
1231.09,69.540260952381
1233.27,69.29570952380958
1235.44,100.59615714285721
1237.62,85.29960476190479
1239.79,62.978095238095285
1241.96,79.20362380952388
1244.13,91.50104285714293
1246.3,95.10919047619055
1248.47,122.17152857142862
1250.64,104.59377619047623
1252.8,91.09082380952387
1254.96,82.18727142857146
1257.13,69.88403809523814
1259.29,83.42007619047627
1261.44,118.70074285714296
1263.6,135.58426666666674
1265.76,142.26159047619055
1267.91,138.8765238095239
1270.06,142.43009523809536
1272.22,165.20880952380963
1274.37,165.21347619047629
1276.51,151.8260476190477
1278.66,127.33266666666673
1280.81,110.44842857142864
1282.95,108.88890476190485
1285.09,139.03580952380963
1287.23,154.60419047619055
1289.37,176.02338095238105
1291.51,197.0087142857144
1293.65,208.41780952380964
1295.78,200.34723809523825
1297.92,166.6073095238096
1300.05,144.1987142857144
1302.18,133.6937857142858
1304.31,126.18866666666676
1306.44,153.68402380952392
1308.57,183.08566666666678
1310.69,196.1086666666668
1312.82,227.27785714285727
1314.94,241.35580952380963
1317.06,222.5337142857144
1319.18,223.1933333333335
1321.3,234.66909523809542
1323.41,256.2949523809525
1325.53,288.1673333333335
1327.64,329.6202380952383
1329.75,354.8448095238098
1331.87,374.98476190476214
1333.98,379.94557142857167
1336.08,405.7280000000003
1338.19,419.66647619047643
1340.3,412.66633333333357
1342.4,376.1093809523811
1344.5,349.4726190476192
1346.6,307.75647619047635
1348.7,290.62890476190495
1350.8,257.37604761904777
1352.9,251.04642857142872
1354.99,256.4025714285716
1357.09,291.8735714285716
1359.18,316.6030000000002
1361.27,341.83004761904783
1363.36,341.55528571428596
1365.45,367.0651904761907
1367.54,378.59804761904786
1369.62,403.1548095238098
1371.7,425.7360000000002
1373.79,469.7711904761908
1375.87,489.21323809523835
1377.95,498.7291428571431
1380.03,479.4146190476193
1382.1,442.7467619047621
1384.18,383.86885714285734
1386.25,317.686523809524
1388.33,262.2952857142859
1390.4,229.60052380952393
1392.47,217.6978571428573
1394.54,212.2546666666668
1396.6,210.60433333333344
1398.67,208.31909523809534
1400.74,211.11357142857153
1402.8,218.4166666666668
1404.86,217.84780952380967
1406.92,231.8360476190478
1408.98,254.3340571428573
1411.04,225.6281761904763
1413.09,214.5758285714287
1415.15,204.84372857142867
1417.2,196.47992380952397
1419.25,196.48441428571442
1421.3,224.76272380952395
1423.35,191.55285714285725
1425.4,203.99804761904775
1427.45,217.90780952380968
1429.49,221.5206666666668
1431.54,190.50309523809537
1433.58,178.04595238095246
1435.62,147.86342857142867
1437.66,156.28914285714296
1439.7,182.46609523809536
1441.74,201.9657142857144
1443.77,180.8830000000001
1445.81,187.31314285714296
1447.84,187.8277142857144
1449.87,194.42671428571438
1451.9,203.1100000000001
1453.93,187.1155714285715
1455.96,151.91914285714296
1457.98,172.52080952380965
1460.01,168.53961904761914
1462.03,169.5942857142858
1464.05,186.20814285714295
1466.07,183.1907142857144
1468.09,188.06528571428586
1470.11,216.54571428571438
1472.13,189.48909523809533
1474.14,186.7996190476192
1476.16,217.6198095238097
1478.17,209.1396904761906
1480.18,191.07319047619058
1482.19,176.37178571428578
1484.2,114.65434761904767
1486.21,76.5391571428572
1488.21,92.88299523809529
1490.22,87.44687142857148
1492.22,95.08739047619056
1494.22,106.66089523809529
1496.22,99.5001571428572
1498.22,91.12806666666673
1500.22,108.40107809523815
1502.22,88.31822809523813
1504.21,70.54534666666669
1506.21,53.462500476190506
1508.2,59.068908571428615
1510.19,56.26821380952384
1512.18,58.67847809523811
1514.17,36.917714285714304
1516.16,20.65152380952383
1518.14,23.355004761904794
1520.13,32.59847142857146
1522.11,57.380761904761954
1524.09,80.70085238095245
1526.07,120.7480095238096
1528.05,105.7591142857143
1530.03,87.73300000000005
1532.01,84.19240476190483
1533.98,96.85045714285722
1535.96,103.13478571428578
1537.93,106.56805714285716
1539.9,84.24450476190482
1541.87,59.35348571428577
1543.84,93.94170476190484
1545.81,107.00810952380958
1547.78,130.74228571428577
1549.74,123.95288095238102
1551.7,133.1150095238096
1553.67,117.27561428571435
1555.63,128.05287619047627
1557.59,114.06495238095245
1559.55,118.40614285714294
1561.5,113.98042857142865
1563.46,131.310761904762
1565.41,131.92040476190485
1567.37,129.4753333333334
1569.32,131.16540476190482
1571.27,131.56080952380964
1573.22,142.7564523809525
1575.17,162.8470000000001
1577.11,174.78395238095248
1579.06,172.51928571428584
1581.0,184.76680952380963
1582.95,188.43014285714295
1584.89,190.461761904762
1586.83,185.71785714285727
1588.77,185.53128571428584
1590.7,197.52052380952395
1592.64,195.35214285714298
1594.58,190.1205238095239
1596.51,175.44430952380964
1598.44,148.65633333333344
