Raman Shift,Processed Intensity
331.095,44.22083380952303
333.909,-95.9050104761907
336.721,-106.28008476190472
339.531,-43.63243238095234
342.339,3.952003809523833
345.145,61.15020952380953
347.949,28.189760952380915
350.751,-8.223368571428583
353.55,-36.38103333333332
356.348,-6.953938095238073
359.144,6.103905714285744
361.937,48.649760952381
364.729,72.25786095238104
367.518,135.50392380952397
370.306,231.442304761905
373.091,378.79560952380984
375.874,537.5268095238099
378.656,625.2192380952384
381.435,587.078104761905
384.212,442.690580952381
386.988,253.74135714285723
389.761,103.7736428571429
392.532,46.95177619047623
395.301,27.25095047619051
398.068,20.219955238095253
400.833,26.313705714285735
403.596,17.274597142857136
406.358,-6.486718095238102
409.117,-8.22463619047619
411.874,-9.430045714285715
414.629,-11.687559047619025
417.382,16.276896190476215
420.133,40.357807619047676
422.882,83.21327523809536
425.629,175.12128476190492
428.374,273.40909523809546
431.117,380.26206666666695
433.858,451.00971428571455
436.597,432.4112380952383
439.334,347.0362380952382
442.069,282.883761904762
444.802,233.33519047619063
447.533,238.77233333333353
450.262,310.33995238095264
452.989,360.04085714285736
455.714,377.7827142857145
458.438,369.6173333333334
461.159,290.0255238095239
463.878,176.39342857142864
466.595,138.2982380952382
469.31,131.3174761904763
472.024,145.31514285714297
474.735,177.82209523809536
477.444,191.70314285714295
480.152,176.63295238095253
482.857,204.28619047619063
485.561,257.9092857142859
488.262,271.22576190476207
490.962,281.57757142857156
493.659,255.83142857142866
496.355,225.1868571428573
499.048,195.51019047619062
501.74,189.62085714285726
504.43,172.09990476190487
507.118,162.10009523809535
509.804,168.72628571428586
512.488,223.22609523809538
515.17,265.0856190476192
517.85,277.88580952380966
520.528,257.2552380952382
523.204,199.68009523809533
525.878,141.31238095238103
528.551,126.68523809523819
531.221,121.4270714285715
533.89,137.59419047619056
536.556,119.52902380952385
539.221,92.81186666666673
541.883,69.92745714285721
544.544,72.64599047619053
547.203,80.21357619047625
549.86,91.25733333333338
552.515,94.40402380952386
555.168,90.37536190476197
557.819,110.32130476190486
560.469,136.58242857142866
563.116,171.97447619047628
565.761,186.69447619047628
568.405,210.55814285714297
571.047,193.85709523809533
573.687,181.9299523809525
576.324,183.82983809523822
578.96,163.4661000000001
581.594,135.22439047619056
584.227,134.39461428571437
586.857,119.69520000000009
589.485,150.41515238095252
592.112,154.27218809523814
594.737,141.60253333333338
597.359,88.31383809523813
599.98,65.40833333333337
602.599,45.69769047619053
605.216,76.7549428571429
607.831,48.295911904761944
610.445,71.55946190476195
613.056,53.26106666666671
615.666,72.54394285714292
618.274,90.74181428571436
620.88,124.37838095238104
623.484,147.73910000000012
626.086,206.53764761904773
628.686,232.10671428571445
631.284,256.7308095238097
633.881,248.26590476190492
636.476,236.90076190476202
639.068,210.96690476190486
641.659,217.3196857142858
644.249,178.24269047619055
646.836,141.82890476190482
649.421,103.8854428571429
652.005,57.12394761904764
654.587,18.11306666666669
657.166,22.08813333333334
659.745,11.617709523809555
662.321,36.60355714285718
664.895,41.70934761904764
667.468,57.503476190476235
670.038,66.4113466666667
672.607,46.81074190476193
675.174,48.698702857142905
677.739,64.83369142857147
680.303,73.06964095238102
682.864,97.30816571428575
685.424,88.30787047619049
687.982,52.017923809523836
690.538,42.00678095238098
693.092,24.794861904761916
695.645,19.664776190476196
698.195,7.899157142857144
700.744,2.6854095238095406
703.291,9.5443523809524
705.836,27.520709523809543
708.38,36.99257619047622
710.921,61.861885714285755
713.461,69.45918380952384
715.999,58.78177190476193
718.535,43.16030571428574
721.069,38.8302585714286
723.602,26.884276666666693
726.133,44.22455190476194
728.662,64.27716047619052
731.189,54.515784761904804
733.714,70.98568047619054
736.238,92.58929238095243
738.759,101.2287857142858
741.279,125.94943333333342
743.798,128.17757619047623
746.314,102.24424285714291
748.829,76.9568523809524
751.342,37.55140000000003
753.853,42.26361428571434
756.362,65.9961571428572
758.869,91.46132380952388
761.375,119.84746190476194
763.879,109.34308285714287
766.381,64.08910428571431
768.882,43.797913333333355
771.38,21.658081428571457
773.877,38.85833714285719
776.372,59.58732428571431
778.866,54.79572666666668
781.357,42.24374952380954
783.847,40.21551142857144
786.335,23.614157142857167
788.821,26.866706666666694
791.306,47.68608857142861
793.789,62.499339047619095
796.27,67.59079333333337
798.749,82.48305047619053
801.227,94.03190476190483
803.702,100.61705238095246
806.176,135.09470476190484
808.649,151.1776571428572
811.119,151.19838095238106
813.588,151.91800000000006
816.055,147.9545238095239
818.521,133.3548476190477
820.984,108.49913333333339
823.446,97.38655238095247
825.906,116.44477142857153
828.365,137.6735523809525
830.821,148.7388476190477
833.276,147.97370476190483
835.729,132.33000000000007
838.181,122.85509523809532
840.631,140.6434380952382
843.079,154.21923714285722
845.525,117.91559428571432
847.97,86.44687904761909
850.412,81.33688952380956
852.854,51.299929523809574
855.293,54.812204761904795
857.731,62.82657238095239
860.167,24.771915238095257
862.601,33.74366952380958
865.034,69.59954571428577
867.465,82.14966666666673
869.894,94.68031428571435
872.321,104.09687619047625
874.747,108.87619047619057
877.171,138.44752380952391
879.594,163.47845714285725
882.014,168.20778095238103
884.433,157.35066666666677
886.851,154.95595238095248
889.266,184.92909523809539
891.68,255.55690476190495
894.092,309.5548095238097
896.503,306.97109523809536
898.912,268.85485714285727
901.319,234.30257142857155
903.724,219.36285714285734
906.128,249.37014285714304
908.53,257.7067142857144
910.931,235.61161904761917
913.329,222.6104285714287
915.726,212.41852380952395
918.122,216.27509523809536
920.516,227.70519047619058
922.908,221.51952380952395
925.298,214.95747619047634
927.687,224.35400000000016
930.074,211.71033333333344
932.459,204.64671428571438
934.843,206.21195238095248
937.225,188.83604761904772
939.605,162.2342380952382
941.984,156.50340285714293
944.361,109.83496238095242
946.736,76.18266761904766
949.11,82.54740428571434
951.482,80.78781047619054
953.853,92.3808195238096
956.222,118.7090028571429
958.589,122.3922857142858
960.954,123.28889523809532
963.318,128.78056190476198
965.68,156.2019523809525
968.041,184.6489523809525
970.4,195.12285714285727
972.757,214.00533333333343
975.113,191.20238095238102
977.467,167.47630476190488
979.819,145.87606666666676
982.17,144.59256190476202
984.519,152.0556000000001
986.866,165.2179904761906
989.212,176.7475904761906
991.556,216.59711428571444
993.899,252.43428571428592
996.24,303.87847619047636
998.579,321.1688571428573
1000.92,319.11528571428585
1003.25,279.62333333333345
1005.59,238.26504761904775
1007.92,213.04133333333345
1010.25,202.04752380952394
1012.58,193.99895238095252
1014.91,180.37195238095248
1017.24,172.64319047619063
1019.56,182.28961904761917
1021.88,193.02619047619064
1024.2,226.09119047619063
1026.52,273.5328571428573
1028.84,281.9702857142859
1031.16,284.2611904761906
1033.48,290.26333333333355
1035.79,280.2627142857145
1038.1,262.54576190476206
1040.41,270.54085714285736
1042.72,306.2007142857145
1045.03,294.0020000000002
1047.33,333.2784761904764
1049.64,348.2208095238097
1051.94,346.78180952380967
1054.24,348.00923809523835
1056.54,346.1411904761907
1058.84,292.17809523809547
1061.13,272.4060000000002
1063.43,250.4440000000002
1065.72,288.24457142857165
1068.01,357.0461904761907
1070.3,406.37228571428597
1072.59,430.2233333333336
1074.87,406.50438095238115
1077.16,370.7869523809526
1079.44,367.59500000000025
1081.72,408.45252380952405
1084.0,468.0258095238099
1086.28,574.5532857142861
1088.56,687.3686666666672
1090.84,828.4228095238102
1093.11,939.3840476190483
1095.38,992.8714761904768
1097.65,940.3133809523814
1099.92,829.9480952380954
1102.19,694.2993333333336
1104.46,591.1272857142861
1106.72,544.6718571428576
1108.98,575.5039523809528
1111.24,621.4807619047624
1113.5,693.7449523809529
1115.76,747.4870952380957
1118.02,790.7067142857147
1120.28,808.9279523809529
1122.53,808.6744761904766
1124.78,745.9463809523813
1127.03,674.2668571428575
1129.28,602.588428571429
1131.53,557.6250000000003
1133.77,508.56709523809553
1136.02,435.08161904761926
1138.26,363.4539523809526
1140.5,321.874285714286
1142.74,324.1042857142859
1144.98,370.3819523809526
1147.22,410.945285714286
1149.45,401.50857142857166
1151.69,389.07114285714306
1153.92,347.7760952380954
1156.15,286.09895238095254
1158.38,245.3735523809525
1160.61,184.8376476190477
1162.83,113.10996190476196
1165.06,84.09487619047624
1167.28,78.98296190476196
1169.5,87.10693333333342
1171.72,128.41941904761913
1173.94,143.34850952380958
1176.16,116.46545714285719
1178.37,90.91300000000004
1180.58,76.07182857142863
1182.8,70.27505714285721
1185.01,89.61782051428575
1187.22,71.57597875238096
1189.42,53.10182417142862
1191.63,52.86178058095244
1193.84,101.28384321904775
1196.04,156.27294541904772
1198.24,201.35251575238107
1200.44,182.18895238095246
1202.64,171.2110000000001
1204.84,157.75142857142868
1207.03,148.6195238095239
1209.23,119.81530000000005
1211.42,68.14789523809524
1213.61,41.33133809523815
1215.8,66.93719047619055
1217.99,94.10774761904769
1220.18,97.22393809523814
1222.36,96.76160000000003
1224.55,78.00636666666672
1226.73,88.62474761904768
1228.91,80.33101428571432
1231.09,65.31544761904765
1233.27,44.95889523809528
1235.44,43.83255238095243
1237.62,66.79360952380958
1239.79,81.22298571428574
1241.96,86.31127619047626
1244.13,103.34414285714291
1246.3,119.70276190476199
1248.47,134.76801904761913
1250.64,130.34955238095245
1252.8,97.73322380952385
1254.96,88.58592380952386
1257.13,82.71742857142864
1259.29,78.31859047619054
1261.44,93.77051428571434
1263.6,87.50206190476196
1265.76,95.89434761904769
1267.91,115.28098571428579
1270.06,131.66266666666675
1272.22,139.372861904762
1274.37,151.55488571428583
1276.51,157.0187142857144
1278.66,168.8597142857144
1280.81,174.41209523809533
1282.95,167.39061904761914
1285.09,160.55728571428583
1287.23,181.24604761904774
1289.37,204.64803809523823
1291.51,184.71601428571438
1293.65,168.87931428571437
1295.78,152.66212857142864
1297.92,132.87431428571438
1300.05,148.99315714285723
1302.18,153.7333714285715
1304.31,120.80995238095245
1306.44,123.08033333333346
1308.57,136.06904761904772
1310.69,173.4433809523811
1312.82,213.7755714285716
1314.94,238.25652380952394
1317.06,241.9823333333335
1319.18,241.3821904761906
1321.3,240.50447619047637
1323.41,246.54033333333348
1325.53,258.2521904761906
1327.64,291.02157142857163
1329.75,327.42080952380974
1331.87,373.97438095238124
1333.98,428.77823809523835
1336.08,439.45195238095266
1338.19,448.5204761904765
1340.3,434.07928571428596
1342.4,419.27204761904784
1344.5,408.2901428571431
1346.6,382.5624761904764
1348.7,343.23280952380975
1350.8,314.2544285714288
1352.9,312.6276666666669
1354.99,345.0196666666669
1357.09,367.52690476190503
1359.18,375.4829523809526
1361.27,374.3171904761907
1363.36,356.1255714285717
1365.45,344.52780952380976
1367.54,369.2385714285717
1369.62,409.2587619047622
1371.7,445.44585714285745
1373.79,497.27671428571455
1375.87,510.3236190476193
1377.95,502.3489523809526
1380.03,511.353285714286
1382.1,488.14666666666693
1384.18,423.87238095238115
1386.25,391.1502857142859
1388.33,332.6472380952383
1390.4,306.5066666666669
1392.47,289.6337142857144
1394.54,255.31476190476204
1396.6,231.50285714285732
1398.67,236.38866666666678
1400.74,219.44866666666678
1402.8,202.20709523809535
1404.86,189.28319047619058
1406.92,190.0584285714287
1408.98,211.39052380952396
1411.04,219.6127142857144
1413.09,229.53528571428586
1415.15,233.06295238095248
1417.2,231.52938095238108
1419.25,205.8870476190477
1421.3,188.65985714285725
1423.35,185.41914285714302
1425.4,205.21300000000014
1427.45,235.85095238095255
1429.49,236.61919047619057
1431.54,217.89857142857156
1433.58,188.59361904761914
1435.62,177.3234285714287
1437.66,179.56409523809538
1439.7,192.98204761904776
1441.74,199.5774285714287
1443.77,239.58819047619062
1445.81,222.72828571428582
1447.84,223.80723809523823
1449.87,216.63433333333342
1451.9,199.39933333333346
1453.93,209.53066666666683
1455.96,241.26628571428589
1457.98,260.7483333333335
1460.01,272.9768571428573
1462.03,286.6178095238097
1464.05,262.242142857143
1466.07,263.99200000000013
1468.09,255.96204761904775
1470.11,241.38966666666676
1472.13,209.2746666666668
1474.14,220.9489523809525
1476.16,232.98385714285732
1478.17,252.66380000000012
1480.18,227.27368095238103
1482.19,178.52721904761913
1484.2,144.80415714285724
1486.21,108.9605095238096
1488.21,117.9003095238096
1490.22,133.52719523809532
1492.22,108.07803809523814
1494.22,80.83750000000005
1496.22,66.51826190476194
1498.22,60.262161904761975
1500.22,84.49632857142863
1502.22,121.69585714285721
1504.21,111.52570000000004
1506.21,110.60360000000006
1508.2,68.54710476190479
1510.19,55.497695238095275
1512.18,47.120647619047645
1514.17,40.70032380952383
1516.16,45.66408571428577
1518.14,66.10590000000003
1520.13,71.35758095238103
1522.11,80.22766666666669
1524.09,93.81029523809529
1526.07,81.7710190476191
1528.05,83.58513809523814
1530.03,64.87053333333337
1532.01,74.911780952381
1533.98,66.32718571428576
1535.96,77.30634190476194
1537.93,60.657889523809544
1539.9,37.714350476190496
1541.87,36.522586666666705
1543.84,39.748517142857175
1545.81,51.62957523809529
1547.78,69.83157523809528
1549.74,105.8780238095239
1551.7,136.19658095238105
1553.67,158.73920000000007
1555.63,145.6960571428572
1557.59,132.35220952380956
1559.55,106.51658095238103
1561.5,139.28410476190487
1563.46,135.36841428571432
1565.41,128.34091428571438
1567.37,135.9631380952382
1569.32,140.9967238095239
1571.27,139.5840333333334
1573.22,140.2486047619048
1575.17,107.32386666666673
1577.11,104.71428095238103
1579.06,115.89586666666675
1581.0,136.15405238095246
1582.95,156.96463809523817
1584.89,139.23265714285722
1586.83,128.95826666666676
1588.77,158.61729523809535
1590.7,174.3530285714287
1592.64,192.02199047619058
1594.58,207.07670476190492
1596.51,221.20780476190504
1598.44,236.0820571428575
