Raman Shift,Processed Intensity
331.095,29.51976904761896
333.909,0.21903809523819007
336.721,-31.259983333333242
339.531,-58.99002857142861
342.339,-82.87825238095242
345.145,-73.28269333333337
347.949,-67.93818619047622
350.751,-35.38592952380952
353.55,-9.354428095238088
356.348,0.09759428571428153
359.144,9.29551857142858
361.937,12.091463809523848
364.729,48.531061904762026
367.518,160.51990476190494
370.306,291.3475095238097
373.091,416.68725714285745
375.874,542.0242857142861
378.656,587.0842857142861
381.435,525.9291428571431
384.212,391.5751428571431
386.988,246.27944761904772
389.761,115.3966857142858
392.532,68.99775238095245
395.301,82.77440000000007
398.068,74.65893333333337
400.833,84.01380000000006
403.596,89.48961428571431
406.358,95.59565619047626
409.117,85.27181095238099
411.874,78.03064571428575
414.629,56.43443190476196
417.382,68.61767428571434
420.133,67.19356809523818
422.882,117.68092761904771
425.629,163.8857333333335
428.374,239.09142857142876
431.117,324.01133333333354
433.858,357.50233333333347
436.597,366.56614285714306
439.334,341.014523809524
442.069,308.80314285714303
444.802,304.8886190476193
447.533,304.27571428571446
450.262,322.2083333333336
452.989,389.97900000000027
455.714,411.59471428571453
458.438,369.01590476190495
461.159,324.1558571428573
463.878,256.7375714285716
466.595,215.9133333333335
469.31,245.83628571428588
472.024,235.89752380952393
474.735,240.39342857142873
477.444,282.19219047619066
480.152,287.2097619047621
482.857,307.60057142857164
485.561,311.04328571428584
488.262,314.40700000000027
490.962,345.6082380952383
493.659,358.0875714285716
496.355,340.04752380952397
499.048,297.69119047619057
501.74,214.60214285714295
504.43,188.69757142857154
507.118,173.41823809523822
509.804,177.77600000000012
512.488,219.6873809523811
515.17,226.5459523809525
517.85,244.07742857142873
520.528,249.4840952380954
523.204,245.20609523809534
525.878,196.34992857142865
528.551,151.9264285714286
531.221,107.47081428571434
533.89,86.46973809523816
536.556,79.88607619047625
539.221,97.34889047619053
541.883,105.77320476190484
544.544,129.8827476190477
547.203,139.6869000000001
549.86,122.57567142857147
552.515,87.36725714285718
555.168,99.97483333333341
557.819,122.59728571428582
560.469,154.52809047619056
563.116,155.2506952380953
565.761,162.43885714285724
568.405,149.52780952380965
571.047,163.47671428571437
573.687,165.81519047619057
576.324,174.83470476190487
578.96,144.6833000000001
581.594,146.12750476190485
584.227,153.69584285714294
586.857,138.44021904761914
589.485,149.50732857142867
592.112,136.09092380952384
594.737,103.67006666666673
597.359,89.67592857142863
599.98,91.5871866666667
602.599,54.16760333333337
605.216,47.03796380952383
607.831,28.00873952380956
610.445,47.509440000000055
613.056,78.87384619047626
615.666,96.2925771428572
618.274,86.28911428571433
620.88,96.86280476190487
623.484,166.96549047619064
626.086,266.1674333333335
628.686,331.46681904761925
631.284,376.2901904761907
633.881,392.0161904761907
636.476,375.16609523809547
639.068,360.26090476190495
641.659,331.2022857142859
644.249,242.12957142857155
646.836,187.22914285714296
649.421,179.02080000000012
652.005,157.78596666666675
654.587,147.94834285714296
657.166,128.26547142857146
659.745,82.44663800000004
662.321,44.67705966666669
664.895,28.618047904761923
667.468,29.930817000000047
670.038,41.03823838095242
672.607,67.88720728571435
675.174,99.6622713333334
677.739,120.88147619047628
680.303,123.4913857142858
682.864,140.24807619047624
685.424,92.098080952381
687.982,57.702328571428595
690.538,28.150190476190495
693.092,27.388471428571464
695.645,35.17354476190479
698.195,49.595235238095235
700.744,28.553001428571434
703.291,5.2797623809523815
705.836,3.0086433333333478
708.38,6.0204814285714345
710.921,12.596259047619052
713.461,-1.7448000000000028
715.999,15.326441428571457
718.535,21.186514761904796
721.069,53.2122890476191
723.602,72.44744714285719
726.133,98.69793809523816
728.662,106.67412857142864
731.189,129.27760000000006
733.714,139.31444285714295
736.238,149.87689523809533
738.759,144.91390476190486
741.279,169.946761904762
743.798,197.11514285714296
746.314,190.60680952380963
748.829,170.704761904762
751.342,151.692761904762
753.853,140.90111428571439
756.362,127.89954285714295
758.869,143.78113333333343
761.375,149.7818095238096
763.879,131.661461904762
766.381,130.6566476190477
768.882,123.0034952380953
771.38,105.31964761904771
773.877,108.98442857142865
776.372,127.42515238095247
778.866,130.97395714285722
781.357,126.15333809523817
783.847,115.05743809523815
786.335,102.06623809523815
788.821,75.89300952380957
791.306,61.965666666666706
793.789,67.09300000000006
796.27,72.41734761904769
798.749,99.8426571428572
801.227,123.32100952380962
803.702,148.37570476190487
806.176,194.53052380952394
808.649,217.7373809523811
811.119,213.7107142857144
813.588,210.21214285714296
816.055,195.19433333333342
818.521,166.75242857142868
820.984,165.17242857142867
823.446,163.2163714285715
825.906,145.3131095238096
828.365,136.7486952380953
830.821,158.2381761904763
833.276,150.06750476190484
835.729,158.52301428571442
838.181,192.98660952380962
840.631,177.31566666666674
843.079,158.1302857142858
845.525,158.8122857142858
847.97,128.83845238095245
850.412,99.92419047619053
852.854,96.02283333333338
855.293,73.08766190476196
857.731,72.02485238095244
860.167,87.12098571428578
862.601,93.94880952380959
865.034,89.46196666666671
867.465,88.37591428571433
869.894,87.69187619047624
872.321,75.45900000000006
874.747,101.53549523809534
877.171,151.92316190476203
879.594,182.71851428571443
882.014,215.73280000000017
884.433,252.3958952380954
886.851,288.56657142857165
889.266,317.198523809524
891.68,334.8650000000001
894.092,318.47223809523825
896.503,307.7840476190478
898.912,275.6593333333335
901.319,266.05204761904776
903.724,263.106523809524
906.128,238.4439047619049
908.53,229.161142857143
910.931,239.8311904761906
913.329,214.31304761904775
915.726,176.70400000000012
918.122,169.05323809523816
920.516,142.0295714285715
922.908,136.11071428571438
925.298,168.67914285714295
927.687,178.26071428571439
930.074,174.1434761904763
932.459,165.42419047619057
934.843,145.0093428571429
937.225,107.0435333333334
939.605,110.71911428571434
941.984,106.94280476190482
944.361,75.04988571428575
946.736,63.184790476190514
949.11,43.396795238095244
951.482,23.306919047619083
953.853,32.155023809523826
956.222,37.03802380952383
958.589,38.76724285714291
960.954,71.29670476190482
963.318,102.62786666666676
965.68,131.8098857142858
968.041,131.22517619047625
970.4,102.9228047619048
972.757,91.57093809523815
975.113,67.12320952380956
977.467,62.81909047619053
979.819,86.84996666666675
982.17,132.8836857142858
984.519,140.49295714285722
986.866,163.2979904761906
989.212,172.77586666666676
991.556,182.73717142857157
993.899,226.61103809523823
996.24,267.97008571428586
998.579,276.10071428571445
1000.92,277.7658095238097
1003.25,301.1087142857145
1005.59,267.9874285714287
1007.92,239.1643809523811
1010.25,208.6881904761906
1012.58,188.9874761904763
1014.91,181.1582380952382
1017.24,207.5342857142858
1019.56,176.92590476190486
1021.88,167.38085714285725
1024.2,168.66157142857156
1026.52,181.62528571428584
1028.84,191.79604761904773
1031.16,221.36476190476205
1033.48,232.42719047619062
1035.79,223.745142857143
1038.1,252.60471428571446
1040.41,269.6251904761906
1042.72,269.5683809523811
1045.03,288.62519047619065
1047.33,286.03352380952396
1049.64,247.0316190476192
1051.94,268.5718095238097
1054.24,273.5589523809526
1056.54,271.99295238095254
1058.84,253.1596666666668
1061.13,233.106142857143
1063.43,241.40442857142875
1065.72,289.1494285714288
1068.01,326.38852380952403
1070.3,332.07395238095256
1072.59,305.0148571428573
1074.87,306.5921904761907
1077.16,334.28219047619075
1079.44,381.7513809523812
1081.72,411.4278571428574
1084.0,436.0731428571432
1086.28,464.8777142857146
1088.56,554.793666666667
1090.84,681.9158571428577
1093.11,771.7202857142861
1095.38,806.2067142857147
1097.65,739.2318571428575
1099.92,622.9861904761907
1102.19,527.3262857142861
1104.46,493.5851428571432
1106.72,472.1431904761908
1108.98,504.1910952380955
1111.24,522.7758571428574
1113.5,579.1353809523814
1115.76,646.5073333333338
1118.02,713.3199047619053
1120.28,752.3821428571433
1122.53,752.1227619047622
1124.78,715.6838571428575
1127.03,680.5893333333338
1129.28,632.8861428571431
1131.53,567.002666666667
1133.77,504.84319047619067
1136.02,435.8840476190478
1138.26,373.8862857142859
1140.5,346.9930000000002
1142.74,312.1559523809525
1144.98,280.7080476190478
1147.22,288.4112380952383
1149.45,284.12252380952395
1151.69,274.98419047619063
1153.92,256.37742857142865
1156.15,197.1110000000001
1158.38,162.0895714285715
1160.61,139.07519047619056
1162.83,119.73428571428579
1165.06,104.63810000000005
1167.28,79.97705238095241
1169.5,61.369738095238134
1171.72,40.05443333333335
1173.94,27.79291428571432
1176.16,46.53766190476195
1178.37,62.19327619047624
1180.58,80.71220952380958
1182.8,112.6659428571429
1185.01,87.62586190476193
1187.22,73.1158428571429
1189.42,45.088180952380974
1191.63,51.97165714285721
1193.84,79.09963809523816
1196.04,118.37686666666674
1198.24,142.75540476190486
1200.44,165.23540000000008
1202.64,136.67393809523816
1204.84,123.35692380952386
1207.03,107.14144285714292
1209.23,102.7416952380953
1211.42,114.58586466666675
1213.61,106.38830538095242
1215.8,73.67270123809526
1217.99,41.819971285714296
1220.18,11.40143933333336
1222.36,36.36956728571434
1224.55,63.390607523809564
1226.73,72.03593809523815
1228.91,91.92434285714292
1231.09,97.86530000000005
1233.27,87.6681714285715
1235.44,93.85693809523815
1237.62,110.43101428571437
1239.79,102.00940000000007
1241.96,125.78228095238103
1244.13,127.84482857142865
1246.3,116.95874285714292
1248.47,115.83813333333343
1250.64,130.95894285714294
1252.8,109.22581428571434
1254.96,92.73380000000003
1257.13,86.48260952380957
1259.29,76.37676190476196
1261.44,126.65404761904773
1263.6,145.98111428571437
1265.76,158.1197523809525
1267.91,154.83167619047626
1270.06,150.16374285714292
1272.22,137.16351428571437
1274.37,150.11651428571435
1276.51,124.64142857142865
1278.66,142.6432857142858
1280.81,149.16947619047627
1282.95,157.98109523809535
1285.09,178.31638095238108
1287.23,207.50804761904774
1289.37,212.36557142857157
1291.51,240.50776190476202
1293.65,239.41055238095248
1295.78,203.88317142857153
1297.92,158.21134285714297
1300.05,146.29930476190486
1302.18,133.4326761904763
1304.31,140.61112380952392
1306.44,154.83445714285722
1308.57,162.53085714285726
1310.69,187.31923809523823
1312.82,238.2946666666668
1314.94,278.6946666666668
1317.06,284.23352380952394
1319.18,267.9112380952382
1321.3,263.72723809523825
1323.41,273.3480000000002
1325.53,326.3448095238098
1327.64,373.09847619047645
1329.75,438.560904761905
1331.87,470.73233333333354
1333.98,462.3741904761908
1336.08,465.438285714286
1338.19,465.3529523809526
1340.3,448.26142857142895
1342.4,459.59176190476217
1344.5,422.2012380952383
1346.6,373.51795238095264
1348.7,359.16047619047646
1350.8,340.65276190476214
1352.9,351.4233809523812
1354.99,370.852904761905
1357.09,380.4650000000002
1359.18,407.5451428571431
1361.27,410.23595238095265
1363.36,430.15676190476216
1365.45,448.6882380952384
1367.54,447.3539523809526
1369.62,482.72514285714317
1371.7,523.420904761905
1373.79,547.5835238095241
1375.87,575.9275714285718
1377.95,558.8338571428575
1380.03,543.635666666667
1382.1,503.33314285714323
1384.18,464.83104761904787
1386.25,423.46204761904784
1388.33,383.3695714285716
1390.4,323.3627142857145
1392.47,319.34628571428584
1394.54,275.1298095238097
1396.6,279.09419047619065
1398.67,279.7632380952383
1400.74,282.423142857143
1402.8,280.5020476190478
1404.86,277.0476190476192
1406.92,268.6311904761906
1408.98,278.3482857142859
1411.04,289.38942857142877
1413.09,295.2310476190478
1415.15,282.58742857142875
1417.2,266.9348571428573
1419.25,251.5114285714287
1421.3,248.74595238095253
1423.35,236.25742857142873
1425.4,249.28447619047634
1427.45,224.01742857142872
1429.49,258.07590476190495
1431.54,254.74533333333352
1433.58,268.02609523809537
1435.62,250.01385714285726
1437.66,258.80423809523825
1439.7,227.4444761904763
1441.74,242.26871428571442
1443.77,230.1340952380954
1445.81,240.56471428571444
1447.84,258.9897619047621
1449.87,275.7906190476192
1451.9,262.4433333333335
1453.93,258.0914761904763
1455.96,227.30671428571438
1457.98,230.04195238095255
1460.01,247.2499047619049
1462.03,259.74071428571443
1464.05,251.51457142857157
1466.07,263.0483333333335
1468.09,267.1517619047621
1470.11,293.6350952380954
1472.13,307.1176666666669
1474.14,290.2669047619049
1476.16,233.98823809523824
1478.17,193.13942857142868
1480.18,196.05429523809536
1482.19,193.25706857142868
1484.2,157.55798761904768
1486.21,98.19582285714287
1488.21,84.07607904761912
1490.22,69.91378476190486
1492.22,115.61453047619058
1494.22,158.0358971428572
1496.22,152.79788095238104
1498.22,109.47267619047625
1500.22,105.7277190476191
1502.22,79.23047142857148
1504.21,72.2198571428572
1506.21,76.26786190476194
1508.2,81.80402857142859
1510.19,59.638671428571456
1512.18,58.82023333333337
1514.17,60.111371428571466
1516.16,55.94146190476193
1518.14,47.977861904761944
1520.13,64.93576190476195
1522.11,73.2919628571429
1524.09,66.28525809523813
1526.07,65.91638761904764
1528.05,48.99551809523812
1530.03,30.237597142857183
1532.01,62.54815809523815
1533.98,87.118100952381
1535.96,76.09089523809527
1537.93,77.37183333333337
1539.9,62.1519047619048
1541.87,48.66972857142863
1543.84,73.54468571428576
1545.81,101.34886666666672
1547.78,101.46350476190482
1549.74,97.17468571428576
1551.7,93.67324761904767
1553.67,97.81655714285722
1555.63,121.08107619047627
1557.59,145.46741428571434
1559.55,149.9757333333334
1561.5,135.32047619047626
1563.46,125.54947619047627
1565.41,110.61542857142865
1567.37,129.32795238095247
1569.32,133.63957142857151
1571.27,146.21708571428582
1573.22,130.77456190476198
1575.17,131.2170761904763
1577.11,111.6877238095239
1579.06,137.37690476190485
1581.0,126.90358095238103
1582.95,138.60117142857152
1584.89,150.27902857142868
1586.83,162.08018095238106
1588.77,148.76659047619054
1590.7,154.48087619047627
1592.64,128.93719047619058
1594.58,135.34969047619046
1596.51,162.07533333333342
1598.44,212.447285714286
