Raman Shift,Processed Intensity
331.095,-25.93355523809539
333.909,-83.34808904761933
336.721,-82.89034476190496
339.531,-51.962325714285726
342.339,-21.395642857142896
345.145,-21.734828571428583
347.949,-30.091538095238118
350.751,-41.66999047619049
353.55,-33.10002380952382
356.348,-13.532342857142835
359.144,12.932885714285767
361.937,69.57906666666672
364.729,95.16883809523817
367.518,139.18178571428587
370.306,240.38574761904783
373.091,399.64631428571465
375.874,552.7840952380956
378.656,613.9071428571432
381.435,549.1740476190479
384.212,426.078742857143
386.988,263.97428095238104
389.761,154.9779761904763
392.532,115.78070000000008
395.301,91.21773809523816
398.068,77.1267047619048
400.833,87.20387619047621
403.596,62.24251904761907
406.358,52.9425428571429
409.117,55.95783262857146
411.874,35.42004629523811
414.629,50.50994497142862
417.382,45.695542942857166
420.133,31.11288782857148
422.882,59.3757177238096
425.629,126.62255643809537
428.374,183.56481428571448
431.117,309.39125714285734
433.858,364.19648571428587
436.597,352.88571428571447
439.334,295.2224285714287
442.069,276.63738095238114
444.802,237.13385714285732
447.533,285.85904761904783
450.262,335.150904761905
452.989,363.2531428571431
455.714,331.8862857142859
458.438,328.0094761904764
461.159,266.63028571428583
463.878,215.70909523809533
466.595,210.7306761904763
469.31,189.18024761904772
472.024,162.35297142857155
474.735,147.92527619047627
477.444,155.85973333333345
480.152,147.9760571428573
482.857,199.95167619047632
485.561,241.9403809523811
488.262,277.8582380952383
490.962,304.47842857142876
493.659,324.57428571428585
496.355,297.347523809524
499.048,267.4287142857144
501.74,221.21066666666678
504.43,192.562142857143
507.118,196.352142857143
509.804,196.8780952380954
512.488,246.34147619047633
515.17,277.99200000000013
517.85,280.5077142857144
520.528,243.47121428571438
523.204,205.32261904761913
525.878,137.12030952380962
528.551,133.16030476190485
531.221,126.12013428571434
533.89,108.67676761904764
536.556,69.79285428571433
539.221,56.09751809523813
541.883,53.50503523809532
544.544,99.88178666666674
547.203,124.85621047619054
549.86,127.43717142857152
552.515,140.82382857142866
555.168,159.9767047619049
557.819,169.42758571428578
560.469,171.42202857142865
563.116,151.82465238095244
565.761,129.83317142857152
568.405,134.88263333333344
571.047,161.78915238095246
573.687,136.41556666666673
576.324,117.57703809523815
578.96,107.1834333333334
581.594,96.66841904761912
584.227,103.65516190476197
586.857,109.86268571428576
589.485,117.10381428571436
592.112,130.81073809523815
594.737,124.31966571428578
597.359,92.68102285714288
599.98,57.80176000000002
602.599,34.92209142857148
605.216,44.28141714285719
607.831,69.50005619047623
610.445,71.95982285714288
613.056,61.280176190476226
615.666,55.080319047619085
618.274,49.836061904761955
620.88,97.68985238095249
623.484,137.9739952380953
626.086,158.8300142857144
628.686,204.9707523809525
631.284,244.82271428571445
633.881,252.81195238095253
636.476,297.4598095238097
639.068,295.76347619047635
641.659,258.9578952380954
644.249,214.75395714285722
646.836,157.2429428571429
649.421,106.75405428571435
652.005,65.47339714285718
654.587,56.920494285714334
657.166,58.376317142857175
659.745,51.74057047619051
662.321,49.62722571428575
664.895,48.31671619047621
667.468,45.32732380952386
670.038,67.03456190476196
672.607,83.62322857142863
675.174,77.42083809523814
677.739,85.278780952381
680.303,79.00056666666671
682.864,78.00874971428574
685.424,65.24984209523811
687.982,44.81309847619049
690.538,17.59733314285716
693.092,14.501507047619066
695.645,21.138781619047627
698.195,10.027209714285709
700.744,4.446898571428576
703.291,-11.84576380952382
705.836,-8.379946190476174
708.38,14.648660952380988
710.921,57.806666666666715
713.461,71.99382380952386
715.999,90.63411904761908
718.535,70.72310476190479
721.069,60.066061904761945
723.602,55.23030952380957
726.133,63.5454190476191
728.662,73.86463809523815
731.189,91.04144285714293
733.714,113.45324285714293
736.238,108.71597619047624
738.759,110.87395238095245
741.279,113.35265714285723
743.798,129.48278095238103
746.314,146.68978095238106
748.829,133.9234761904762
751.342,87.03864285714289
753.853,69.937380952381
756.362,87.66515714285723
758.869,117.36292380952389
761.375,154.26637619047625
763.879,141.5166285714286
766.381,130.54060000000007
768.882,102.05070476190481
771.38,99.85490476190483
773.877,99.57087619047624
776.372,100.24491428571434
778.866,88.54255714285719
781.357,78.41522380952384
783.847,54.09983333333338
786.335,56.30962857142862
788.821,56.37718095238099
791.306,67.44472857142861
793.789,73.32122380952384
796.27,75.48219047619054
798.749,99.87993809523819
801.227,153.5137761904763
803.702,160.43133333333344
806.176,209.44203809523822
808.649,228.59319047619059
811.119,222.31357142857155
813.588,203.793761904762
816.055,184.55771428571435
818.521,148.36790476190487
820.984,161.557761904762
823.446,170.60385714285724
825.906,162.2210952380953
828.365,153.40995238095246
830.821,149.55209523809535
833.276,147.6482380952382
835.729,157.65142857142868
838.181,154.2770952380953
840.631,150.00228571428582
843.079,148.87583809523818
845.525,133.80305238095244
847.97,129.4992952380953
850.412,114.06106666666672
852.854,99.53736571428578
855.293,84.07224666666669
857.731,55.90516952380955
860.167,33.51355809523814
862.601,50.660636190476225
865.034,49.2051371428572
867.465,85.48188952380958
869.894,104.20670952380958
872.321,95.04780952380959
874.747,82.05440476190483
877.171,113.79959047619059
879.594,149.04693333333347
882.014,214.98851428571447
884.433,273.81680000000017
886.851,278.6761904761906
889.266,244.9019047619049
891.68,260.97200000000015
894.092,247.84052380952397
896.503,256.36676190476203
898.912,238.6954285714287
901.319,225.35200000000012
903.724,194.48133333333348
906.128,222.22828571428587
908.53,223.8801809523811
910.931,202.677561904762
913.329,182.62202857142867
915.726,171.04904761904768
918.122,115.29390000000006
920.516,108.40635238095246
922.908,110.67373809523815
925.298,106.76498095238104
927.687,141.06263333333342
930.074,164.99756190476197
932.459,161.09544761904772
934.843,147.8821000000001
937.225,140.02602380952388
939.605,95.67209523809528
941.984,64.6792047619048
944.361,53.001771428571466
946.736,58.73685238095241
949.11,66.45773333333338
951.482,72.35677142857143
953.853,47.38810476190479
956.222,38.17254761904764
958.589,34.23564285714289
960.954,59.245500000000064
963.318,82.20392380952384
965.68,89.44582380952386
968.041,90.54405714285718
970.4,72.73823333333337
972.757,76.45824285714293
975.113,102.46718000000004
977.467,81.81414666666669
979.819,77.78615523809528
982.17,70.90812952380956
984.519,52.99079809523815
986.866,73.32112761904769
989.212,103.94768000000008
991.556,137.91906190476203
993.899,191.7125904761906
996.24,245.56749523809543
998.579,269.1038571428573
1000.92,269.2750476190477
1003.25,247.5101904761906
1005.59,200.76238095238105
1007.92,172.79447619047633
1010.25,151.940761904762
1012.58,161.44004761904776
1014.91,159.24547619047627
1017.24,183.31006666666676
1019.56,152.1579952380953
1021.88,162.40922857142866
1024.2,155.11190952380963
1026.52,157.123561904762
1028.84,168.82566190476206
1031.16,199.21892380952391
1033.48,203.4464285714287
1035.79,216.17552380952392
1038.1,211.78738095238106
1040.41,200.71080952380967
1042.72,247.04138095238113
1045.03,258.9225238095239
1047.33,258.83061904761917
1049.64,237.19428571428583
1051.94,217.68023809523822
1054.24,206.38400000000016
1056.54,220.02028571428585
1058.84,240.11295238095252
1061.13,235.3286666666668
1063.43,238.00061904761924
1065.72,276.2718095238097
1068.01,261.42776190476206
1070.3,241.99280952380974
1072.59,266.58542857142874
1074.87,262.58680952380973
1077.16,272.8061428571431
1079.44,318.48166666666685
1081.72,308.3270952380954
1084.0,331.19966666666693
1086.28,400.0990476190479
1088.56,524.8822380952386
1090.84,676.787047619048
1093.11,780.0516190476194
1095.38,801.4369523809528
1097.65,716.8476190476193
1099.92,576.8550000000004
1102.19,465.9820000000003
1104.46,414.27614285714316
1106.72,392.8799047619051
1108.98,457.12609523809556
1111.24,510.0619523809527
1113.5,574.7348095238099
1115.76,629.7150952380955
1118.02,669.6690000000003
1120.28,706.0247619047623
1122.53,720.3532380952386
1124.78,685.463285714286
1127.03,616.6399047619051
1129.28,527.6920000000002
1131.53,456.4281904761907
1133.77,407.46733333333356
1136.02,362.95133333333354
1138.26,335.64138095238116
1140.5,305.48909523809544
1142.74,279.77961904761924
1144.98,277.08328571428586
1147.22,283.44728571428584
1149.45,291.7754761904763
1151.69,258.92395238095247
1153.92,223.7969714285715
1156.15,149.77442857142861
1158.38,82.85541904761911
1160.61,52.18193809523813
1162.83,45.94352380952384
1165.06,45.37727809523815
1167.28,57.482449523809535
1169.5,40.68656571428572
1171.72,25.655348095238097
1173.94,7.911670476190481
1176.16,-2.354933809523798
1178.37,10.997468571428584
1180.58,18.015516666666688
1182.8,31.50780476190479
1185.01,46.616280952380976
1187.22,41.76858571428573
1189.42,40.10669047619051
1191.63,50.058285714285745
1193.84,55.19396190476195
1196.04,72.27476190476196
1198.24,97.87130476190481
1200.44,96.64956190476195
1202.64,101.5611571428572
1204.84,92.93875238095241
1207.03,58.495985714285744
1209.23,49.5655285714286
1211.42,34.05154285714287
1213.61,14.953595238095254
1215.8,20.31884285714287
1217.99,19.289742857142866
1220.18,13.05645714285717
1222.36,38.42824285714288
1224.55,34.88100952380954
1226.73,30.319366666666696
1228.91,46.3145904761905
1231.09,39.818890476190504
1233.27,43.64173333333338
1235.44,71.4020428571429
1237.62,83.09976666666672
1239.79,84.1634571428572
1241.96,88.30737619047622
1244.13,71.10295714285718
1246.3,70.02617142857149
1248.47,94.64881428571437
1250.64,111.1612571428572
1252.8,116.65866666666673
1254.96,117.236480952381
1257.13,99.27580476190481
1259.29,76.25257619047625
1261.44,101.83407142857152
1263.6,118.59172857142866
1265.76,151.47806190476203
1267.91,172.16000000000008
1270.06,161.63742857142864
1272.22,155.2439142857144
1274.37,153.26548571428577
1276.51,124.70244761904769
1278.66,132.4598000000001
1280.81,143.77578095238107
1282.95,161.65077142857157
1285.09,198.22786666666678
1287.23,228.60280952380964
1289.37,218.72804761904774
1291.51,226.27057142857157
1293.65,214.70661904761914
1295.78,190.17987619047628
1297.92,148.30930476190485
1300.05,127.28618095238102
1302.18,96.25345714285723
1304.31,119.78322857142868
1306.44,159.63720952380964
1308.57,196.86392380952393
1310.69,212.13028571428586
1312.82,206.00814285714296
1314.94,174.45023809523823
1317.06,199.40942857142875
1319.18,242.933523809524
1321.3,289.92809523809547
1323.41,329.1079523809526
1325.53,332.14023809523826
1327.64,327.83485714285735
1329.75,368.1921428571431
1331.87,414.02185714285747
1333.98,438.99128571428594
1336.08,432.52961904761924
1338.19,394.20895238095255
1340.3,382.3629523809526
1342.4,360.51580952380976
1344.5,351.71552380952403
1346.6,337.2962857142859
1348.7,325.0204285714288
1350.8,306.45985714285735
1352.9,302.80552380952395
1354.99,294.43890476190495
1357.09,293.36042857142877
1359.18,307.28519047619073
1361.27,354.6897619047621
1363.36,373.4316190476192
1365.45,374.701904761905
1367.54,401.7392380952383
1369.62,402.25833333333355
1371.7,440.7360952380955
1373.79,481.26828571428604
1375.87,496.5219523809527
1377.95,501.4024761904765
1380.03,503.62452380952413
1382.1,486.28395238095266
1384.18,459.95247619047643
1386.25,395.5834285714288
1388.33,346.4628095238097
1390.4,322.6386666666669
1392.47,300.68304761904784
1394.54,276.59628571428584
1396.6,248.95023809523823
1398.67,215.60314285714298
1400.74,195.0787142857144
1402.8,191.80609523809534
1404.86,216.64319047619063
1406.92,231.39966666666683
1408.98,257.0759523809525
1411.04,250.95842857142873
1413.09,222.61861904761915
1415.15,203.724142857143
1417.2,210.60880952380967
1419.25,208.98695238095252
1421.3,211.28776190476202
1423.35,209.17828571428583
1425.4,194.1824285714287
1427.45,197.3487142857144
1429.49,197.2962380952382
1431.54,189.54900000000012
1433.58,202.8220952380954
1435.62,226.54428571428585
1437.66,226.66828571428584
1439.7,215.19452380952393
1441.74,186.98038095238104
1443.77,143.69280952380961
1445.81,143.23695238095252
1447.84,175.89880952380966
1449.87,192.67880952380966
1451.9,198.76728571428583
1453.93,219.59309523809537
1455.96,204.5377142857144
1457.98,213.83947619047632
1460.01,212.87942857142866
1462.03,188.8482380952382
1464.05,184.60323809523823
1466.07,204.00147619047632
1468.09,217.18661904761922
1470.11,222.44428571428583
1472.13,200.44090476190485
1474.14,182.12914285714297
1476.16,190.69985714285727
1478.17,178.62866666666676
1480.18,185.63055238095248
1482.19,153.1814571428572
1484.2,124.94796190476198
1486.21,114.35887619047625
1488.21,109.08091428571434
1490.22,102.82783809523816
1492.22,100.79052857142862
1494.22,84.11171428571434
1496.22,99.5056714285715
1498.22,108.54360000000005
1500.22,111.08236666666673
1502.22,114.97896761904767
1504.21,81.80475095238099
1506.21,57.512016190476224
1508.2,52.910107142857164
1510.19,36.80818190476193
1512.18,26.967839047619062
1514.17,25.5793580952381
1516.16,19.642420476190498
1518.14,14.680511428571446
1520.13,30.169468095238123
1522.11,42.87083142857145
1524.09,37.92708571428574
1526.07,49.0996885714286
1528.05,47.34062666666667
1530.03,21.64946761904764
1532.01,22.16860666666669
1533.98,36.611900952380985
1535.96,43.07414571428576
1537.93,64.60248380952385
1539.9,83.24399047619052
1541.87,67.14117619047622
1543.84,71.34115714285718
1545.81,74.2244047619048
1547.78,73.98108571428575
1549.74,76.89639047619055
1551.7,115.58866666666674
1553.67,125.62898095238103
1555.63,142.35002857142865
1557.59,142.41795238095244
1559.55,133.83271428571436
1561.5,119.06995238095246
1563.46,136.08123809523818
1565.41,157.86642857142866
1567.37,154.61509523809534
1569.32,160.08880952380963
1571.27,156.47790476190485
1573.22,145.0195714285715
1575.17,120.0943095238096
1577.11,137.41600000000008
1579.06,125.07935714285722
1581.0,147.8935238095239
1582.95,165.85821428571438
1584.89,178.0200476190477
1586.83,151.52161904761914
1588.77,161.74314285714294
1590.7,147.0180000000001
1592.64,152.4882380952382
1594.58,164.17745238095256
1596.51,195.01338095238123
1598.44,252.99535714285753
