Raman Shift,Processed Intensity
331.095,-1.071523809523701
333.909,-31.177485714285822
336.721,-54.376942857143
339.531,-64.90169523809526
342.339,-36.960642857142886
345.145,-19.30911428571427
347.949,10.563238095238098
350.751,12.550142857142845
353.55,-3.9758619047619144
356.348,-19.020657142857118
359.144,26.174557142857218
361.937,74.65640952380959
364.729,123.56943809523821
367.518,181.63223809523825
370.306,245.23201904761925
373.091,374.8061904761908
375.874,521.7940952380956
378.656,557.5898095238098
381.435,512.351523809524
384.212,398.3348952380953
386.988,237.79699523809538
389.761,126.90209047619055
392.532,67.4826285714286
395.301,11.421133333333342
398.068,-5.017280952380926
400.833,10.672409523809554
403.596,45.47295714285718
406.358,60.98801428571432
409.117,68.63242380952383
411.874,46.58447142857145
414.629,40.97636190476193
417.382,37.2750190476191
420.133,47.94894761904767
422.882,97.03920000000011
425.629,161.44531428571446
428.374,259.16315714285736
431.117,361.8090666666669
433.858,402.4287619047621
436.597,374.3074285714287
439.334,307.20690476190487
442.069,243.08061904761922
444.802,221.0260952380954
447.533,223.665142857143
450.262,254.858523809524
452.989,290.61033333333353
455.714,302.8302380952383
458.438,305.5713333333334
461.159,273.17347619047626
463.878,222.73828571428584
466.595,190.36814285714297
469.31,187.0704285714287
472.024,177.85333333333344
474.735,178.15357142857158
477.444,211.64676190476206
480.152,239.8178571428573
482.857,266.34271428571446
485.561,298.32600000000014
488.262,287.11095238095254
490.962,279.8976190476193
493.659,323.7434761904764
496.355,299.37271428571444
499.048,269.2240476190477
501.74,207.3550476190477
504.43,154.9663809523811
507.118,161.4013809523811
509.804,201.95557142857155
512.488,237.92514285714304
515.17,290.41528571428586
517.85,282.1976190476192
520.528,252.51937142857153
523.204,209.5808047619048
525.878,123.39122380952388
528.551,115.81728476190484
531.221,101.58238000000004
533.89,88.07635047619053
536.556,82.6883247619048
539.221,102.56986952380961
541.883,113.25319428571441
544.544,161.36500857142866
547.203,173.1511238095239
549.86,157.19071428571434
552.515,161.5859523809525
555.168,159.77233333333342
557.819,170.85166666666677
560.469,159.59219047619055
563.116,183.38066666666677
565.761,174.88980952380962
568.405,182.0772857142858
571.047,147.13876190476196
573.687,148.88823809523817
576.324,131.56861904761914
578.96,132.37428571428578
581.594,133.5472857142858
584.227,133.61447619047627
586.857,140.72228571428582
589.485,139.20666666666673
592.112,132.4036666666667
594.737,121.36314285714292
597.359,113.08714285714292
599.98,88.67221428571435
602.599,91.26266666666672
605.216,114.90712857142866
607.831,111.8921571428572
610.445,97.78955238095243
613.056,70.64719523809526
615.666,39.75088095238101
618.274,63.43315714285724
620.88,139.8840714285715
623.484,168.1505333333334
626.086,182.374361904762
628.686,209.93504761904777
631.284,235.87895238095254
633.881,268.4418095238097
636.476,278.0979047619049
639.068,294.0829523809526
641.659,277.1087213333335
644.249,211.4104418095239
646.836,146.22350266666672
649.421,111.44932295238102
652.005,69.51318838095246
654.587,79.83993704761909
657.166,69.80691657142859
659.745,45.50540000000005
662.321,73.21712380952388
664.895,94.50960714285716
667.468,85.66431904761907
670.038,55.105564285714294
672.607,31.447904761904816
675.174,56.02021190476199
677.739,118.43704761904772
680.303,155.36093809523817
682.864,147.45384285714292
685.424,103.99700952380955
687.982,66.50958095238097
690.538,34.08242380952383
693.092,23.711133333333365
695.645,40.534371428571454
698.195,48.785766666666696
700.744,35.12787142857144
703.291,26.842290476190488
705.836,16.639323809523823
708.38,17.038971428571454
710.921,23.989957142857175
713.461,55.29820000000003
715.999,64.0080190476191
718.535,71.21140000000004
721.069,87.04808761904766
723.602,73.22940190476193
726.133,54.60960380952385
728.662,62.94796000000005
731.189,66.47984666666672
733.714,76.63126380952387
736.238,93.82848761904768
738.759,86.59292380952387
741.279,101.06538095238102
743.798,117.2916571428572
746.314,128.88846190476198
748.829,109.52079523809527
751.342,105.28210476190483
753.853,94.17066666666673
756.362,85.56599047619054
758.869,100.41894285714292
761.375,122.91848571428577
763.879,99.77782857142863
766.381,104.04347619047624
768.882,98.7617190476191
771.38,85.97932380952388
773.877,88.60011428571434
776.372,84.7661428571429
778.866,87.33390952380958
781.357,83.92193333333339
783.847,73.48169523809526
786.335,65.44151104761907
788.821,38.08667628571429
791.306,9.083557333333351
793.789,18.670082761904787
796.27,46.75079542857148
798.749,56.23045247619053
801.227,75.77557295238101
803.702,98.71981904761911
806.176,121.825361904762
808.649,162.04450476190485
811.119,190.80607619047626
813.588,166.586761904762
816.055,142.10100000000008
818.521,152.111761904762
820.984,150.3339523809525
823.446,178.67253333333346
825.906,168.41386666666673
828.365,150.13017142857151
830.821,116.5363333333334
833.276,137.96694285714295
835.729,110.66090476190483
838.181,112.71426666666673
840.631,103.223180952381
843.079,100.37935714285719
845.525,67.37435238095242
847.97,71.20937142857146
850.412,62.88550457142861
852.854,47.78484552380956
855.293,52.8133148571429
857.731,44.87711257142858
860.167,51.4060767619048
862.601,43.40161219047622
865.034,69.34112838095243
867.465,60.36905714285718
869.894,76.01064761904766
872.321,53.076940476190515
874.747,68.4263904761905
877.171,45.917845238095275
879.594,82.74301904761913
882.014,105.90377380952391
884.433,164.687442857143
886.851,197.3809809523811
889.266,224.8433142857144
891.68,228.17128571428583
894.092,242.27109523809534
896.503,234.7161904761906
898.912,212.31757142857154
901.319,178.02885714285722
903.724,142.51895238095247
906.128,151.5986666666668
908.53,156.46014285714296
910.931,170.29566666666676
913.329,173.01138095238105
915.726,177.4186476190477
918.122,134.75731428571436
920.516,125.17148571428578
922.908,114.37735238095246
925.298,113.70962857142865
927.687,132.55103809523817
930.074,141.331680952381
932.459,106.76738095238102
934.843,99.24032857142863
937.225,92.60940000000005
939.605,69.92359523809526
941.984,70.66075333333336
944.361,51.72687857142859
946.736,32.0283342857143
949.11,29.471123333333345
951.482,31.961324761904773
953.853,18.405048571428594
956.222,23.803535714285722
958.589,16.015172857142865
960.954,21.660204285714315
963.318,32.97788428571432
965.68,51.54069000000004
968.041,80.8260228571429
970.4,79.50143809523813
972.757,64.85363333333338
975.113,72.16926190476195
977.467,69.0206428571429
979.819,47.075347619047655
982.17,66.7152047619048
984.519,68.55997142857147
986.866,68.03904285714292
989.212,89.24827619047626
991.556,99.33111904761911
993.899,123.19311904761916
996.24,172.07315714285727
998.579,197.49529523809534
1000.92,208.65066666666678
1003.25,207.30152380952393
1005.59,170.63880952380964
1007.92,168.091761904762
1010.25,173.7084761904763
1012.58,169.012761904762
1014.91,174.71933333333342
1017.24,171.40019047619057
1019.56,148.67438095238106
1021.88,134.97100000000006
1024.2,129.00433333333342
1026.52,128.20309523809533
1028.84,181.32928571428585
1031.16,200.71661904761913
1033.48,212.41242857142868
1035.79,220.65504761904774
1038.1,186.06366666666676
1040.41,190.0193809523811
1042.72,199.2842380952382
1045.03,186.95309523809533
1047.33,178.5497142857144
1049.64,199.97880952380967
1051.94,191.7642380952382
1054.24,230.23904761904774
1056.54,203.02219047619056
1058.84,198.7801904761906
1061.13,188.60828571428584
1063.43,187.22047619047632
1065.72,197.85457142857157
1068.01,250.36719047619061
1070.3,250.23428571428587
1072.59,280.9800000000002
1074.87,301.17514285714304
1077.16,281.9146190476192
1079.44,292.6743333333336
1081.72,336.5967619047621
1084.0,373.681285714286
1086.28,460.73728571428603
1088.56,616.7164761904766
1090.84,738.190428571429
1093.11,840.7300000000004
1095.38,838.8586190476195
1097.65,765.3851428571431
1099.92,638.7374761904766
1102.19,567.8677142857146
1104.46,501.77557142857177
1106.72,480.460285714286
1108.98,478.06438095238127
1111.24,505.0635714285718
1113.5,558.124047619048
1115.76,628.150047619048
1118.02,677.9028571428576
1120.28,694.334190476191
1122.53,697.8723809523815
1124.78,640.8977619047623
1127.03,595.2193333333337
1129.28,526.0743809523813
1131.53,462.0337142857145
1133.77,390.763523809524
1136.02,345.26371428571446
1138.26,290.1999047619049
1140.5,279.61914285714306
1142.74,272.75895238095256
1144.98,268.3807142857144
1147.22,279.0079047619049
1149.45,295.9257142857145
1151.69,290.2760000000002
1153.92,289.43914285714294
1156.15,251.98585714285727
1158.38,196.1064666666668
1160.61,155.13369523809533
1162.83,113.82880952380958
1165.06,85.76271428571435
1167.28,70.12518571428575
1169.5,49.391809523809556
1171.72,39.32421428571431
1173.94,30.826414285714314
1176.16,39.13600000000004
1178.37,48.77629047619051
1180.58,57.98482380952384
1182.8,56.665861904761925
1185.01,55.19982857142861
1187.22,43.157657142857175
1189.42,56.01499523809528
1191.63,69.58100000000005
1193.84,86.90278095238102
1196.04,99.69423809523816
1198.24,108.2881095238096
1200.44,110.1124857142858
1202.64,127.92905238095247
1204.84,130.83261904761912
1207.03,114.3941714285715
1209.23,98.75623523809527
1211.42,55.72779714285717
1213.61,41.02279428571432
1215.8,48.45065171428575
1217.99,38.53470195238097
1220.18,35.08417914285717
1222.36,35.336940428571445
1224.55,26.10220104761909
1226.73,55.57017433333339
1228.91,74.45499647619052
1231.09,91.70861904761911
1233.27,97.56910476190481
1235.44,97.65550476190482
1237.62,98.39600476190482
1239.79,104.45707619047623
1241.96,82.60056666666671
1244.13,81.58787619047624
1246.3,89.3240333333334
1248.47,115.47562857142866
1250.64,135.56628571428578
1252.8,117.35792380952387
1254.96,116.42187619047627
1257.13,116.32927619047628
1259.29,132.22325714285722
1261.44,177.91313333333346
1263.6,182.87520476190485
1265.76,148.34772380952393
1267.91,141.85423333333344
1270.06,142.53748571428582
1272.22,157.44543333333345
1274.37,182.81602857142866
1276.51,167.07795238095244
1278.66,152.51714285714297
1280.81,144.181142857143
1282.95,161.97476190476203
1285.09,190.08904761904773
1287.23,203.2380000000001
1289.37,211.89785714285728
1291.51,226.4022380952382
1293.65,229.27485714285726
1295.78,213.42085714285724
1297.92,191.36428571428578
1300.05,159.3432380952382
1302.18,154.73876190476201
1304.31,170.21785714285727
1306.44,197.30428571428584
1308.57,225.57033333333348
1310.69,231.44433333333345
1312.82,243.78361904761923
1314.94,257.5886190476192
1317.06,274.47852380952395
1319.18,305.16761904761927
1321.3,334.08500000000015
1323.41,342.7067619047621
1325.53,352.65252380952404
1327.64,355.636904761905
1329.75,399.7079523809527
1331.87,445.81795238095265
1333.98,471.11004761904786
1336.08,499.4894761904764
1338.19,480.33757142857166
1340.3,454.6068095238098
1342.4,435.7262380952383
1344.5,389.88638095238116
1346.6,353.89704761904784
1348.7,349.5207142857145
1350.8,334.75761904761924
1352.9,339.84642857142876
1354.99,337.3109523809526
1357.09,348.81847619047636
1359.18,358.08319047619074
1361.27,396.3915238095241
1363.36,439.8867142857146
1365.45,467.1880000000002
1367.54,465.05733333333364
1369.62,477.30523809523834
1371.7,490.3125238095241
1373.79,539.9845238095241
1375.87,585.6551428571432
1377.95,585.8004285714288
1380.03,545.2780000000004
1382.1,514.136285714286
1384.18,469.28004761904793
1386.25,432.89995238095264
1388.33,395.90161904761925
1390.4,330.61833333333345
1392.47,281.71723809523826
1394.54,263.00847619047636
1396.6,239.58742857142875
1398.67,257.5494761904764
1400.74,287.5142857142859
1402.8,293.05366666666686
1404.86,297.4060952380954
1406.92,302.09580952380975
1408.98,310.0753809523811
1411.04,303.39252380952394
1413.09,273.19057142857156
1415.15,239.75580952380963
1417.2,231.0886190476192
1419.25,234.37980952380968
1421.3,257.39171428571444
1423.35,265.4101904761906
1425.4,262.5310000000002
1427.45,246.99233333333348
1429.49,262.22309523809537
1431.54,234.27109523809537
1433.58,238.13704761904776
1435.62,233.2020000000001
1437.66,241.08547619047636
1439.7,247.02571428571446
1441.74,261.64223809523827
1443.77,241.69695238095252
1445.81,272.42866666666686
1447.84,277.3608571428573
1449.87,289.63714285714303
1451.9,274.25771428571437
1453.93,272.9370476190478
1455.96,234.43757142857157
1457.98,238.37847619047633
1460.01,224.37880952380965
1462.03,216.7247142857144
1464.05,225.36871428571447
1466.07,263.6920476190478
1468.09,266.4571904761907
1470.11,277.75919047619067
1472.13,267.8363809523811
1474.14,267.450523809524
1476.16,274.98333333333346
1478.17,248.4825238095239
1480.18,214.56742857142868
1482.19,175.9998095238096
1484.2,147.97023809523822
1486.21,144.3360000000001
1488.21,140.6215238095239
1490.22,128.87402857142865
1492.22,117.18917142857148
1494.22,112.51920000000007
1496.22,102.38813809523816
1498.22,96.12943809523816
1500.22,107.6004333333334
1502.22,104.51521428571434
1504.21,93.35020000000006
1506.21,96.34339523809528
1508.2,84.82826952380957
1510.19,58.13810285714289
1512.18,44.6538723809524
1514.17,32.66129714285717
1516.16,46.826991523809575
1518.14,53.484271761904786
1520.13,55.15691685714288
1522.11,49.79724490476193
1524.09,41.30996638095241
1526.07,50.21879747619052
1528.05,61.95221914285717
1530.03,54.938752380952415
1532.01,50.892600000000044
1533.98,69.52794761904767
1535.96,83.98753809523815
1537.93,94.27127428571433
1539.9,68.42667666666668
1541.87,47.16797238095241
1543.84,33.73313761904767
1545.81,51.598291428571486
1547.78,69.76331476190481
1549.74,85.65666952380957
1551.7,86.27838571428578
1553.67,96.00906190476198
1555.63,122.70603809523817
1557.59,133.70252857142864
1559.55,140.9984000000001
1561.5,127.54596190476195
1563.46,91.2023428571429
1565.41,91.87207619047626
1567.37,98.45999523809529
1569.32,111.29946190476198
1571.27,118.62824285714291
1573.22,135.20830476190486
1575.17,111.27759047619057
1577.11,110.97900000000007
1579.06,131.31239523809535
1581.0,144.37306666666674
1582.95,133.87510000000012
1584.89,141.0090952380953
1586.83,117.5842095238096
1588.77,100.93372380952391
1590.7,142.58162857142867
1592.64,142.28971428571435
1594.58,156.2723095238097
1596.51,178.3148809523812
1598.44,211.91726190476217
