Raman Shift,Processed Intensity
331.095,161.4991595238091
333.909,20.111383333333208
336.721,-11.101723809523776
339.531,17.316171428571472
342.339,23.225919047619048
345.145,37.29826190476193
347.949,17.252355238095245
350.751,16.760490952380962
353.55,-3.980418095238104
356.348,-9.248773523809545
359.144,-36.560175190476194
361.937,-23.810156571428564
364.729,-3.750303380952328
367.518,58.91620961904771
370.306,130.96388576190492
373.091,264.9773364761907
375.874,364.30441904761926
378.656,407.9132285714287
381.435,355.0113238095239
384.212,231.4736666666667
386.988,73.74829523809525
389.761,5.950580952380961
392.532,-18.1358714285714
395.301,-9.059523809523801
398.068,10.442119047619062
400.833,21.299371428571433
403.596,19.062980952380972
406.358,25.427838095238098
409.117,3.090204761904735
411.874,-17.87145904761905
414.629,-22.520154666666677
417.382,-29.679529428571414
420.133,2.399484000000033
422.882,52.27684276190482
425.629,73.41820400000009
428.374,148.76664390476202
431.117,201.50466152380963
433.858,216.4822857142858
436.597,212.74090476190483
439.334,193.51385714285723
442.069,144.03485714285725
444.802,128.77671428571438
447.533,121.59457142857153
450.262,148.6294285714287
452.989,203.49938095238113
455.714,251.34723809523825
458.438,267.83988571428586
461.159,223.9307000000001
463.878,153.19309047619055
466.595,87.24822380952388
469.31,83.43244285714295
472.024,91.55836666666673
474.735,125.67757619047626
477.444,115.8417571428572
480.152,116.96014285714291
482.857,103.4185380952382
485.561,116.8414000000001
488.262,155.8056047619049
490.962,191.45981904761916
493.659,203.71473333333347
496.355,195.71944761904768
499.048,157.19475238095245
501.74,138.52840952380961
504.43,137.29813333333342
507.118,141.17716190476202
509.804,172.88692380952395
512.488,207.72009523809535
515.17,244.1596666666668
517.85,261.4507142857144
520.528,256.79020000000014
523.204,206.3757714285715
525.878,167.35735238095248
528.551,141.45570476190485
531.221,128.58211428571434
533.89,116.31443809523817
536.556,134.23047619047625
539.221,113.86030000000005
541.883,110.5435047619048
544.544,105.9523952380953
547.203,95.71181904761913
549.86,101.44640476190483
552.515,126.11377142857151
555.168,140.09986666666674
557.819,154.07631428571437
560.469,174.2860285714287
563.116,179.54276190476202
565.761,183.99366666666677
568.405,191.30909523809535
571.047,201.15928571428583
573.687,207.3571904761906
576.324,198.33428571428584
578.96,201.4744285714287
581.594,195.77995238095247
584.227,174.87204761904772
586.857,168.466761904762
589.485,168.42324761904771
592.112,145.21852857142866
594.737,128.18734761904767
597.359,116.04448095238101
599.98,113.64745238095247
602.599,140.75816666666677
605.216,166.80567142857151
607.831,173.07487619047626
610.445,153.08900000000006
613.056,128.51395238095245
615.666,143.15776190476203
618.274,156.73333333333343
620.88,148.2868095238096
623.484,161.62595238095247
626.086,160.6532857142858
628.686,165.5574285714287
631.284,195.04966666666678
633.881,219.6514285714287
636.476,217.69295238095253
639.068,233.0286666666668
641.659,225.27433333333343
644.249,201.61753333333343
646.836,158.1501000000001
649.421,133.82128571428578
652.005,63.57982380952383
654.587,43.51725714285719
657.166,57.53508095238101
659.745,72.05828571428577
662.321,81.55966190476195
664.895,100.17864285714288
667.468,73.24517619047622
670.038,47.32724285714288
672.607,42.136004761904786
675.174,27.43008095238096
677.739,23.730147619047656
680.303,30.842676190476215
682.864,47.336085714285744
685.424,55.63605714285718
687.982,63.454052380952405
690.538,51.83497619047621
693.092,42.6809523809524
695.645,46.84660000000004
698.195,39.32944285714287
700.744,32.984309523809536
703.291,23.99942380952382
705.836,25.563119047619075
708.38,26.625728571428606
710.921,39.13770952380954
713.461,24.621071428571444
715.999,28.16908571428576
718.535,56.39950476190482
721.069,86.64395238095244
723.602,103.8533190476191
726.133,106.16901904761909
728.662,82.11352857142862
731.189,68.9234666666667
733.714,52.16940476190478
736.238,30.18334761904764
738.759,25.583271428571457
741.279,39.70146219047622
743.798,25.489347190476206
746.314,39.279137238095274
748.829,63.736794238095285
751.342,72.09960390476195
753.853,67.65249004761908
756.362,62.15662885714287
758.869,37.373211428571466
761.375,29.301368571428597
763.879,36.2739942857143
766.381,36.100002857142876
768.882,21.588384761904784
771.38,33.45293428571432
773.877,38.78841285714287
776.372,29.30863619047621
778.866,33.346541428571456
781.357,40.18749809523811
783.847,35.25972523809527
786.335,43.84862761904765
788.821,66.33499523809529
791.306,64.48034761904765
793.789,77.4750190476191
796.27,96.03296190476198
798.749,111.01142857142864
801.227,112.69581428571436
803.702,146.1816476190477
806.176,153.94480952380962
808.649,163.36610476190484
811.119,137.35027142857146
813.588,107.37392380952386
816.055,91.4845095238096
818.521,93.72991904761912
820.984,100.49102857142863
823.446,105.67263809523813
825.906,82.70364285714291
828.365,86.15593333333342
830.821,100.60097142857148
833.276,104.27727142857148
835.729,126.61335714285721
838.181,110.99067142857146
840.631,102.36193809523816
843.079,90.29910476190479
845.525,72.65954761904766
847.97,60.11060476190481
850.412,65.03331904761907
852.854,57.237866666666704
855.293,59.10567619047621
857.731,44.684919047619076
860.167,46.07131904761907
862.601,39.02738571428573
865.034,21.60130952380955
867.465,36.55560476190479
869.894,42.462319047619076
872.321,48.89358571428575
874.747,48.75476190476194
877.171,53.332380952380994
879.594,68.81747619047624
882.014,91.82991428571435
884.433,91.37044761904767
886.851,93.24940952380956
889.266,68.51516666666672
891.68,71.45439047619054
894.092,91.97236666666673
896.503,98.11780476190482
898.912,113.89141904761912
901.319,125.91330000000008
903.724,144.32726666666676
906.128,170.03901428571442
908.53,178.04927619047626
910.931,180.26373333333342
913.329,143.77859047619052
915.726,114.21389523809533
918.122,113.71360000000007
920.516,108.4693571428572
922.908,90.67257619047626
925.298,103.03858571428576
927.687,105.75894761904772
930.074,123.2630476190477
932.459,142.64723333333342
934.843,151.00786190476197
937.225,122.06041428571436
939.605,119.09200476190486
941.984,137.53206190476197
944.361,123.6198714285715
946.736,96.9755952380953
949.11,86.69545238095243
951.482,80.2093333333334
953.853,84.70910000000006
956.222,108.38630476190482
958.589,93.14690952380955
960.954,80.18265714285721
963.318,89.06611904761911
965.68,121.08417142857151
968.041,118.90471428571435
970.4,132.48143333333337
972.757,77.52980952380955
975.113,43.71787019047621
977.467,6.856468523809534
979.819,16.565879904761935
982.17,19.275880523809548
984.519,28.654441809523824
986.866,36.464787571428616
989.212,62.327074952381
991.556,82.43306190476198
993.899,121.06942380952388
996.24,124.66569047619052
998.579,122.12766666666676
1000.92,115.88486666666672
1003.25,121.03322857142864
1005.59,128.81191428571435
1007.92,122.31676190476196
1010.25,93.26271428571435
1012.58,108.50762857142864
1014.91,118.43276666666675
1017.24,122.75299523809531
1019.56,140.7547476190477
1021.88,133.15241428571437
1024.2,150.327542857143
1026.52,173.42303333333345
1028.84,203.72467619047634
1031.16,217.04271428571442
1033.48,229.80557142857157
1035.79,227.20395238095253
1038.1,257.61885714285734
1040.41,258.5738571428573
1042.72,265.35466666666684
1045.03,278.19952380952395
1047.33,262.25080952380966
1049.64,253.69938095238112
1051.94,234.97342857142868
1054.24,209.59623809523822
1056.54,203.6153809523811
1058.84,193.41123809523825
1061.13,194.7928571428573
1063.43,217.2364285714287
1065.72,226.83676190476203
1068.01,221.59295238095248
1070.3,240.07628571428586
1072.59,240.85747619047635
1074.87,230.269142857143
1077.16,212.3109523809525
1079.44,214.41080952380966
1081.72,232.6631904761907
1084.0,274.4006190476193
1086.28,373.47952380952415
1088.56,489.4229047619051
1090.84,609.5157142857147
1093.11,698.4242380952385
1095.38,722.2902857142861
1097.65,643.6367142857146
1099.92,551.0339047619051
1102.19,460.7191428571431
1104.46,420.92942857142884
1106.72,393.42614285714313
1108.98,413.68423809523836
1111.24,446.36928571428604
1113.5,481.4325238095241
1115.76,504.0162380952384
1118.02,533.5000000000003
1120.28,503.2639523809527
1122.53,498.83080952380976
1124.78,465.19938095238126
1127.03,426.89209523809546
1129.28,361.81319047619064
1131.53,309.8180000000002
1133.77,240.85823809523822
1136.02,210.17066666666676
1138.26,188.32585714285727
1140.5,206.17938095238108
1142.74,214.87328571428586
1144.98,225.50104761904774
1147.22,237.7286190476192
1149.45,239.41176190476205
1151.69,245.78776190476205
1153.92,234.71223809523823
1156.15,213.8506666666668
1158.38,181.773361904762
1160.61,154.2886476190477
1162.83,127.7762714285715
1165.06,109.9969952380953
1167.28,65.90175714285716
1169.5,42.060800000000036
1171.72,46.854166666666714
1173.94,69.13767619047626
1176.16,92.81494285714291
1178.37,122.40846190476196
1180.58,100.58386666666671
1182.8,84.8162047619048
1185.01,73.86628761904765
1187.22,51.01871619047621
1189.42,34.55810857142861
1191.63,61.53086476190481
1193.84,63.65038000000005
1196.04,69.86794952380954
1198.24,59.087378095238094
1200.44,32.35534095238096
1202.64,8.33760809523811
1204.84,6.414280000000007
1207.03,14.870314761904773
1209.23,5.419250476190477
1211.42,9.489030000000023
1213.61,23.793386666666677
1215.8,34.189012380952406
1217.99,31.342204761904785
1220.18,44.7765523809524
1222.36,44.015695238095276
1224.55,42.20245714285717
1226.73,42.24163809523813
1228.91,55.65724761904766
1231.09,68.92569428571434
1233.27,61.95213952380956
1235.44,70.21324095238099
1237.62,43.42385095238098
1239.79,54.01325047619054
1241.96,71.02980142857149
1244.13,89.9981228571429
1246.3,101.7288333333334
1248.47,131.6990857142858
1250.64,123.33873809523818
1252.8,141.02979047619056
1254.96,149.72578095238103
1257.13,153.23804761904773
1259.29,174.3297142857144
1261.44,202.47880952380964
1263.6,207.40128571428582
1265.76,207.71752380952393
1267.91,198.00066666666675
1270.06,180.15774285714292
1272.22,150.57106666666675
1274.37,119.05252380952388
1276.51,110.127761904762
1278.66,120.75144761904772
1280.81,152.8301142857144
1282.95,159.60433809523818
1285.09,162.4570095238096
1287.23,158.53344285714297
1289.37,164.16920952380966
1291.51,162.60484285714296
1293.65,172.60443809523818
1295.78,148.36090476190483
1297.92,127.54323809523817
1300.05,117.96380952380962
1302.18,136.481761904762
1304.31,147.95680952380962
1306.44,152.0582857142858
1308.57,158.78847619047627
1310.69,159.43590476190485
1312.82,171.7177142857144
1314.94,194.2549523809525
1317.06,217.05052380952392
1319.18,229.63061904761918
1321.3,225.71176190476206
1323.41,225.72552380952396
1325.53,246.1028095238097
1327.64,259.32238095238114
1329.75,291.24414285714306
1331.87,321.39438095238114
1333.98,330.82304761904777
1336.08,330.3421428571431
1338.19,313.76342857142873
1340.3,274.47042857142867
1342.4,245.13220952380965
1344.5,195.94180476190488
1346.6,155.09222857142865
1348.7,132.06133809523817
1350.8,107.08984761904769
1352.9,94.5607095238096
1354.99,135.85701904761913
1357.09,154.88585714285725
1359.18,165.83961904761912
1361.27,165.5298571428572
1363.36,154.57757142857153
1365.45,158.88933333333347
1367.54,195.0384285714287
1369.62,211.45552380952395
1371.7,225.76090476190492
1373.79,234.3850952380954
1375.87,243.99600000000015
1377.95,251.49980952380963
1380.03,250.7552380952382
1382.1,214.1446666666668
1384.18,185.28814285714296
1386.25,169.99654285714294
1388.33,135.60416190476198
1390.4,106.96899047619053
1392.47,94.23479047619053
1394.54,88.11663809523816
1396.6,103.28177142857149
1398.67,106.635680952381
1400.74,84.89297142857146
1402.8,60.53018095238099
1404.86,57.40460476190481
1406.92,41.183257142857165
1408.98,68.10392857142863
1411.04,77.2619047619048
1413.09,81.89500000000005
1415.15,74.95523333333337
1417.2,78.91828095238098
1419.25,41.54543809523813
1421.3,64.40740476190481
1423.35,70.836580952381
1425.4,71.21287619047624
1427.45,74.01138571428575
1429.49,79.0404047619048
1431.54,77.77483333333339
1433.58,69.49914285714289
1435.62,68.54471428571433
1437.66,72.86245238095242
1439.7,68.06965714285718
1441.74,64.3548904761905
1443.77,69.14476190476192
1445.81,54.913347619047656
1447.84,47.848790476190516
1449.87,57.47260000000004
1451.9,79.3541190476191
1453.93,82.30031428571434
1455.96,78.7848666666667
1457.98,93.23383333333338
1460.01,75.07308571428577
1462.03,99.6809761904763
1464.05,131.054761904762
1466.07,175.9057904761906
1468.09,206.8030190476192
1470.11,249.93378095238106
1472.13,263.81923809523823
1474.14,284.7423809523811
1476.16,253.3666666666668
1478.17,242.879761904762
1480.18,228.61238095238107
1482.19,207.6088857142858
1484.2,176.3426333333334
1486.21,141.33448571428576
1488.21,96.24826190476196
1490.22,65.74790476190482
1492.22,78.87829047619051
1494.22,70.82717619047621
1496.22,55.54403523809525
1498.22,28.454823333333334
1500.22,4.556884761904771
1502.22,4.3714814285714585
1504.21,32.61035619047621
1506.21,39.5567804761905
1508.2,40.827454285714296
1510.19,30.658121904761916
1512.18,10.47513380952382
1514.17,12.752483809523827
1516.16,18.011878095238103
1518.14,17.013189523809533
1520.13,10.278300476190488
1522.11,16.757662857142872
1524.09,20.354278095238115
1526.07,31.828309523809544
1528.05,22.654323333333345
1530.03,35.592625714285745
1532.01,44.78467809523812
1533.98,40.51478666666669
1535.96,35.16268857142859
1537.93,35.20339333333335
1539.9,27.25486666666671
1541.87,56.411342857142905
1543.84,84.19582380952384
1545.81,73.08373809523815
1547.78,87.78863333333341
1549.74,93.16720952380957
1551.7,98.79043809523817
1553.67,108.80082380952386
1555.63,105.86470952380958
1557.59,98.79124761904771
1559.55,124.19941428571435
1561.5,122.61314285714293
1563.46,118.98465238095245
1565.41,132.50489523809532
1567.37,122.36429047619055
1569.32,108.32482380952388
1571.27,102.14882380952386
1573.22,108.12250000000007
1575.17,109.00797619047628
1577.11,137.71073809523818
1579.06,139.89771428571436
1581.0,127.47442857142865
1582.95,120.29866666666675
1584.89,128.51423809523817
1586.83,119.69290476190484
1588.77,138.74042857142865
1590.7,148.41914285714293
1592.64,138.968261904762
1594.58,128.24583333333345
1596.51,124.2765833333336
1598.44,136.06142857142902
