Raman Shift,Processed Intensity
331.095,112.3005519047619
333.909,77.5710414285714
336.721,37.69554428571425
339.531,0.9639704761904699
342.339,-25.476881904761914
345.145,-15.432225714285691
347.949,8.484056666666678
350.751,20.135097142857152
353.55,23.575308571428568
356.348,9.431332380952368
359.144,-20.574039047619053
361.937,-18.336098095238086
364.729,-8.654150952380913
367.518,56.76910285714297
370.306,128.13633333333348
373.091,236.03271904761922
375.874,318.5203619047621
378.656,343.4243809523811
381.435,303.5706000000001
384.212,220.02471904761907
386.988,118.04360952380958
389.761,48.12403333333335
392.532,-6.950780952380948
395.301,-4.729570476190453
398.068,12.8114080952381
400.833,-1.9691790476190332
403.596,32.43139190476192
406.358,17.08858285714284
409.117,-8.77798238095236
411.874,17.290786666666676
414.629,13.898090476190472
417.382,16.31507428571432
420.133,19.052281428571433
422.882,45.19272952380959
425.629,58.01150904761911
428.374,129.26036285714298
431.117,198.26404333333346
433.858,253.68164095238106
436.597,260.0778571428573
439.334,257.54233333333343
442.069,172.8800476190477
444.802,137.41985714285724
447.533,145.11161904761917
450.262,185.00066666666683
452.989,206.2281904761906
455.714,262.36498095238113
458.438,235.07783333333344
461.159,184.31960952380962
463.878,144.8062352380953
466.595,90.34893523809525
469.31,30.85500857142864
472.024,55.232040952380984
474.735,74.34079428571437
477.444,96.85188285714294
480.152,133.53172571428578
482.857,142.57605238095246
485.561,150.37098095238102
488.262,144.92219047619056
490.962,154.37851428571437
493.659,129.60318095238102
496.355,124.31721904761915
499.048,119.52753333333341
501.74,125.05021904761915
504.43,131.65489523809532
507.118,159.72970476190488
509.804,155.7110000000001
512.488,175.08242857142872
515.17,202.28047619047635
517.85,225.12228571428585
520.528,224.80616190476204
523.204,199.33987619047622
525.878,145.92211428571437
528.551,107.36986190476196
531.221,93.35804761904768
533.89,80.89424761904768
536.556,72.890780952381
539.221,80.83156190476198
541.883,85.96227142857148
544.544,94.48073809523815
547.203,110.01346190476197
549.86,119.37689523809529
552.515,87.86366190476195
555.168,80.71875238095242
557.819,89.37723809523817
560.469,102.13142857142867
563.116,149.89222857142866
565.761,178.18934285714292
568.405,175.21885714285725
571.047,165.8912380952382
573.687,165.5448095238096
576.324,134.61338095238102
578.96,119.10161904761911
581.594,102.15685714285722
584.227,115.87814285714296
586.857,128.55519047619057
589.485,163.9057142857144
592.112,182.07591428571436
594.737,146.8783190476191
597.359,133.1725428571429
599.98,123.67496666666673
602.599,110.1499238095239
605.216,128.31308095238103
607.831,126.594580952381
610.445,108.32876190476199
613.056,117.94466666666675
615.666,111.29985714285722
618.274,134.8234761904763
620.88,139.8958095238096
623.484,152.37357142857155
626.086,162.58942857142864
628.686,190.87528571428584
631.284,186.5632380952382
633.881,210.22309523809537
636.476,200.28114285714298
639.068,211.9734761904763
641.659,190.05942857142867
644.249,189.9649333333334
646.836,149.78220476190484
649.421,110.74597142857147
652.005,65.23363333333336
654.587,29.67034761904763
657.166,10.051947619047635
659.745,9.327061904761916
662.321,20.062790476190507
664.895,32.397700000000036
667.468,60.946390476190516
670.038,66.0375980761905
672.607,48.952286219047636
675.174,35.06663910476193
677.739,51.042232923809564
680.303,44.11230100952386
682.864,88.08151669523815
685.424,98.32550950476194
687.982,60.12479428571431
690.538,39.759879047619066
693.092,24.272999047619052
695.645,18.51616380952386
698.195,43.43668761904763
700.744,44.74340952380954
703.291,36.38353809523812
705.836,47.0661666666667
708.38,42.119473333333374
710.921,37.72876857142858
713.461,39.60345142857146
715.999,32.262145714285744
718.535,47.557160952381004
721.069,75.86454476190481
723.602,86.56053047619052
726.133,73.35480952380956
728.662,90.33825238095241
731.189,49.36344285714287
733.714,48.61681428571432
736.238,43.95128571428573
738.759,50.17249047619053
741.279,59.46717142857147
743.798,79.54607619047621
746.314,59.21534761904767
748.829,69.995680952381
751.342,50.59819523809527
753.853,60.92496190476194
756.362,69.9254428571429
758.869,83.59713809523815
761.375,81.08047619047623
763.879,85.6589333333334
766.381,90.61626190476197
768.882,91.7125190476191
771.38,112.70744285714292
773.877,105.74250000000004
776.372,102.29239047619053
778.866,87.97477142857147
781.357,83.26476190476195
783.847,97.92313809523819
786.335,109.42479047619051
788.821,93.62625714285721
791.306,90.81251904761908
793.789,79.03069047619054
796.27,70.66126190476199
798.749,122.84673809523818
801.227,117.39638095238102
803.702,138.0721904761906
806.176,148.9215000000001
808.649,164.6115238095239
811.119,161.14221428571437
813.588,178.275761904762
816.055,153.01276190476202
818.521,151.02009523809534
820.984,160.44119047619057
823.446,155.99133333333342
825.906,153.9569523809525
828.365,154.24395238095244
830.821,151.4250000000001
833.276,141.07198095238104
835.729,126.18631428571435
838.181,106.67381904761913
840.631,106.34534285714292
843.079,104.39279047619054
845.525,110.86542952380957
847.97,89.33592000000003
850.412,52.9488304761905
852.854,31.134384761904794
855.293,40.894282857142905
857.731,52.75407238095241
860.167,55.19179142857145
862.601,40.25692857142859
865.034,15.665661904761915
867.465,23.229642857142906
869.894,55.14122380952385
872.321,60.25961904761909
874.747,64.4917047619048
877.171,75.93491904761909
879.594,55.448580952381
882.014,81.22558571428578
884.433,100.60143809523815
886.851,95.72119047619054
889.266,105.15890476190484
891.68,128.05954285714293
894.092,130.2829761904763
896.503,149.5458095238096
898.912,159.32661904761915
901.319,152.48519047619055
903.724,141.30985714285723
906.128,154.18390476190484
908.53,163.25319047619055
910.931,166.09122857142864
913.329,134.74841904761908
915.726,98.18007619047626
918.122,87.38868571428578
920.516,97.51982857142863
922.908,99.57623809523814
925.298,103.46509047619051
927.687,73.61790000000003
930.074,67.51360952380958
932.459,66.34537619047623
934.843,78.06835238095243
937.225,73.49472857142861
939.605,90.81773809523816
941.984,91.42103333333338
944.361,85.40260476190478
946.736,66.33657142857146
949.11,51.84480476190479
951.482,48.54900000000005
953.853,53.73760952380955
956.222,55.365685714285746
958.589,47.9120666666667
960.954,66.61764285714291
963.318,73.48490476190483
965.68,113.08781428571436
968.041,120.42920000000005
970.4,108.36880476190481
972.757,84.43298095238099
975.113,65.86251904761907
977.467,31.516854571428592
979.819,16.160280047619054
982.17,4.176436285714296
984.519,13.520055380952412
986.866,20.145928619047638
989.212,38.008855190476226
991.556,63.730006523809564
993.899,71.54989419047624
996.24,86.94690185714292
998.579,92.06591304761906
1000.92,81.52809047619053
1003.25,72.00189523809529
1005.59,70.2984666666667
1007.92,60.80060952380957
1010.25,67.89078571428576
1012.58,61.95130952380956
1014.91,65.03118571428574
1017.24,57.03613809523812
1019.56,46.824209523809564
1021.88,61.82493809523817
1024.2,106.7528000000001
1026.52,129.7035714285715
1028.84,163.1536476190477
1031.16,165.91243809523817
1033.48,145.69409523809531
1035.79,156.831761904762
1038.1,171.84861904761914
1040.41,190.0776666666668
1042.72,244.56561904761915
1045.03,249.16857142857154
1047.33,228.26609523809535
1049.64,195.66642857142864
1051.94,158.4162857142858
1054.24,157.6093809523811
1056.54,181.95823809523822
1058.84,182.22333333333344
1061.13,178.92623809523818
1063.43,165.30309523809535
1065.72,199.44734285714298
1068.01,197.0234857142858
1070.3,197.36230476190488
1072.59,178.50960952380962
1074.87,176.12940000000012
1077.16,173.17143809523822
1079.44,221.53777142857155
1081.72,239.32104761904776
1084.0,288.518523809524
1086.28,350.74652380952404
1088.56,461.3833809523813
1090.84,583.2356190476195
1093.11,681.6809523809527
1095.38,685.4787619047622
1097.65,626.8162380952384
1099.92,518.0236190476193
1102.19,442.1933333333336
1104.46,414.8933333333336
1106.72,429.35871428571454
1108.98,415.68166666666696
1111.24,434.0493333333336
1113.5,448.3634761904765
1115.76,486.66861904761936
1118.02,515.247047619048
1120.28,537.8102380952384
1122.53,498.6405238095241
1124.78,475.49690476190494
1127.03,422.3284761904764
1129.28,362.13219047619066
1131.53,308.0951904761907
1133.77,263.8814761904763
1136.02,208.7261904761906
1138.26,217.62661904761922
1140.5,214.43680952380964
1142.74,212.72547619047634
1144.98,207.4419523809525
1147.22,231.01252380952394
1149.45,234.43452380952397
1151.69,259.6578571428573
1153.92,256.632142857143
1156.15,237.78371428571438
1158.38,194.8721904761906
1160.61,171.70504761904772
1162.83,145.18490476190485
1165.06,127.26204761904768
1167.28,86.64885238095239
1169.5,59.96261904761908
1171.72,39.43997142857147
1173.94,50.507952380952446
1176.16,68.87937619047624
1178.37,94.171980952381
1180.58,76.09890476190479
1182.8,50.70668095238097
1185.01,44.51829047619053
1187.22,54.3901428571429
1189.42,54.89286666666671
1191.63,63.597323809523836
1193.84,54.598300000000016
1196.04,44.08595714285719
1198.24,71.44112857142864
1200.44,90.80642857142861
1202.64,67.94378095238096
1204.84,51.9962142857143
1207.03,29.63074000000002
1209.23,12.705006666666689
1211.42,18.933913333333358
1213.61,28.603802857142867
1215.8,19.287003809523835
1217.99,33.46068285714288
1220.18,35.697378095238115
1222.36,40.99829047619051
1224.55,50.22188095238099
1226.73,58.08386666666671
1228.91,75.9191428571429
1231.09,77.63414285714289
1233.27,63.373476190476225
1235.44,61.94849523809528
1237.62,60.2183047619048
1239.79,55.42301428571432
1241.96,48.802842857142885
1244.13,54.122009523809574
1246.3,64.2873333333334
1248.47,102.3014095238096
1250.64,137.8810095238096
1252.8,142.8382095238096
1254.96,153.2704761904763
1257.13,153.75214285714296
1259.29,180.52385714285728
1261.44,213.68376190476204
1263.6,212.71104761904775
1265.76,203.98961904761913
1267.91,193.09347619047628
1270.06,160.93033333333344
1272.22,149.9798095238096
1274.37,143.1492857142858
1276.51,130.96609523809533
1278.66,152.7665238095239
1280.81,151.3633333333334
1282.95,156.14041904761913
1285.09,122.95851428571436
1287.23,122.9156476190477
1289.37,135.82486666666676
1291.51,137.73702857142862
1293.65,120.75086190476196
1295.78,107.48865238095243
1297.92,72.14412857142864
1300.05,75.2442333333334
1302.18,111.36371904761911
1304.31,122.3155190476191
1306.44,115.53150000000005
1308.57,95.11017619047624
1310.69,73.8641952380953
1312.82,94.46343333333346
1314.94,152.81614761904774
1317.06,195.8303285714287
1319.18,220.22326666666677
1321.3,212.75980952380965
1323.41,193.91952380952395
1325.53,213.89561904761925
1327.64,262.31061904761924
1329.75,306.26266666666686
1331.87,323.42128571428583
1333.98,313.31319047619064
1336.08,300.5602857142859
1338.19,273.927142857143
1340.3,249.22595238095255
1342.4,230.17385714285726
1344.5,198.58293333333344
1346.6,167.0748761904763
1348.7,142.22326190476196
1350.8,117.55454285714293
1352.9,76.88027619047624
1354.99,78.01266666666675
1357.09,107.71523809523819
1359.18,145.1330761904763
1361.27,164.0301857142858
1363.36,168.40835238095246
1365.45,166.6502380952382
1367.54,172.09109523809533
1369.62,163.44623809523821
1371.7,197.1459523809525
1373.79,217.47747619047632
1375.87,222.2990952380954
1377.95,249.5641904761906
1380.03,245.84538095238108
1382.1,209.1431904761906
1384.18,206.07757142857153
1386.25,184.83954285714296
1388.33,159.81060000000008
1390.4,135.8482238095239
1392.47,103.28605523809529
1394.54,51.26694095238097
1396.6,31.50509142857146
1398.67,44.61924952380957
1400.74,54.18047714285718
1402.8,62.42629333333336
1404.86,66.7369504761905
1406.92,37.44491428571431
1408.98,52.73968571428578
1411.04,77.38195238095243
1413.09,93.03698571428578
1415.15,97.2271333333334
1417.2,104.71252380952387
1419.25,83.25337142857147
1421.3,91.99065238095243
1423.35,78.25560476190479
1425.4,71.56984285714289
1427.45,58.88348095238099
1429.49,61.19400952380956
1431.54,49.73711428571431
1433.58,36.27204285714288
1435.62,46.12944285714289
1437.66,50.020771428571464
1439.7,58.56222380952386
1441.74,71.51273809523813
1443.77,81.393080952381
1445.81,73.77159047619054
1447.84,97.31175714285719
1449.87,97.43896190476195
1451.9,82.4356428571429
1453.93,88.58435238095245
1455.96,98.54828095238102
1457.98,109.22868095238104
1460.01,131.5744142857144
1462.03,163.0585523809525
1464.05,181.6776666666668
1466.07,212.42838095238108
1468.09,232.4498571428573
1470.11,261.7863333333335
1472.13,299.24366666666685
1474.14,303.1996666666669
1476.16,298.3174761904763
1478.17,269.54595238095254
1480.18,236.97709523809536
1482.19,228.98879047619062
1484.2,204.48218571428578
1486.21,136.73980952380958
1488.21,98.52010952380958
1490.22,81.24868095238102
1492.22,75.398780952381
1494.22,71.25318095238096
1496.22,40.570733333333344
1498.22,25.20575238095241
1500.22,32.964811428571466
1502.22,44.17872809523812
1504.21,55.130556190476206
1506.21,37.53213857142858
1508.2,24.476298095238114
1510.19,21.81789142857144
1512.18,5.411790476190474
1514.17,15.160836666666697
1516.16,29.634250476190495
1518.14,34.258706190476225
1520.13,49.88952761904764
1522.11,56.144080952380975
1524.09,47.354100000000045
1526.07,68.94686380952385
1528.05,54.539847142857155
1530.03,44.56033238095241
1532.01,46.102343333333366
1533.98,51.78383238095242
1535.96,60.746623333333375
1537.93,69.2754542857143
1539.9,42.321885714285735
1541.87,45.55160476190481
1543.84,69.01175714285719
1545.81,89.79687619047625
1547.78,112.90632857142863
1549.74,120.76828571428575
1551.7,94.38238571428577
1553.67,85.70035238095244
1555.63,104.67473809523817
1557.59,114.73372380952392
1559.55,149.1629857142858
1561.5,173.62909523809535
1563.46,170.5129523809525
1565.41,155.05257142857153
1567.37,163.91495238095249
1569.32,160.29042857142866
1571.27,163.5130476190477
1573.22,176.77319047619056
1575.17,172.11909523809533
1577.11,155.64661904761914
1579.06,159.92742857142866
1581.0,167.6285238095239
1582.95,159.89357142857153
1584.89,157.38961904761914
1586.83,148.11742857142866
1588.77,155.5065142857144
1590.7,145.27156190476197
1592.64,161.1278857142858
1594.58,160.14772380952382
1596.51,153.92725238095244
1598.44,142.80070476190505
