Raman Shift,Processed Intensity
331.095,41.85596476190464
333.909,11.015424285714328
336.721,2.1353942857143693
339.531,7.172134761904781
342.339,11.03403523809525
345.145,37.67744333333336
347.949,22.1548657142857
350.751,-3.4803785714285844
353.55,-10.2217457142857
356.348,-3.4426504761904675
359.144,4.00826095238098
361.937,30.85482190476192
364.729,44.20275619047625
367.518,66.68289952380961
370.306,135.9745304761906
373.091,250.80601428571447
375.874,333.7164285714287
378.656,340.0550000000002
381.435,309.07743809523816
384.212,208.18351904761911
386.988,101.05979047619053
389.761,25.251699999999985
392.532,-38.932333333333354
395.301,-55.13521428571428
398.068,-31.235933333333318
400.833,10.173401904761935
403.596,48.54978999999999
406.358,28.161228571428566
409.117,-4.389810476190477
411.874,-2.0707847619047524
414.629,4.199720000000025
417.382,22.40913238095241
420.133,50.45096047619051
422.882,62.648372380952424
425.629,78.42099523809533
428.374,163.66529523809538
431.117,229.89822857142872
433.858,260.7805714285716
436.597,267.4980000000001
439.334,230.046761904762
442.069,176.99509523809536
444.802,160.72114285714295
447.533,118.36614285714295
450.262,138.07223809523822
452.989,196.220142857143
455.714,221.95366666666678
458.438,219.17838095238105
461.159,194.61061904761914
463.878,132.96685714285724
466.595,124.39285714285725
469.31,133.89200000000005
472.024,116.37314285714292
474.735,119.69757142857151
477.444,100.20347619047622
480.152,81.61014285714292
482.857,103.44661904761912
485.561,117.38552380952389
488.262,149.09956190476203
490.962,175.3094952380953
493.659,140.54558095238102
496.355,116.29087619047624
499.048,120.55252380952388
501.74,113.05180952380962
504.43,122.31973333333339
507.118,127.64945714285722
509.804,117.71514285714295
512.488,134.23890476190488
515.17,178.561742857143
517.85,188.78631428571438
520.528,174.30135238095247
523.204,135.9714571428572
525.878,95.23302857142865
528.551,86.85575238095245
531.221,99.65638571428576
533.89,85.4043047619048
536.556,69.10698571428574
539.221,36.29544285714289
541.883,43.072080952381015
544.544,73.39641428571434
547.203,104.70371428571436
549.86,116.1433571428572
552.515,128.34114285714293
555.168,99.82720000000006
557.819,127.36920952380962
560.469,152.59222857142868
563.116,186.1211142857144
565.761,182.0086285714287
568.405,201.49824761904773
571.047,180.4044285714287
573.687,230.0169809523811
576.324,204.81652857142868
578.96,197.0930095238096
581.594,161.42151904761914
584.227,151.0912952380953
586.857,145.1532904761906
589.485,170.80063809523816
592.112,121.13122857142864
594.737,111.29009523809532
597.359,88.27907619047623
599.98,82.33797142857149
602.599,115.80125714285722
605.216,140.6701714285715
607.831,146.08840000000006
610.445,166.67519619047627
613.056,125.90691047619052
615.666,68.73593047619052
618.274,44.066327619047655
620.88,42.707292380952445
623.484,78.89572952380962
626.086,145.82049619047626
628.686,169.62339047619056
631.284,152.25495238095243
633.881,152.28438095238104
636.476,152.80480952380964
639.068,145.3370000000001
641.659,169.21171428571438
644.249,172.711761904762
646.836,159.78646666666674
649.421,143.33679523809528
652.005,107.93058095238096
654.587,62.944747619047654
657.166,49.423037142857176
659.745,27.456308571428593
662.321,24.088098095238117
664.895,27.647005714285747
667.468,38.0331885714286
670.038,61.479946666666706
672.607,72.7443085714286
675.174,63.487995238095266
677.739,64.51549047619052
680.303,52.86934761904765
682.864,68.30616190476196
685.424,83.39232380952384
687.982,65.21786190476193
690.538,49.6347142857143
693.092,30.78051904761906
695.645,20.554846666666712
698.195,32.142884761904774
700.744,46.34924571428573
703.291,27.454596190476188
705.836,27.882550476190488
708.38,6.342565714285722
710.921,10.925146666666677
713.461,4.149500000000017
715.999,29.201576190476217
718.535,40.41037619047623
721.069,54.96209523809526
723.602,62.281204761904796
726.133,57.6970523809524
728.662,39.824780952380976
731.189,36.32726666666669
733.714,36.105680952380986
736.238,58.489700000000056
738.759,78.57126666666669
741.279,73.29942857142859
743.798,51.623309523809546
746.314,46.49217142857147
748.829,36.807761904761946
751.342,63.18610952380957
753.853,77.43407619047623
756.362,77.50129047619052
758.869,84.67084285714292
761.375,95.60693238095241
763.879,68.06905142857147
766.381,50.76918380952384
768.882,38.08609142857145
771.38,36.970017142857195
773.877,56.895118095238146
776.372,86.4785752380953
778.866,89.48043333333338
781.357,92.8036428571429
783.847,104.9704714285715
786.335,101.88424285714291
788.821,99.78145238095244
791.306,94.85144761904768
793.789,82.14044761904769
796.27,99.31415238095246
798.749,126.56200952380959
801.227,137.12107142857153
803.702,165.84752380952392
806.176,175.97900000000013
808.649,183.70504761904775
811.119,189.64457142857154
813.588,198.0351904761906
816.055,176.97185714285723
818.521,182.12071428571443
820.984,165.00595238095246
823.446,161.91291428571435
825.906,140.46096190476197
828.365,126.74568571428578
830.821,122.81499047619057
833.276,141.19278095238104
835.729,149.64229523809536
838.181,157.8780095238096
840.631,167.94856190476202
843.079,145.5213714285715
845.525,142.74002857142864
847.97,130.79635238095244
850.412,100.12039523809528
852.854,90.04663809523817
855.293,97.10060952380957
857.731,95.23594285714293
860.167,107.07352761904767
862.601,89.56775380952382
865.034,48.91097904761909
867.465,69.58132904761909
869.894,53.72398571428575
872.321,70.67440238095244
874.747,72.10185142857144
877.171,37.29457428571431
879.594,36.82662857142862
882.014,64.22443904761909
884.433,69.30062095238102
886.851,117.34374476190482
889.266,135.9758476190477
891.68,128.77179047619055
894.092,144.7824095238096
896.503,142.82047619047628
898.912,129.69904761904772
901.319,136.70714285714294
903.724,131.1815238095239
906.128,127.50709523809535
908.53,154.2588000000001
910.931,152.6308476190477
913.329,145.24602857142867
915.726,132.77496190476197
918.122,114.9356000000001
920.516,119.06522857142865
922.908,118.69134761904768
925.298,105.58000952380958
927.687,87.68720000000003
930.074,69.49321428571433
932.459,62.47799047619052
934.843,69.21686190476194
937.225,68.80891904761911
939.605,96.68677809523815
941.984,85.6635804761905
944.361,66.50508952380954
946.736,41.83407190476192
949.11,18.65425142857145
951.482,23.493090000000038
953.853,42.68750666666668
956.222,41.431538095238125
958.589,40.91913809523812
960.954,41.86794761904764
963.318,45.13845714285719
965.68,64.63859047619053
968.041,76.75243257142861
970.4,66.00681542857144
972.757,46.785559428571446
975.113,27.948606476190484
977.467,13.68909180952382
979.819,-0.9428745714285602
982.17,17.626519238095266
984.519,41.73282428571432
986.866,60.092399047619075
989.212,54.18339666666668
991.556,57.95978095238098
993.899,39.661404761904805
996.24,69.48013809523816
998.579,91.75058095238099
1000.92,91.66431904761907
1003.25,62.127019047619065
1005.59,48.90122380952383
1007.92,27.03531904761908
1010.25,36.958285714285736
1012.58,37.14664285714288
1014.91,42.36243142857145
1017.24,25.31991714285716
1019.56,31.923981904761938
1021.88,40.84079238095242
1024.2,77.49859619047626
1026.52,110.23021238095245
1028.84,139.2252457142858
1031.16,162.05434761904772
1033.48,167.76475238095247
1035.79,175.64080952380965
1038.1,189.77676190476203
1040.41,178.50457142857152
1042.72,183.39423809523822
1045.03,195.06309523809534
1047.33,181.4622380952382
1049.64,176.256761904762
1051.94,177.15933333333342
1054.24,171.31076190476202
1056.54,175.75695238095247
1058.84,173.1622380952382
1061.13,144.619761904762
1063.43,129.22290476190489
1065.72,139.68366666666677
1068.01,153.38057142857153
1070.3,176.50161904761916
1072.59,201.80647619047627
1074.87,187.10228571428584
1077.16,186.0054285714287
1079.44,189.89438095238108
1081.72,211.05228571428592
1084.0,251.33314285714306
1086.28,344.544285714286
1088.56,473.25423809523846
1090.84,596.2219523809528
1093.11,693.0165238095242
1095.38,711.920904761905
1097.65,628.4555238095242
1099.92,542.7608571428575
1102.19,463.5001904761907
1104.46,410.0518095238098
1106.72,398.7940952380955
1108.98,409.72404761904784
1111.24,423.88628571428603
1113.5,455.23033333333353
1115.76,497.3248095238098
1118.02,533.5478095238097
1120.28,554.5633333333336
1122.53,547.5112380952384
1124.78,506.1983809523812
1127.03,445.47885714285746
1129.28,376.2074761904764
1131.53,317.42909523809544
1133.77,276.18880952380965
1136.02,236.91252380952395
1138.26,208.3594761904763
1140.5,191.28885714285727
1142.74,189.84114285714298
1144.98,195.0619523809525
1147.22,228.3296190476192
1149.45,246.26109523809538
1151.69,245.0922380952382
1153.92,233.535142857143
1156.15,222.06395238095246
1158.38,186.39095238095248
1160.61,180.89522190476197
1162.83,125.57502428571433
1165.06,83.47628666666672
1167.28,79.88305666666672
1169.5,62.07966285714291
1171.72,64.39781000000005
1173.94,77.69362190476193
1176.16,67.44208095238102
1178.37,67.26090952380959
1180.58,94.29194761904768
1182.8,93.29625238095242
1185.01,89.17778571428576
1187.22,75.65012857142861
1189.42,66.99855238095242
1191.63,55.460537142857184
1193.84,48.36914666666669
1196.04,41.2001885714286
1198.24,38.62019619047621
1200.44,25.86716952380954
1202.64,32.46494666666669
1204.84,29.985103809523817
1207.03,28.0469523809524
1209.23,14.412738095238094
1211.42,3.32101428571429
1213.61,7.915280952380978
1215.8,30.148657142857164
1217.99,37.40294285714289
1220.18,52.96484761904763
1222.36,37.07355238095239
1224.55,29.53978571428575
1226.73,37.74581428571432
1228.91,55.35971904761909
1231.09,67.28779523809527
1233.27,64.57925238095241
1235.44,58.90248095238098
1237.62,48.02120000000002
1239.79,54.93726190476197
1241.96,82.70038095238101
1244.13,95.55061428571435
1246.3,112.3470857142858
1248.47,123.7588952380953
1250.64,124.93114285714296
1252.8,151.53276190476203
1254.96,189.47109523809536
1257.13,200.2246190476192
1259.29,232.08147619047634
1261.44,236.7589047619049
1263.6,226.02128571428582
1265.76,197.91914285714296
1267.91,188.97895238095248
1270.06,154.53666666666678
1272.22,159.73790476190487
1274.37,165.39519047619058
1276.51,161.74961904761915
1278.66,151.75669523809532
1280.81,136.80010000000004
1282.95,104.93020000000007
1285.09,99.95975714285721
1287.23,127.27262857142865
1289.37,153.01520476190484
1291.51,163.33312857142866
1293.65,130.61034761904767
1295.78,99.23079523809528
1297.92,62.864361904761964
1300.05,79.99022380952388
1302.18,99.65919047619053
1304.31,123.25507619047627
1306.44,110.49548095238102
1308.57,128.24069523809533
1310.69,135.4935238095239
1312.82,160.7332380952382
1314.94,166.34385714285725
1317.06,173.7090476190477
1319.18,174.26057142857155
1321.3,187.95371428571445
1323.41,216.02938095238108
1325.53,256.96657142857157
1327.64,288.00628571428587
1329.75,293.48419047619063
1331.87,326.16509523809543
1333.98,319.3850476190478
1336.08,333.337523809524
1338.19,324.9771904761906
1340.3,306.0208095238097
1342.4,269.28007619047634
1344.5,226.56698095238107
1346.6,175.83608571428584
1348.7,130.51847619047624
1350.8,98.80649523809531
1352.9,96.55961904761912
1354.99,121.01760952380961
1357.09,134.61107619047627
1359.18,161.19898095238102
1361.27,152.6400952380953
1363.36,147.4124761904763
1365.45,160.85085714285725
1367.54,164.09938095238104
1369.62,170.9211904761906
1371.7,201.84133333333347
1373.79,224.8134285714287
1375.87,252.36242857142872
1377.95,284.2984761904763
1380.03,255.33657142857155
1382.1,210.4771904761906
1384.18,200.38761904761918
1386.25,175.11628571428582
1388.33,173.99638095238106
1390.4,174.12315238095246
1392.47,124.44894761904767
1394.54,76.64030476190482
1396.6,68.98268571428575
1398.67,51.618604761904805
1400.74,59.451952380952434
1402.8,71.62476190476194
1404.86,81.94583238095242
1406.92,65.27114904761908
1408.98,58.59952190476195
1411.04,67.69143190476196
1413.09,70.11694095238099
1415.15,61.49351571428576
1417.2,87.48626095238102
1419.25,85.5216714285715
1421.3,101.8836857142858
1423.35,124.90347142857149
1425.4,111.34089047619054
1427.45,90.76507619047624
1429.49,75.88800476190481
1431.54,58.135666666666715
1433.58,51.02952857142861
1435.62,47.0430666666667
1437.66,52.84048571428576
1439.7,66.60928571428576
1441.74,75.72757142857148
1443.77,93.62122857142865
1445.81,103.81099047619054
1447.84,116.00799047619056
1449.87,120.35239047619054
1451.9,123.50752380952389
1453.93,121.51784761904771
1455.96,132.85682857142865
1457.98,139.18762857142866
1460.01,149.7925809523811
1462.03,144.7164285714287
1464.05,189.43180952380968
1466.07,218.45904761904777
1468.09,256.4618571428573
1470.11,280.3890476190478
1472.13,296.142523809524
1474.14,290.33790476190495
1476.16,309.5910476190478
1478.17,280.1365238095239
1480.18,241.2567142857144
1482.19,204.56724761904772
1484.2,159.39883809523818
1486.21,115.7955333333334
1488.21,92.99271428571433
1490.22,79.17743809523816
1492.22,74.91806190476197
1494.22,90.16391904761909
1496.22,78.00747142857146
1498.22,63.54098571428574
1500.22,42.95211904761907
1502.22,29.42847142857145
1504.21,29.681755238095263
1506.21,25.995048095238108
1508.2,30.318172380952415
1510.19,46.458177619047646
1512.18,47.412702857142875
1514.17,36.94138523809526
1516.16,41.28016761904763
1518.14,33.52221171428574
1520.13,34.23700195238098
1522.11,28.803656285714283
1524.09,6.649050428571424
1526.07,-6.799834190476179
1528.05,-7.115837571428557
1530.03,25.223716476190514
1532.01,54.7889944761905
1533.98,54.86472614285716
1535.96,40.40244371428574
1537.93,39.97288671428574
1539.9,39.813615142857195
1541.87,73.25767185714291
1543.84,84.87605209523814
1545.81,87.66859523809529
1547.78,93.58763809523815
1549.74,101.68086666666673
1551.7,105.94845238095246
1553.67,120.0097571428572
1555.63,103.53180952380959
1557.59,115.22950000000007
1559.55,139.57947619047627
1561.5,147.6300476190477
1563.46,147.9060476190477
1565.41,167.93214285714294
1567.37,163.4237142857144
1569.32,161.47682857142865
1571.27,142.14018571428576
1573.22,113.5578952380953
1575.17,104.30300476190484
1577.11,116.7100857142858
1579.06,140.2091000000001
1581.0,145.08707619047627
1582.95,133.86954285714293
1584.89,120.46294285714293
1586.83,121.63101904761913
1588.77,117.42305714285722
1590.7,127.60277142857149
1592.64,121.26719047619055
1594.58,115.13247619047621
1596.51,111.36711904761913
1598.44,113.3062857142859
