Raman Shift,Processed Intensity
331.095,112.57503809523793
333.909,2.8252404761903023
336.721,-35.031780952381055
339.531,-24.380842857142834
342.339,19.583409523809554
345.145,34.547724285714295
347.949,28.080846904761906
350.751,18.561970000000006
353.55,23.466512619047634
356.348,20.556698571428587
359.144,2.405318333333314
361.937,-10.985047142857136
364.729,-14.56299523809521
367.518,19.914361904761975
370.306,80.07274761904773
373.091,193.7292809523811
375.874,275.17844285714307
378.656,351.7642380952383
381.435,330.9268761904763
384.212,249.29835238095242
386.988,124.46503904761909
389.761,45.538022380952405
392.532,14.96314095238099
395.301,17.85489285714286
398.068,11.804980000000015
400.833,22.97826904761905
403.596,9.445898095238082
406.358,-16.100360952380967
409.117,-39.10998771428575
411.874,-59.60228842857145
414.629,-40.26159590476189
417.382,-14.199153952380954
420.133,1.7134183809523993
422.882,28.13004014285718
425.629,65.18229228571437
428.374,134.28851428571443
431.117,241.72617619047637
433.858,307.9164571428573
436.597,300.66295238095256
439.334,266.3896190476192
442.069,211.5692380952382
444.802,172.2467142857144
447.533,194.4686190476192
450.262,225.32957142857154
452.989,237.49652380952398
455.714,258.87600000000015
458.438,254.7081904761906
461.159,226.47247619047627
463.878,205.55374285714294
466.595,173.24226666666678
469.31,114.54310476190481
472.024,92.50992380952388
474.735,77.6252952380953
477.444,121.27712380952391
480.152,173.94912380952394
482.857,216.88738095238108
485.561,209.05257142857153
488.262,213.35814285714292
490.962,169.81333333333342
493.659,162.2370476190477
496.355,159.73438095238106
499.048,150.17214285714294
501.74,149.8462380952382
504.43,147.24304761904767
507.118,139.8492857142858
509.804,157.96123809523823
512.488,204.8275714285716
515.17,237.64947619047632
517.85,251.2949047619049
520.528,221.48838095238108
523.204,178.47900000000007
525.878,143.80100000000007
528.551,120.8932857142858
531.221,107.71895238095246
533.89,123.38319047619056
536.556,143.4198952380953
539.221,125.41044761904764
541.883,88.69791428571432
544.544,69.1485428571429
547.203,63.00988571428579
549.86,86.76693333333341
552.515,107.61907619047626
555.168,128.81242857142865
557.819,132.64110476190487
560.469,156.92217142857152
563.116,167.3773142857144
565.761,170.58476190476202
568.405,180.599142857143
571.047,205.61690476190486
573.687,223.31104761904777
576.324,215.78233333333344
578.96,205.13076190476207
581.594,205.78957142857158
584.227,214.52552380952395
586.857,226.10400000000016
589.485,244.1000000000001
592.112,211.2309047619049
594.737,199.07085714285728
597.359,189.19338095238106
599.98,175.79109523809535
602.599,192.10329523809537
605.216,186.98784285714294
607.831,145.1595190476191
610.445,121.52353809523815
613.056,105.55528095238104
615.666,115.49255714285725
618.274,145.71541428571436
620.88,146.6505238095239
623.484,140.72461904761917
626.086,173.55485714285726
628.686,197.9004285714287
631.284,252.47276190476208
633.881,294.03052380952397
636.476,308.66528571428586
639.068,297.23004761904775
641.659,285.91133333333346
644.249,235.03804761904775
646.836,209.55765714285724
649.421,164.94136190476198
652.005,126.18411333333337
654.587,75.99450857142858
657.166,42.70039809523812
659.745,16.676929523809545
662.321,22.632431428571447
664.895,25.037089523809538
667.468,22.646675238095238
670.038,7.264523809523817
672.607,3.836800000000007
675.174,14.642933333333366
677.739,37.39091428571433
680.303,68.21737619047624
682.864,89.54468095238099
685.424,82.08095476190478
687.982,43.820123809523814
690.538,31.613264285714305
693.092,10.073519047619065
695.645,31.147488095238142
698.195,39.25808095238096
700.744,52.01883333333336
703.291,47.472047619047636
705.836,35.61250952380952
708.38,11.197114285714308
710.921,27.69726666666668
713.461,22.58450952380956
715.999,47.61632380952385
718.535,64.21710000000002
721.069,57.14472380952383
723.602,43.15719523809526
726.133,41.441342857142885
728.662,32.51743809523811
731.189,28.477414285714318
733.714,38.93714761904765
736.238,34.41746190476193
738.759,59.820128571428626
741.279,64.95210476190479
743.798,76.6203428571429
746.314,68.53674761904765
748.829,46.50857142857144
751.342,30.819238095238145
753.853,59.1335047619048
756.362,74.54485714285721
758.869,89.90871904761907
761.375,77.22348095238098
763.879,41.24956190476193
766.381,49.27115523809528
768.882,51.19198857142861
771.38,52.58235809523812
773.877,43.346060000000016
776.372,23.48223285714286
778.866,20.656771428571467
781.357,38.48810904761907
783.847,39.690040000000025
786.335,42.16687000000004
788.821,70.48983904761911
791.306,84.37291428571436
793.789,114.7684857142858
796.27,137.676361904762
798.749,145.0015904761906
801.227,179.03004761904776
803.702,183.42890476190485
806.176,207.34109523809536
808.649,204.8626666666668
811.119,199.18420952380964
813.588,166.35440000000008
816.055,154.99303809523818
818.521,127.24398095238104
820.984,135.01246666666677
823.446,135.87125714285722
825.906,132.7260190476191
828.365,119.38742857142863
830.821,106.47600000000007
833.276,124.99320952380961
835.729,126.27333809523816
838.181,114.0798571428572
840.631,107.46204285714293
843.079,94.18300000000006
845.525,98.81626190476197
847.97,118.22057142857147
850.412,105.87373809523812
852.854,66.58714761904766
855.293,66.60085238095242
857.731,48.44051428571433
860.167,50.72741904761909
862.601,59.08245704761907
865.034,41.698221571428576
867.465,18.767324095238116
869.894,23.52995985714287
872.321,18.89317647619049
874.747,25.383064428571465
877.171,44.76373800000003
879.594,63.27589523809529
882.014,85.54052857142862
884.433,98.51263809523815
886.851,93.71836666666671
889.266,106.16025238095246
891.68,105.03135238095246
894.092,141.81050952380963
896.503,177.69020000000012
898.912,188.10185714285723
901.319,172.19071428571436
903.724,163.292761904762
906.128,146.79190476190487
908.53,148.78561904761915
910.931,164.9910476190477
913.329,167.07726666666676
915.726,149.95164285714293
918.122,115.99774285714291
920.516,114.59930000000007
922.908,86.28251428571434
925.298,76.00274761904768
927.687,62.04805714285717
930.074,49.611638095238135
932.459,51.838923809523884
934.843,93.87532380952386
937.225,80.10439523809525
939.605,71.24301428571431
941.984,49.24610000000002
944.361,27.40190952380956
946.736,41.14150952380956
949.11,53.27688095238097
951.482,29.477104761904787
953.853,39.64935714285717
956.222,43.79595238095242
958.589,50.395361904761955
960.954,79.02130476190482
963.318,75.19958095238098
965.68,83.83707619047627
968.041,112.55468095238103
970.4,110.97326190476196
972.757,112.18976666666671
975.113,99.49161428571429
977.467,50.9277666666667
979.819,38.118723809523836
982.17,35.63696666666668
984.519,29.674000000000035
986.866,44.564028571428594
989.212,45.06966666666669
991.556,40.62005714285718
993.899,67.50137619047626
996.24,100.7138476190477
998.579,118.35294285714292
1000.92,118.22829047619054
1003.25,100.05411904761908
1005.59,66.49697142857146
1007.92,67.3185285714286
1010.25,51.0422
1012.58,22.334314285714296
1014.91,10.956304761904786
1017.24,38.71729047619053
1019.56,57.09274285714291
1021.88,106.70110952380958
1024.2,128.11327619047628
1026.52,141.4232857142858
1028.84,135.15447142857153
1031.16,157.4486857142858
1033.48,157.40019047619057
1035.79,171.29380952380967
1038.1,225.79528571428585
1040.41,246.66504761904775
1042.72,258.4262857142859
1045.03,273.5060952380953
1047.33,269.71280952380965
1049.64,253.66423809523826
1051.94,241.69238095238106
1054.24,188.31938095238107
1056.54,171.68680952380964
1058.84,162.45995238095253
1061.13,181.01823809523825
1063.43,213.7889523809525
1065.72,216.3420000000001
1068.01,186.81861904761914
1070.3,171.97904761904775
1072.59,179.63104761904776
1074.87,183.72528571428583
1077.16,209.784142857143
1079.44,234.18661904761916
1081.72,253.35990476190494
1084.0,310.11157142857166
1086.28,390.77319047619073
1088.56,468.5809047619051
1090.84,579.6760952380956
1093.11,671.2949047619051
1095.38,714.5785238095241
1097.65,690.9058095238099
1099.92,585.5130952380956
1102.19,480.9222380952384
1104.46,400.51228571428595
1106.72,376.995904761905
1108.98,387.9903809523812
1111.24,428.49361904761935
1113.5,509.21823809523846
1115.76,586.6384761904765
1118.02,627.0382380952385
1120.28,639.7490952380956
1122.53,614.4357142857147
1124.78,566.5724761904764
1127.03,510.0623333333336
1129.28,429.99852380952404
1131.53,360.66523809523835
1133.77,289.8703333333335
1136.02,242.659523809524
1138.26,236.07885714285726
1140.5,216.07876190476202
1142.74,213.18138095238112
1144.98,234.62314285714302
1147.22,283.7834761904764
1149.45,306.1368095238097
1151.69,335.44371428571446
1153.92,336.4642857142859
1156.15,299.29247619047635
1158.38,241.73604761904775
1160.61,214.41276190476202
1162.83,155.55920476190482
1165.06,106.31706190476197
1167.28,76.922980952381
1169.5,63.18516666666671
1171.72,55.10220952380957
1173.94,74.24456666666673
1176.16,109.13488095238104
1178.37,130.77207619047627
1180.58,129.25027619047626
1182.8,130.47305619047626
1185.01,95.43962285714288
1187.22,44.05375047619051
1189.42,45.40992952380956
1191.63,39.55502190476194
1193.84,46.05965619047623
1196.04,59.637480000000025
1198.24,52.049825714285724
1200.44,31.153328095238113
1202.64,13.947556190476183
1204.84,1.384603333333347
1207.03,1.1309590476190532
1209.23,6.61515761904764
1211.42,18.884894285714303
1213.61,22.98797952380953
1215.8,11.97231238095241
1217.99,53.124248095238144
1220.18,54.25375714285717
1222.36,58.40919285714289
1224.55,70.30574285714287
1226.73,56.65868095238099
1228.91,60.32622857142863
1231.09,85.35747142857147
1233.27,78.08697142857147
1235.44,76.51627619047625
1237.62,84.12324285714291
1239.79,104.00497619047627
1241.96,148.83000476190486
1244.13,174.21920476190488
1246.3,164.46037619047627
1248.47,142.31770476190485
1250.64,114.3649095238096
1252.8,144.46156190476205
1254.96,206.7053285714287
1257.13,257.47968571428584
1259.29,282.16819047619066
1261.44,289.4882380952382
1263.6,270.39471428571443
1265.76,272.12857142857155
1267.91,252.31176190476205
1270.06,218.61390476190488
1272.22,201.94276190476205
1274.37,182.96857142857152
1276.51,157.6940000000001
1278.66,169.59871428571438
1280.81,193.97157142857156
1282.95,210.387142857143
1285.09,210.99166666666676
1287.23,209.69314285714296
1289.37,163.8282380952382
1291.51,134.25767619047627
1293.65,106.98484285714292
1295.78,81.96559047619053
1297.92,77.72720476190484
1300.05,102.74911428571436
1302.18,118.98717619047628
1304.31,131.73043809523816
1306.44,119.93447619047627
1308.57,129.03161904761913
1310.69,157.35866666666678
1312.82,174.10938095238106
1314.94,189.09652380952394
1317.06,197.3234285714287
1319.18,206.41228571428587
1321.3,230.5570952380954
1323.41,257.04685714285733
1325.53,280.1227142857145
1327.64,321.02580952380976
1329.75,375.8542380952383
1331.87,403.9444285714288
1333.98,401.82309523809545
1336.08,368.6839523809525
1338.19,332.2917142857145
1340.3,308.7918095238097
1342.4,283.5677142857145
1344.5,249.9079047619049
1346.6,201.8148095238096
1348.7,167.62442857142867
1350.8,151.38650476190486
1352.9,124.24595714285721
1354.99,119.77634285714295
1357.09,138.78932857142868
1359.18,154.0963904761906
1361.27,162.60405238095248
1363.36,168.69502857142865
1365.45,158.84709523809536
1367.54,166.4424285714287
1369.62,183.81580952380966
1371.7,227.2063809523811
1373.79,253.56757142857157
1375.87,265.376523809524
1377.95,287.58657142857163
1380.03,300.53142857142876
1382.1,298.021142857143
1384.18,299.6274285714287
1386.25,261.58866666666677
1388.33,199.47601904761913
1390.4,136.33690000000007
1392.47,104.64715238095246
1394.54,90.40610000000004
1396.6,79.27984285714291
1398.67,68.69601428571434
1400.74,66.55822380952384
1402.8,62.96047619047624
1404.86,66.09181428571434
1406.92,91.61684761904769
1408.98,93.48634761904768
1411.04,104.50777619047624
1413.09,66.10748809523812
1415.15,74.18822380952386
1417.2,83.46131666666675
1419.25,112.92407142857151
1421.3,136.24077857142868
1423.35,161.0749095238096
1425.4,117.66175238095245
1427.45,117.52202857142865
1429.49,133.89040000000008
1431.54,135.81152857142865
1433.58,115.13928571428576
1435.62,122.53669047619053
1437.66,104.19075714285721
1439.7,104.66930000000008
1441.74,113.68286190476196
1443.77,116.6089428571429
1445.81,82.25319047619053
1447.84,82.80237142857148
1449.87,88.39565238095244
1451.9,98.36252380952388
1453.93,99.03242380952388
1455.96,110.25881904761913
1457.98,136.99013333333346
1460.01,166.3653047619049
1462.03,225.80935238095256
1464.05,269.46090476190494
1466.07,298.8402857142859
1468.09,322.08652380952407
1470.11,345.10109523809547
1472.13,358.02295238095263
1474.14,378.46752380952404
1476.16,383.8596666666669
1478.17,369.9104285714288
1480.18,341.9970000000002
1482.19,300.4496666666669
1484.2,248.122142857143
1486.21,186.2018095238096
1488.21,152.5430952380953
1490.22,107.80969047619053
1492.22,78.85566666666674
1494.22,92.24982380952385
1496.22,66.84655714285716
1498.22,36.40540952380955
1500.22,38.20990952380955
1502.22,40.30537619047623
1504.21,46.7851190476191
1506.21,71.93314285714288
1508.2,67.60471333333335
1510.19,34.560225238095256
1512.18,46.03630761904766
1514.17,50.26976523809525
1516.16,53.06898857142861
1518.14,64.33762523809526
1520.13,70.0747323809524
1522.11,55.612828571428615
1524.09,53.09403333333334
1526.07,44.13678571428575
1528.05,34.55010000000003
1530.03,39.66682380952385
1532.01,67.24866666666672
1533.98,96.0095285714286
1535.96,98.71119047619054
1537.93,111.54402380952385
1539.9,92.60327619047622
1541.87,80.0317952380953
1543.84,81.73474761904768
1545.81,81.99790476190482
1547.78,92.15512380952387
1549.74,118.4446476190477
1551.7,137.05743333333342
1553.67,152.66055238095248
1555.63,177.49280952380965
1557.59,185.60261904761916
1559.55,187.22895238095248
1561.5,189.41990476190483
1563.46,163.31900000000007
1565.41,156.68909523809532
1567.37,155.4835714285715
1569.32,151.46538095238105
1571.27,134.15952380952388
1573.22,143.32880952380964
1575.17,133.97409523809534
1577.11,181.5256000000001
1579.06,175.74621904761915
1581.0,169.97062857142865
1582.95,137.29530476190484
1584.89,146.48334285714296
1586.83,136.15517142857152
1588.77,171.97917142857153
1590.7,160.19433333333345
1592.64,181.89757142857155
1594.58,194.7330476190475
1596.51,191.25019047619034
1598.44,159.95066666666665
