Raman Shift,Processed Intensity
331.095,23.911378571428394
333.909,-6.065300000000086
336.721,-3.4296357142857303
339.531,15.94207142857146
342.339,29.792319047619053
345.145,39.95917619047622
347.949,20.40071904761904
350.751,16.075780952380953
353.55,-3.3416999999999977
356.348,0.0135380952381019
359.144,0.8647904761904934
361.937,17.983800000000013
364.729,23.619657142857207
367.518,91.45061904761917
370.306,156.82287619047634
373.091,267.89282380952403
375.874,370.2469523809526
378.656,356.1389523809525
381.435,312.77624761904775
384.212,218.0339485714286
386.988,90.12169380952386
389.761,26.726181904761926
392.532,3.345307619047617
395.301,-13.712847619047597
398.068,-2.8530219047619116
400.833,11.473908571428591
403.596,26.722915714285712
406.358,3.9217419047618876
409.117,-16.7576880952381
411.874,-4.570666666666678
414.629,-33.29495
417.382,-8.468890476190454
420.133,23.132388095238127
422.882,67.163761904762
425.629,114.47136666666677
428.374,189.99840952380964
431.117,226.7362285714287
433.858,246.153761904762
436.597,245.57814285714298
439.334,227.337761904762
442.069,162.61866666666674
444.802,148.2272380952382
447.533,141.44633333333346
450.262,159.36971428571442
452.989,205.0440952380954
455.714,233.37433333333345
458.438,226.45660000000012
461.159,196.81569523809534
463.878,150.7868476190477
466.595,82.46783333333337
469.31,70.52851428571437
472.024,77.21054285714291
474.735,109.42312380952389
477.444,126.83743809523817
480.152,134.55382857142862
482.857,137.3871380952382
485.561,155.53378095238102
488.262,154.23790476190487
490.962,171.12528571428578
493.659,153.20290476190482
496.355,131.28719047619057
499.048,140.2902857142858
501.74,123.3145714285715
504.43,126.03461904761913
507.118,133.55342857142864
509.804,143.4502380952382
512.488,184.63785714285729
515.17,224.02940952380965
517.85,211.01366666666678
520.528,182.64668095238102
523.204,111.31749523809529
525.878,71.41498571428579
528.551,75.18562857142865
531.221,110.87564285714294
533.89,103.73124761904766
536.556,90.90323333333333
539.221,40.82806666666668
541.883,37.27516666666673
544.544,52.72837619047625
547.203,102.81412857142865
549.86,131.53993809523817
552.515,144.62693333333343
555.168,135.08220476190485
557.819,139.91246666666675
560.469,135.45742857142866
563.116,151.39019047619058
565.761,168.66904761904772
568.405,180.6331904761906
571.047,197.43104761904775
573.687,197.11547619047633
576.324,177.97690476190485
578.96,160.87761904761913
581.594,140.05976190476198
584.227,146.09914285714297
586.857,163.1422857142858
589.485,180.57380952380962
592.112,184.96833333333345
594.737,175.8525238095239
597.359,142.89566666666673
599.98,138.10018095238104
602.599,120.61072857142865
605.216,122.19121904761914
607.831,92.319080952381
610.445,94.2334095238096
613.056,99.36381428571435
615.666,110.18702857142866
618.274,96.46500476190482
620.88,102.38829523809531
623.484,97.00429047619059
626.086,166.8839904761906
628.686,208.21668095238107
631.284,220.47771428571437
633.881,213.85600000000008
636.476,182.68347619047628
639.068,156.10128571428578
641.659,152.96456190476198
644.249,126.60420000000008
646.836,95.77996666666671
649.421,68.39377047619048
652.005,26.63354666666667
654.587,-6.646644761904762
657.166,-15.687841904761894
659.745,-5.826549523809511
662.321,18.457813333333355
664.895,24.638070476190496
667.468,51.901061904761946
670.038,61.33864285714288
672.607,56.56617333333335
675.174,36.43705666666668
677.739,25.042689523809536
680.303,24.712458571428613
682.864,37.25168571428574
685.424,53.323128095238125
687.982,42.589220476190484
690.538,39.998127619047644
693.092,29.45027761904764
695.645,41.98896571428573
698.195,36.94307095238097
700.744,32.26055952380953
703.291,10.698815238095253
705.836,15.92004142857144
708.38,19.633932380952405
710.921,22.264525238095253
713.461,31.378650476190497
715.999,44.16222000000003
718.535,45.134421904761936
721.069,61.14785619047623
723.602,60.864570476190494
726.133,59.13718571428575
728.662,55.38975714285717
731.189,39.951071428571446
733.714,40.00712857142862
736.238,72.79157333333339
738.759,60.82381857142862
741.279,80.38525333333338
743.798,62.85256904761906
746.314,23.507269523809555
748.829,28.29761666666671
751.342,56.55287238095242
753.853,61.88814476190482
756.362,77.3471447619048
758.869,85.35489047619053
761.375,63.85995000000003
763.879,57.28733333333337
766.381,62.25262619047623
768.882,64.18106666666671
771.38,65.64089761904768
773.877,88.62920952380958
776.372,97.14282857142864
778.866,94.13138571428577
781.357,107.59230476190481
783.847,110.09433333333337
786.335,70.9208142857143
788.821,72.5454571428572
791.306,66.34723333333336
793.789,45.70519523809529
796.27,63.90332857142863
798.749,103.98746666666675
801.227,105.76564761904773
803.702,151.85542857142866
806.176,197.58917142857158
808.649,221.63238095238108
811.119,222.03180952380967
813.588,231.64380952380964
816.055,216.84880952380965
818.521,184.07476190476203
820.984,180.13085714285722
823.446,171.921761904762
825.906,157.82833333333343
828.365,156.32666666666677
830.821,171.13138095238105
833.276,153.19500000000008
835.729,145.9466857142858
838.181,124.53004285714293
840.631,125.80265714285724
843.079,131.9559095238096
845.525,143.8478190476191
847.97,122.33656190476196
850.412,128.1376476190477
852.854,101.15711904761912
855.293,96.77720952380959
857.731,96.47585238095243
860.167,97.34975238095244
862.601,80.87682000000004
865.034,63.24933666666668
867.465,52.231154285714325
869.894,38.967153809523836
872.321,36.79286380952385
874.747,61.757889047619095
877.171,79.62663428571433
879.594,83.83018095238103
882.014,99.70414285714293
884.433,122.72726666666676
886.851,141.09296666666677
889.266,157.1368476190477
891.68,159.10014285714294
894.092,166.2715238095239
896.503,157.9870476190477
898.912,178.91633333333343
901.319,177.58619047619055
903.724,155.0950952380953
906.128,150.68409523809535
908.53,148.1659523809525
910.931,157.3537142857144
913.329,160.5362857142858
915.726,153.81190476190486
918.122,136.04161904761912
920.516,139.32338095238103
922.908,129.04161904761912
925.298,132.24771428571435
927.687,122.56414285714293
930.074,115.89880952380959
932.459,114.63642857142865
934.843,115.63719047619054
937.225,111.8572952380953
939.605,111.30013333333338
941.984,93.35015238095241
944.361,61.72488571428575
946.736,51.808880952380996
949.11,50.46253809523814
951.482,63.499064761904805
953.853,66.73113380952383
956.222,36.876422380952384
958.589,13.224042380952408
960.954,27.39617000000004
963.318,53.39608142857149
965.68,107.79852428571436
968.041,129.27337142857147
970.4,104.96655238095242
972.757,77.0716266666667
975.113,46.06753142857145
977.467,17.909534285714308
979.819,14.41004476190478
982.17,32.762224761904804
984.519,52.492460000000044
986.866,80.31755523809528
989.212,83.00178571428576
991.556,98.97587619047624
993.899,93.62303809523816
996.24,113.0881714285715
998.579,129.37322857142863
1000.92,129.336980952381
1003.25,100.55247619047623
1005.59,79.92586190476193
1007.92,37.17286190476192
1010.25,26.818504761904805
1012.58,45.006766666666714
1014.91,66.88129047619053
1017.24,86.20470952380957
1019.56,107.73939047619054
1021.88,103.29542857142864
1024.2,118.73025238095246
1026.52,135.52027619047627
1028.84,150.28414285714294
1031.16,150.16490476190484
1033.48,148.2093333333334
1035.79,132.03661904761915
1038.1,137.88414285714296
1040.41,157.41800000000015
1042.72,213.25609523809538
1045.03,237.68352380952393
1047.33,248.12728571428585
1049.64,222.63438095238104
1051.94,202.06057142857154
1054.24,169.5472857142858
1056.54,181.1409523809525
1058.84,178.7444761904763
1061.13,176.68957142857153
1063.43,170.40314285714297
1065.72,190.35938095238106
1068.01,196.1277142857144
1070.3,225.75419047619062
1072.59,217.14095238095246
1074.87,195.95300000000012
1077.16,173.6640000000001
1079.44,193.93847619047634
1081.72,226.29771428571445
1084.0,269.0252380952383
1086.28,327.9754285714289
1088.56,446.0033333333337
1090.84,574.0585714285719
1093.11,689.9006190476194
1095.38,717.8121904761908
1097.65,648.5050952380956
1099.92,546.9289523809526
1102.19,449.0334285714289
1104.46,413.81547619047643
1106.72,392.4153333333336
1108.98,400.6873333333336
1111.24,421.4382380952384
1113.5,459.9985714285717
1115.76,502.270047619048
1118.02,566.2497142857146
1120.28,577.7445714285717
1122.53,568.6562380952385
1124.78,505.6008571428574
1127.03,438.5755714285717
1129.28,369.29166666666686
1131.53,289.74685714285727
1133.77,222.12847619047633
1136.02,191.814761904762
1138.26,170.75509523809535
1140.5,185.5659047619049
1142.74,212.14900000000014
1144.98,224.5974285714287
1147.22,237.7177142857144
1149.45,245.9360476190477
1151.69,250.964142857143
1153.92,236.84690476190488
1156.15,210.39138095238104
1158.38,182.50004761904773
1160.61,161.83740000000006
1162.83,132.82956666666675
1165.06,135.99826666666675
1167.28,115.7220666666667
1169.5,100.85611428571436
1171.72,87.44612380952387
1173.94,97.0140571428572
1176.16,79.98667619047623
1178.37,90.74319523809528
1180.58,73.80580952380957
1182.8,72.07758095238098
1185.01,59.50959428571432
1187.22,49.62408952380954
1189.42,36.70573142857146
1191.63,45.08666761904766
1193.84,50.19443142857146
1196.04,57.02813714285717
1198.24,51.63466095238097
1200.44,46.108542857142886
1202.64,40.87787619047621
1204.84,19.70414761904763
1207.03,23.73000476190478
1209.23,23.860161904761927
1211.42,27.523300000000035
1213.61,48.67205714285717
1215.8,62.92594761904765
1217.99,39.3331761904762
1220.18,36.65644761904763
1222.36,19.51580476190477
1224.55,21.72165238095242
1226.73,53.94204285714292
1228.91,95.74989047619052
1231.09,102.33723333333337
1233.27,103.03909047619051
1235.44,61.95251904761906
1237.62,43.69840476190481
1239.79,52.27890000000004
1241.96,83.41020000000007
1244.13,107.90423333333341
1246.3,123.6204571428572
1248.47,114.56128571428579
1250.64,116.77709523809533
1252.8,128.31790476190486
1254.96,144.61495238095247
1257.13,178.3851904761906
1259.29,206.1553809523811
1261.44,233.547142857143
1263.6,240.23028571428586
1265.76,222.49347619047631
1267.91,176.43523809523816
1270.06,151.62957142857152
1272.22,135.03252380952392
1274.37,138.26590476190486
1276.51,154.523761904762
1278.66,164.7617142857144
1280.81,168.601961904762
1282.95,149.14298571428577
1285.09,132.1502095238096
1287.23,124.57930000000009
1289.37,136.9579238095239
1291.51,153.4320333333334
1293.65,163.1477714285715
1295.78,141.48976666666672
1297.92,105.88983809523815
1300.05,76.16112857142863
1302.18,80.73582857142864
1304.31,104.4743476190477
1306.44,113.66570000000007
1308.57,124.40851428571435
1310.69,125.42061428571438
1312.82,137.3721047619049
1314.94,174.55214761904773
1317.06,220.34521904761914
1319.18,222.56404761904773
1321.3,222.9734285714287
1323.41,208.29133333333345
1325.53,216.99714285714302
1327.64,251.3318571428573
1329.75,298.203523809524
1331.87,311.8534761904764
1333.98,299.3796190476192
1336.08,280.8805714285716
1338.19,254.07333333333347
1340.3,242.7701904761906
1342.4,225.59300000000013
1344.5,201.02099047619055
1346.6,165.62795714285724
1348.7,124.60692380952385
1350.8,97.24610952380961
1352.9,103.88113333333342
1354.99,122.3239000000001
1357.09,149.1004857142858
1359.18,146.49863809523816
1361.27,114.75853333333339
1363.36,94.69187619047626
1365.45,107.58562857142866
1367.54,126.39412380952389
1369.62,167.21412380952393
1371.7,171.19023809523821
1373.79,191.18076190476202
1375.87,215.4729047619049
1377.95,241.7816190476192
1380.03,237.82223809523822
1382.1,245.73856190476204
1384.18,188.2457523809525
1386.25,161.82036190476202
1388.33,147.46297142857148
1390.4,130.6021952380953
1392.47,95.76204761904768
1394.54,80.37103809523813
1396.6,41.809961904761934
1398.67,42.697561904761955
1400.74,55.461852380952436
1402.8,83.05450000000005
1404.86,83.23661904761909
1406.92,64.43576190476193
1408.98,61.12699047619053
1411.04,72.21379523809529
1413.09,84.45667142857148
1415.15,107.330280952381
1417.2,110.30909047619052
1419.25,70.77224761904766
1421.3,82.05127142857148
1423.35,82.04882380952385
1425.4,72.38178095238099
1427.45,65.28604761904765
1429.49,72.2354904761905
1431.54,57.32284571428576
1433.58,53.97427428571431
1435.62,49.234681904761935
1437.66,38.33948285714288
1439.7,32.095486666666716
1441.74,70.4999171428572
1443.77,89.21645523809528
1445.81,92.33724761904767
1447.84,99.71655238095242
1449.87,87.77990000000004
1451.9,65.38136190476196
1453.93,84.803280952381
1455.96,68.3283190476191
1457.98,77.6672714285715
1460.01,104.00751904761913
1462.03,112.44107619047628
1464.05,147.6312142857144
1466.07,199.09809523809534
1468.09,241.41009523809544
1470.11,285.3728571428573
1472.13,311.12604761904777
1474.14,289.80923809523824
1476.16,283.65714285714296
1478.17,239.2376666666668
1480.18,229.1188571428573
1482.19,201.05890476190487
1484.2,176.05450476190484
1486.21,139.81674761904767
1488.21,109.72334761904769
1490.22,70.05657619047624
1492.22,51.14636190476193
1494.22,35.846614285714324
1496.22,45.1063047619048
1498.22,57.6367047619048
1500.22,67.67272952380956
1502.22,57.35411761904764
1504.21,39.86830666666669
1506.21,34.25992047619051
1508.2,41.57361142857147
1510.19,53.04464809523812
1512.18,40.860686190476194
1514.17,36.59046571428574
1516.16,40.945619523809555
1518.14,46.114075238095275
1520.13,47.23626142857145
1522.11,51.0241542857143
1524.09,35.18983809523812
1526.07,45.588366666666694
1528.05,34.26536190476192
1530.03,23.790385714285733
1532.01,28.73314285714289
1533.98,41.90158571428575
1535.96,51.43717619047622
1537.93,63.05283333333335
1539.9,60.74758571428576
1541.87,73.80600000000007
1543.84,109.41767142857151
1545.81,128.86746666666676
1547.78,143.8214095238096
1549.74,142.6122095238096
1551.7,109.19202857142862
1553.67,94.60820000000007
1555.63,102.33691428571437
1557.59,121.75888571428581
1559.55,161.73120952380964
1561.5,190.39705714285722
1563.46,191.6614285714287
1565.41,186.28657142857153
1567.37,167.4158095238096
1569.32,145.00208571428576
1571.27,119.99818095238103
1573.22,102.7861238095239
1575.17,98.31886666666674
1577.11,114.97831428571438
1579.06,140.5272761904763
1581.0,161.58609523809534
1582.95,151.48912857142864
1584.89,142.38063809523817
1586.83,122.92810952380961
1588.77,128.32373333333342
1590.7,150.85412857142867
1592.64,169.13986666666676
1594.58,172.15880714285726
1596.51,170.10315714285736
1598.44,165.6412666666671
