Raman Shift,Processed Intensity
331.095,24.982078095238137
333.909,13.527520952380975
336.721,-1.6020461904761945
339.531,-10.784056666666658
342.339,12.389460952380984
345.145,46.32686142857145
347.949,32.36634952380952
350.751,13.323204761904737
353.55,-25.462347619047648
356.348,-58.45853238095239
359.144,-49.98948
361.937,-22.616198095238097
364.729,-1.8984723809523452
367.518,44.41491619047626
370.306,115.10008666666678
373.091,215.22011047619065
375.874,304.98223809523824
378.656,335.4522571428573
381.435,300.4589613333334
384.212,195.59455800000006
386.988,95.97606361904766
389.761,25.340763904761914
392.532,-14.572645904761899
395.301,-15.119383904761891
398.068,-5.367749619047616
400.833,1.9009876190476418
403.596,30.382986190476206
406.358,38.347081904761914
409.117,16.396720476190474
411.874,12.184139999999996
414.629,-13.5896161904762
417.382,-5.698499047619025
420.133,-0.20102523809522121
422.882,29.178613333333377
425.629,59.57452904761911
428.374,114.93165142857151
431.117,169.2432185714287
433.858,228.1226638095239
436.597,220.0412857142858
439.334,200.89960000000005
442.069,146.5991952380953
444.802,114.5664380952382
447.533,121.37113809523822
450.262,176.01272380952398
452.989,240.15738571428585
455.714,282.09114285714304
458.438,251.9104523809525
461.159,181.4740428571429
463.878,111.92713809523815
466.595,73.65345238095244
469.31,69.370180952381
472.024,70.17619523809527
474.735,91.21856666666673
477.444,98.64461809523817
480.152,88.84024428571432
482.857,71.90582190476194
485.561,60.70405095238099
488.262,55.145393333333395
490.962,89.09320142857152
493.659,125.1729990476191
496.355,122.62930476190483
499.048,127.3735714285715
501.74,106.98420952380957
504.43,81.42064761904767
507.118,94.07098095238103
509.804,111.18073333333342
512.488,145.0430761904763
515.17,194.0936000000001
517.85,197.91142857142864
520.528,194.93279047619058
523.204,165.35536190476196
525.878,102.80574761904766
528.551,71.05340952380956
531.221,53.34341904761909
533.89,52.730890476190524
536.556,67.84210000000003
539.221,74.96977238095243
541.883,50.31133904761908
544.544,61.63563523809528
547.203,53.758803809523826
549.86,57.972878095238144
552.515,75.18933428571435
555.168,103.79495809523816
557.819,113.93855714285722
560.469,123.1022952380953
563.116,118.52980000000007
565.761,117.84526666666676
568.405,157.10137142857155
571.047,173.54078095238103
573.687,208.2631142857144
576.324,196.1775238095239
578.96,178.62148571428577
581.594,138.93208095238103
584.227,129.11225714285723
586.857,113.40362380952389
589.485,118.85608095238102
592.112,118.28172857142864
594.737,115.68275714285721
597.359,112.489361904762
599.98,142.5600238095239
602.599,149.27723809523815
605.216,154.26079047619058
607.831,139.6065714285715
610.445,121.02921904761911
613.056,93.71877619047625
615.666,87.389080952381
618.274,81.23013809523817
620.88,98.05044285714293
623.484,107.89601428571437
626.086,151.5274904761906
628.686,163.99052380952392
631.284,174.901761904762
633.881,204.30638095238106
636.476,194.24923809523816
639.068,184.15585714285726
641.659,198.92804761904773
644.249,182.32425714285722
646.836,159.62597619047628
649.421,138.73391009523814
652.005,74.21535152380955
654.587,43.68505542857146
657.166,28.090878952380976
659.745,34.332888761904805
662.321,52.45358961904765
664.895,56.97176723809526
667.468,42.644119047619085
670.038,62.32259047619053
672.607,63.33503333333339
675.174,81.81859523809531
677.739,107.29190000000006
680.303,109.36818095238101
682.864,87.80377142857147
685.424,93.64062857142862
687.982,94.73026666666671
690.538,65.40020952380954
693.092,48.3119142857143
695.645,48.17390952380954
698.195,29.8855285714286
700.744,34.774623809523845
703.291,50.407528571428585
705.836,56.49321428571433
708.38,61.21726190476195
710.921,59.669952380952395
713.461,37.036933333333344
715.999,22.50394285714288
718.535,32.87613809523816
721.069,77.48210476190482
723.602,117.12718571428579
726.133,122.90233333333337
728.662,107.56540952380956
731.189,74.82673333333337
733.714,71.0162190476191
736.238,65.46326190476196
738.759,81.73579047619053
741.279,89.73521428571432
743.798,60.36305238095239
746.314,39.90202380952385
748.829,60.68272857142861
751.342,69.22603809523815
753.853,84.91033333333338
756.362,82.06660476190478
758.869,72.21639142857148
761.375,56.214872380952414
763.879,65.25060190476195
766.381,56.41704666666669
768.882,64.28402571428578
771.38,73.5642914285715
773.877,106.11387238095244
776.372,99.31264285714292
778.866,104.44516666666672
781.357,90.1774571428572
783.847,97.17554761904768
786.335,88.39099047619052
788.821,106.5855333333334
791.306,121.3300857142858
793.789,136.33862857142867
796.27,138.32575238095245
798.749,161.2918000000001
801.227,155.0939523809525
803.702,174.35161904761915
806.176,192.6365238095239
808.649,200.568142857143
811.119,188.24261904761914
813.588,191.51790476190487
816.055,184.6807142857144
818.521,184.06514285714297
820.984,197.48209523809535
823.446,204.74214285714297
825.906,182.79914285714295
828.365,140.6065714285715
830.821,138.7852857142858
833.276,128.52695238095248
835.729,148.83338095238108
838.181,159.89690476190484
840.631,152.71938095238104
843.079,137.92138095238104
845.525,146.26695238095246
847.97,128.32942857142865
850.412,117.49195238095245
852.854,129.89973333333344
855.293,125.7929952380953
857.731,115.50710952380958
860.167,96.80626190476195
862.601,76.02621904761907
865.034,48.407576190476235
867.465,68.1432666666667
869.894,74.47384761904766
872.321,65.40186190476193
874.747,56.73940000000003
877.171,56.25108571428575
879.594,84.1298476190477
882.014,101.28325238095245
884.433,126.71394285714294
886.851,146.61517619047626
889.266,146.7040952380953
891.68,135.45950000000008
894.092,138.7410476190477
896.503,119.07576190476198
898.912,113.7518095238096
901.319,128.81990476190484
903.724,125.94947619047625
906.128,126.66700000000009
908.53,143.11809523809535
910.931,156.11523809523817
913.329,148.61338095238102
915.726,149.66295238095245
918.122,126.31428571428577
920.516,130.23701904761913
922.908,132.71951904761912
925.298,130.09778095238102
927.687,103.66026666666671
930.074,91.31417142857147
932.459,61.44310952380956
934.843,75.52611428571434
937.225,69.37497619047625
939.605,98.4207333333334
941.984,97.61829523809527
944.361,91.77957619047623
946.736,70.38311428571433
949.11,68.57428095238099
951.482,57.97416190476195
953.853,68.58496190476194
956.222,63.12314761904766
958.589,64.78142380952386
960.954,89.7520095238096
963.318,114.56069047619054
965.68,124.97122380952388
968.041,131.31887619047626
970.4,127.8910852380953
972.757,96.26104357142862
975.113,71.09669190476193
977.467,29.542396904761905
979.819,-2.067174761904737
982.17,16.41225785714289
984.519,37.07709952380956
986.866,62.92832857142862
989.212,87.1099428571429
991.556,111.14677619047626
993.899,123.61090000000007
996.24,123.59834761904766
998.579,120.96674761904768
1000.92,107.57380952380957
1003.25,95.94377619047626
1005.59,105.17243333333337
1007.92,80.11699047619051
1010.25,54.01570000000005
1012.58,61.01130952380956
1014.91,64.72286190476196
1017.24,69.76904761904765
1019.56,75.05447619047624
1021.88,75.53098095238101
1024.2,113.72194761904773
1026.52,131.95988095238107
1028.84,186.76825714285727
1031.16,183.19354285714292
1033.48,171.6160000000001
1035.79,175.510761904762
1038.1,203.68628571428582
1040.41,234.37933333333353
1042.72,288.01738095238113
1045.03,259.5989047619049
1047.33,236.36085714285724
1049.64,211.8255238095239
1051.94,201.27728571428588
1054.24,218.00023809523822
1056.54,221.84976190476203
1058.84,200.25257142857154
1061.13,197.9686666666668
1063.43,197.61557142857157
1065.72,208.19142857142873
1068.01,208.17057142857155
1070.3,217.02733333333344
1072.59,220.18790476190486
1074.87,218.26928571428584
1077.16,208.222142857143
1079.44,236.94866666666684
1081.72,274.684904761905
1084.0,332.7623333333336
1086.28,423.70242857142887
1088.56,516.7886190476194
1090.84,622.2570476190481
1093.11,720.7715714285719
1095.38,756.0442857142859
1097.65,701.9782380952385
1099.92,600.9992380952383
1102.19,494.96228571428594
1104.46,435.91271428571457
1106.72,407.7050952380955
1108.98,423.90871428571455
1111.24,461.7120000000002
1113.5,481.35061904761943
1115.76,507.251047619048
1118.02,538.9345714285718
1120.28,557.3037142857146
1122.53,554.546666666667
1124.78,517.3756666666669
1127.03,460.7409523809526
1129.28,379.4976190476192
1131.53,291.59576190476207
1133.77,244.0333809523811
1136.02,224.04642857142872
1138.26,208.633142857143
1140.5,236.21976190476204
1142.74,261.0428571428573
1144.98,259.14785714285733
1147.22,269.104523809524
1149.45,275.4824285714288
1151.69,240.61361904761918
1153.92,215.11528571428585
1156.15,195.84314285714294
1158.38,198.7476666666668
1160.61,190.77982857142868
1162.83,177.3191952380953
1165.06,127.26952857142862
1167.28,92.01052380952385
1169.5,62.588576190476246
1171.72,59.00261428571433
1173.94,68.25158571428577
1176.16,81.1918952380953
1178.37,93.10830476190483
1180.58,101.76212380952386
1182.8,111.91482857142864
1185.01,116.18482380952386
1187.22,98.66678095238098
1189.42,57.074838095238114
1191.63,43.74196000000002
1193.84,24.81106380952384
1196.04,19.90136428571431
1198.24,37.5366523809524
1200.44,29.431490000000018
1202.64,40.0148390476191
1204.84,53.33482904761906
1207.03,41.96347857142858
1209.23,11.092025714285716
1211.42,17.054670952380974
1213.61,8.614352380952408
1215.8,34.8198804761905
1217.99,33.43446952380953
1220.18,32.69766952380954
1222.36,12.230121428571447
1224.55,27.128759047619077
1226.73,39.25258619047622
1228.91,58.46070380952385
1231.09,79.51707095238099
1233.27,80.85244476190478
1235.44,66.08814761904766
1237.62,49.89320952380955
1239.79,39.27012857142861
1241.96,45.45944285714291
1244.13,69.41629047619053
1246.3,79.95297619047626
1248.47,112.88177142857151
1250.64,136.20534285714294
1252.8,150.83150952380964
1254.96,166.62024761904772
1257.13,181.43204761904775
1259.29,207.88900000000015
1261.44,217.8989047619049
1263.6,219.98857142857153
1265.76,208.58976190476199
1267.91,170.94385714285724
1270.06,159.1492857142858
1272.22,154.25700000000006
1274.37,132.07990476190486
1276.51,122.81152380952389
1278.66,135.02666666666676
1280.81,157.8717142857144
1282.95,157.49247619047625
1285.09,150.98766666666674
1287.23,127.83676190476196
1289.37,121.13803809523817
1291.51,99.13280952380957
1293.65,104.39571904761908
1295.78,67.12029523809527
1297.92,54.738261904761956
1300.05,45.395652380952434
1302.18,81.00012857142863
1304.31,103.17375714285724
1306.44,128.30028571428582
1308.57,155.23978571428583
1310.69,157.61396190476196
1312.82,156.09261904761914
1314.94,177.7732380952382
1317.06,189.039761904762
1319.18,190.56128571428587
1321.3,210.8162380952382
1323.41,204.4737142857144
1325.53,198.86971428571442
1327.64,242.91119047619065
1329.75,277.6957619047621
1331.87,321.987523809524
1333.98,345.69323809523826
1336.08,351.10076190476207
1338.19,313.878523809524
1340.3,276.9331904761906
1342.4,224.74266666666676
1344.5,175.26113333333342
1346.6,130.6807095238096
1348.7,104.28870000000005
1350.8,83.18173333333338
1352.9,76.2183571428572
1354.99,84.39995238095244
1357.09,98.10885238095244
1359.18,114.58395714285719
1361.27,109.77890476190484
1363.36,105.26566666666673
1365.45,129.04528571428582
1367.54,141.68990476190484
1369.62,142.152761904762
1371.7,178.24385714285728
1373.79,209.29700000000014
1375.87,241.97895238095253
1377.95,272.5757142857144
1380.03,269.46852380952396
1382.1,235.94285714285726
1384.18,205.4750000000001
1386.25,170.20747619047629
1388.33,145.99731428571434
1390.4,117.93909047619053
1392.47,91.22292857142861
1394.54,76.5621285714286
1396.6,52.527576190476225
1398.67,61.499271428571475
1400.74,55.66675238095241
1402.8,67.02876190476195
1404.86,74.44113809523814
1406.92,80.37866190476196
1408.98,81.4112428571429
1411.04,89.20387142857146
1413.09,68.42142857142862
1415.15,83.06205238095244
1417.2,78.07597619047623
1419.25,84.79460952380958
1421.3,103.6439571428572
1423.35,129.81232857142865
1425.4,116.29720238095244
1427.45,107.71503333333337
1429.49,85.15854047619052
1431.54,67.91069047619052
1433.58,60.539750000000055
1435.62,77.8049047619048
1437.66,56.322080952380986
1439.7,50.421533333333386
1441.74,79.86216666666672
1443.77,89.25957142857148
1445.81,102.89647142857149
1447.84,127.48341428571435
1449.87,119.73145238095243
1451.9,96.11337619047625
1453.93,81.10189523809528
1455.96,60.264947619047675
1457.98,72.50411428571437
1460.01,122.9582238095239
1462.03,156.76668095238105
1464.05,190.54511428571442
1466.07,204.57547619047628
1468.09,238.52095238095256
1470.11,272.1400476190478
1472.13,304.3818095238097
1474.14,312.4806190476192
1476.16,317.05214285714305
1478.17,305.6167619047621
1480.18,303.0756190476192
1482.19,258.3780000000001
1484.2,217.42561904761914
1486.21,180.45286666666675
1488.21,134.12334285714294
1490.22,124.67216190476198
1492.22,110.62000952380956
1494.22,83.20237142857148
1496.22,76.22589523809529
1498.22,79.92570000000003
1500.22,68.68022380952387
1502.22,82.67724285714289
1504.21,69.3430523809524
1506.21,49.48485714285716
1508.2,25.67190000000002
1510.19,36.854485714285744
1512.18,25.26882380952382
1514.17,22.389261904761916
1516.16,32.69041904761907
1518.14,30.789861904761928
1520.13,33.114880952381
1522.11,67.42622380952383
1524.09,73.29433333333337
1526.07,63.19451904761908
1528.05,70.60226190476193
1530.03,63.4693285714286
1532.01,52.17622857142861
1533.98,69.62752380952386
1535.96,73.48950476190478
1537.93,63.19068095238099
1539.9,67.44527619047625
1541.87,83.63458095238101
1543.84,95.9968952380953
1545.81,103.2945190476191
1547.78,105.14666666666673
1549.74,125.31587142857151
1551.7,120.94570000000007
1553.67,142.60873809523818
1555.63,141.5437952380953
1557.59,139.60853333333344
1559.55,148.5183857142858
1561.5,168.893361904762
1563.46,169.97300000000013
1565.41,183.85390476190486
1567.37,170.82290476190488
1569.32,166.02414285714295
1571.27,145.6970952380953
1573.22,128.8432857142858
1575.17,129.46452380952388
1577.11,144.89566666666676
1579.06,167.23357142857157
1581.0,178.289761904762
1582.95,195.87513333333342
1584.89,166.75344285714291
1586.83,151.73609523809532
1588.77,122.77724285714292
1590.7,119.30744761904771
1592.64,129.56675714285723
1594.58,161.98581428571444
1596.51,167.63805000000022
1598.44,115.8588142857144
