Raman Shift,Processed Intensity
331.095,21.48131619047627
333.909,12.925596190476183
336.721,-5.2005795238095445
339.531,-23.78076761904763
342.339,-24.484505714285724
345.145,-12.957123809523809
347.949,-14.581157142857137
350.751,1.2616428571428577
353.55,12.333242857142864
356.348,14.68219047619049
359.144,20.453171428571437
361.937,3.9348238095237935
364.729,-16.726090476190464
367.518,1.0468666666667303
370.306,68.4028142857144
373.091,179.3488571428573
375.874,295.4651571428573
378.656,342.2376190476192
381.435,326.8201047619049
384.212,227.8440857142858
386.988,119.94232857142863
389.761,63.129680952380994
392.532,43.80375142857147
395.301,44.55365619047621
398.068,37.92251714285713
400.833,-9.925991428571447
403.596,-34.63622952380953
406.358,-23.51764714285714
409.117,-27.02102190476191
411.874,-2.309809047619048
414.629,-16.64112476190479
417.382,-21.22289666666666
420.133,-21.070987619047607
422.882,31.323876190476255
425.629,76.85386666666676
428.374,150.26953333333344
431.117,189.2750761904763
433.858,238.3378666666668
436.597,239.0220000000001
439.334,239.4167142857144
442.069,216.51733333333345
444.802,198.6532380952382
447.533,193.39309523809536
450.262,205.35428571428588
452.989,222.15509523809538
455.714,239.51028571428583
458.438,211.46833333333342
461.159,188.69757142857154
463.878,156.96296190476198
466.595,112.2204857142858
469.31,121.76018095238103
472.024,132.92017619047624
474.735,117.18186666666675
477.444,147.4085380952382
480.152,161.65485714285722
482.857,165.5465666666668
485.561,195.61554285714294
488.262,178.20304761904768
490.962,169.93633333333347
493.659,175.63380952380962
496.355,161.11428571428578
499.048,126.72016666666673
501.74,124.98538095238104
504.43,107.25321428571436
507.118,118.0097142857144
509.804,153.55078571428584
512.488,189.83904761904773
515.17,227.31380952380968
517.85,242.08104761904772
520.528,222.24652380952392
523.204,181.10652380952388
525.878,147.81442857142866
528.551,137.04736190476203
531.221,132.91124285714292
533.89,119.36896190476199
536.556,125.33537619047627
539.221,120.01143809523818
541.883,123.0736238095239
544.544,157.62718095238105
547.203,134.15808095238103
549.86,150.00919047619055
552.515,147.18963809523817
555.168,128.51802857142866
557.819,143.1935523809525
560.469,176.3674000000001
563.116,183.33357619047632
565.761,211.38574285714293
568.405,197.38847619047627
571.047,190.4444285714287
573.687,177.1318095238096
576.324,173.1237142857144
578.96,164.14061904761914
581.594,164.85495238095248
584.227,178.31952380952393
586.857,210.34904761904778
589.485,216.2336666666668
592.112,215.07266666666678
594.737,176.4890000000001
597.359,144.0572857142858
599.98,139.11400000000012
602.599,150.8994761904763
605.216,170.70166666666677
607.831,168.9980857142858
610.445,142.69497142857148
613.056,103.840580952381
615.666,76.48320952380959
618.274,92.62233333333342
620.88,117.73371428571438
623.484,151.0546380952382
626.086,188.91698095238107
628.686,230.55719047619064
631.284,267.68747619047633
633.881,318.9721904761907
636.476,335.17014285714305
639.068,336.8970952380954
641.659,313.53047619047635
644.249,284.9708095238097
646.836,250.92828571428586
649.421,219.30315238095247
652.005,172.09004380952388
654.587,118.23607952380955
657.166,65.45031142857145
659.745,21.67897761904764
662.321,15.392654285714318
664.895,32.82300333333336
667.468,39.77313904761906
670.038,35.80792857142859
672.607,32.68256190476192
675.174,21.10444761904764
677.739,28.542866666666693
680.303,42.657495238095265
682.864,48.91751428571431
685.424,30.220600000000005
687.982,29.98832380952383
690.538,27.213638095238117
693.092,38.41340476190479
695.645,50.0569904761905
698.195,33.185238095238084
700.744,8.45812666666668
703.291,-0.4165352380952352
705.836,11.269169809523834
708.38,24.366181952380963
710.921,31.392330095238094
713.461,5.437026142857143
715.999,0.25647961904762884
718.535,3.8928705238095667
721.069,60.293442666666735
723.602,96.73861904761912
726.133,132.65210000000005
728.662,103.64822380952383
731.189,68.91294761904766
733.714,54.822900000000054
736.238,77.46942380952387
738.759,84.0387952380953
741.279,106.62252380952386
743.798,92.07422380952387
746.314,95.58086190476197
748.829,98.61546666666672
751.342,117.27030000000008
753.853,102.73295238095243
756.362,97.28630476190482
758.869,90.68990000000005
761.375,96.94126190476196
763.879,94.94304285714293
766.381,93.59784761904764
768.882,69.57049047619051
771.38,60.09719047619051
773.877,59.41459523809528
776.372,65.23557619047625
778.866,95.84441904761911
781.357,110.24008571428578
783.847,122.89771904761912
786.335,136.57841904761912
788.821,133.8052095238096
791.306,137.05361904761915
793.789,143.7516190476191
796.27,146.89919047619057
798.749,165.01976190476202
801.227,193.97042857142873
803.702,215.37019047619063
806.176,231.40938095238107
808.649,212.5647142857144
811.119,206.6939047619049
813.588,202.4639523809525
816.055,200.39923809523822
818.521,184.88138095238105
820.984,167.48252380952394
823.446,169.29876190476202
825.906,180.61690476190486
828.365,184.05709523809534
830.821,188.6678571428572
833.276,157.4982857142858
835.729,136.26410476190483
838.181,116.87112857142861
840.631,105.13068571428579
843.079,99.37753809523818
845.525,132.61325714285724
847.97,149.88746190476198
850.412,163.15426666666673
852.854,132.74890000000005
855.293,111.57790476190482
857.731,89.92898095238101
860.167,84.80423809523815
862.601,80.92008571428576
865.034,100.4690571428572
867.465,83.54871904761909
869.894,60.589666666666716
872.321,76.9754190476191
874.747,95.66066666666674
877.171,106.74298095238102
879.594,131.27220000000005
882.014,122.72716190476197
884.433,101.4436857142858
886.851,138.90062857142868
889.266,181.19572380952394
891.68,206.2837142857144
894.092,210.78609523809536
896.503,219.61066666666682
898.912,194.47419047619059
901.319,180.66504761904773
903.724,180.56700000000012
906.128,192.4204285714287
908.53,190.75214285714299
910.931,201.51714285714294
913.329,178.57509523809534
915.726,158.92880952380963
918.122,155.53358095238104
920.516,141.10586666666674
922.908,146.93435238095248
925.298,145.3070857142858
927.687,141.2269238095239
930.074,150.41086666666675
932.459,144.05191428571436
934.843,136.72404761904772
937.225,148.09628571428578
939.605,146.5044952380953
941.984,135.28480476190484
944.361,128.01082857142862
946.736,88.92322380952386
949.11,99.07219047619054
951.482,107.03130000000007
953.853,106.8504571428572
956.222,125.91279047619055
958.589,138.64879047619053
960.954,131.72761904761916
963.318,147.96080952380962
965.68,164.06490476190487
968.041,167.23230476190486
970.4,171.79810580952386
972.757,126.95462938095244
975.113,75.65616828571433
977.467,57.57080823809528
979.819,39.55763019047622
982.17,27.427591285714314
984.519,51.991934380952415
986.866,71.96600952380959
989.212,99.82756666666677
991.556,140.33962857142865
993.899,144.78900952380963
996.24,128.3195714285715
998.579,136.74190476190486
1000.92,129.53271428571435
1003.25,142.40757142857152
1005.59,132.93859523809533
1007.92,126.26885714285723
1010.25,116.82759523809531
1012.58,117.66295238095245
1014.91,100.48921428571437
1017.24,139.1639238095239
1019.56,145.63980000000006
1021.88,133.48817619047628
1024.2,121.28063809523816
1026.52,134.35075714285725
1028.84,142.45981904761916
1031.16,204.17925238095253
1033.48,234.7468285714287
1035.79,256.78119047619066
1038.1,276.9485714285716
1040.41,289.48700000000014
1042.72,287.5862380952383
1045.03,285.43623809523825
1047.33,257.2268571428573
1049.64,236.14747619047637
1051.94,254.53085714285731
1054.24,261.3763333333335
1056.54,249.1592380952382
1058.84,226.59271428571438
1061.13,201.43800000000013
1063.43,183.3601904761906
1065.72,204.3110952380954
1068.01,206.09876190476203
1070.3,215.86533333333347
1072.59,230.1805714285716
1074.87,245.47190476190494
1077.16,278.97614285714303
1079.44,280.7397619047621
1081.72,276.4753809523811
1084.0,308.2773809523812
1086.28,360.42947619047646
1088.56,443.9779047619051
1090.84,588.0165714285718
1093.11,691.7820000000004
1095.38,740.7485238095242
1097.65,708.0578571428574
1099.92,598.945904761905
1102.19,497.2209047619051
1104.46,436.8336190476193
1106.72,416.8298571428574
1108.98,424.5888095238098
1111.24,459.06119047619075
1113.5,471.9595238095241
1115.76,552.520285714286
1118.02,603.4560000000004
1120.28,628.8599047619051
1122.53,610.5398571428574
1124.78,576.9224761904765
1127.03,491.29200000000026
1129.28,449.64638095238115
1131.53,386.3170952380955
1133.77,299.92123809523827
1136.02,235.69528571428586
1138.26,191.1134285714287
1140.5,191.4597619047621
1142.74,242.16100000000017
1144.98,278.0249047619049
1147.22,297.2400952380954
1149.45,312.56666666666683
1151.69,296.3361904761907
1153.92,283.2133333333335
1156.15,250.1965238095239
1158.38,215.04600000000008
1160.61,185.80733333333345
1162.83,175.5740000000001
1165.06,178.34464761904772
1167.28,156.49826666666672
1169.5,124.17639047619053
1171.72,128.85354285714294
1173.94,132.76598095238106
1176.16,137.1025238095239
1178.37,142.38534285714292
1180.58,124.70825714285719
1182.8,84.64123333333339
1185.01,67.18293809523813
1187.22,56.90331904761908
1189.42,43.32468095238099
1191.63,38.77890000000003
1193.84,47.502871428571446
1196.04,20.20958571428572
1198.24,17.99309523809526
1200.44,29.47132380952383
1202.64,44.30986666666669
1204.84,51.46018095238098
1207.03,41.397619047619045
1209.23,16.645300000000024
1211.42,33.10738095238099
1213.61,54.73581428571432
1215.8,52.911242857142874
1217.99,41.30016666666667
1220.18,30.997833333333364
1222.36,32.86149523809528
1224.55,50.891366666666705
1226.73,77.32599523809527
1228.91,65.73733333333337
1231.09,68.3166333333334
1233.27,79.20756666666671
1235.44,89.03003809523817
1237.62,93.49952857142864
1239.79,123.9027714285715
1241.96,113.43170476190484
1244.13,108.70702857142864
1246.3,132.49198571428582
1248.47,159.26450476190487
1250.64,179.3120142857144
1252.8,203.54103809523824
1254.96,211.57261904761918
1257.13,215.26590476190492
1259.29,267.19457142857163
1261.44,300.2656190476193
1263.6,308.6243809523811
1265.76,294.70195238095255
1267.91,288.40528571428587
1270.06,271.0223333333335
1272.22,255.55628571428585
1274.37,225.00942857142866
1276.51,181.24195238095248
1278.66,151.73266666666677
1280.81,140.198761904762
1282.95,153.73833333333346
1285.09,166.78328571428582
1287.23,181.81233333333344
1289.37,164.63809523809533
1291.51,150.83514285714296
1293.65,161.16857142857154
1295.78,165.7842857142858
1297.92,173.06657142857154
1300.05,169.97090476190482
1302.18,164.40504761904774
1304.31,155.46790476190486
1306.44,178.4480476190477
1308.57,183.9676666666668
1310.69,190.7447142857144
1312.82,187.49652380952395
1314.94,216.5597142857144
1317.06,223.9374285714287
1319.18,241.9186190476192
1321.3,254.31614285714303
1323.41,280.7997142857145
1325.53,297.7057619047621
1327.64,320.704523809524
1329.75,342.08419047619066
1331.87,371.03876190476217
1333.98,374.90466666666686
1336.08,348.73228571428587
1338.19,305.0010000000002
1340.3,261.71400000000017
1342.4,221.5404761904763
1344.5,204.76895238095247
1346.6,182.64019047619055
1348.7,147.1094761904763
1350.8,148.08404761904774
1352.9,139.9000000000001
1354.99,137.98857142857153
1357.09,136.3042380952382
1359.18,140.84942857142866
1361.27,143.0075714285715
1363.36,171.5900000000001
1365.45,163.59914285714297
1367.54,186.37033333333346
1369.62,185.76228571428584
1371.7,203.49147619047636
1373.79,234.65476190476204
1375.87,262.3010952380954
1377.95,251.956142857143
1380.03,270.14476190476205
1382.1,252.82057142857158
1384.18,243.69952380952398
1386.25,239.02037142857156
1388.33,190.26015238095246
1390.4,135.89592761904768
1392.47,82.59477761904763
1394.54,48.2619790476191
1396.6,31.13620333333336
1398.67,29.741140952380995
1400.74,47.55314428571434
1402.8,82.33398952380958
1404.86,95.22626666666673
1406.92,108.22951428571433
1408.98,94.86719523809529
1411.04,95.80486666666674
1413.09,115.18481428571437
1415.15,144.8628476190477
1417.2,140.55227619047625
1419.25,127.72794285714293
1421.3,106.96014761904767
1423.35,82.81848095238101
1425.4,74.873080952381
1427.45,67.97897142857146
1429.49,64.42032857142863
1431.54,69.147380952381
1433.58,81.87241428571433
1435.62,79.83135714285719
1437.66,90.26010476190481
1439.7,84.68014761904769
1441.74,83.5177428571429
1443.77,84.8657571428572
1445.81,91.67381904761909
1447.84,85.65363333333339
1449.87,95.46929047619052
1451.9,83.9274666666667
1453.93,79.64460476190483
1455.96,69.57027619047622
1457.98,79.7967714285715
1460.01,100.4162761904763
1462.03,150.6642666666668
1464.05,198.68031428571445
1466.07,261.9856952380954
1468.09,297.7675714285716
1470.11,348.35633333333357
1472.13,353.6058571428573
1474.14,349.3230000000002
1476.16,339.8375714285716
1478.17,330.00423809523835
1480.18,308.77223809523827
1482.19,284.90010476190486
1484.2,220.8611971428572
1486.21,135.3668685714286
1488.21,90.60458000000006
1490.22,64.6667647619048
1492.22,53.074289523809576
1494.22,53.966863809523836
1496.22,53.34188761904763
1498.22,38.625109523809556
1500.22,39.004483809523826
1502.22,23.096205238095255
1504.21,26.56440095238097
1506.21,39.83509000000004
1508.2,34.42967142857145
1510.19,32.96478761904762
1512.18,25.009586666666678
1514.17,17.895217619047642
1516.16,19.19100666666669
1518.14,26.799681428571432
1520.13,23.24315904761906
1522.11,22.99580571428574
1524.09,30.48443619047622
1526.07,51.040748571428594
1528.05,48.09171142857144
1530.03,30.302502380952394
1532.01,18.8621696952381
1533.98,-0.04013263809523331
1535.96,13.165737580952412
1537.93,19.097651780952393
1539.9,38.516358533333374
1541.87,64.46843355238099
1543.84,69.42906493333338
1545.81,80.20696666666674
1547.78,109.13451428571433
1549.74,94.2108952380953
1551.7,106.5783238095239
1553.67,118.95023809523816
1555.63,126.32606666666676
1557.59,134.70556190476196
1559.55,131.89766666666674
1561.5,120.61627619047627
1563.46,145.86106666666677
1565.41,159.1076761904763
1567.37,188.92734285714295
1569.32,185.74876190476198
1571.27,170.90495238095247
1573.22,175.96733333333344
1575.17,193.55457142857153
1577.11,179.90490476190485
1579.06,167.49485714285723
1581.0,153.8005238095239
1582.95,145.2508095238096
1584.89,149.22690476190488
1586.83,151.30009523809534
1588.77,159.6615238095239
1590.7,160.9304761904763
1592.64,153.05947619047626
1594.58,140.35866666666683
1596.51,135.68545238095277
1598.44,149.04016666666726
