Raman Shift,Processed Intensity
331.095,88.89288809523777
333.909,2.9329785714285066
336.721,-26.115678571428504
339.531,-21.295733333333324
342.339,-28.792980952380955
345.145,-2.3642638095237842
347.949,19.568031428571437
350.751,26.24905095238096
353.55,15.543859047619057
356.348,14.2232557142857
359.144,-8.607635238095217
361.937,1.3001338095238388
364.729,50.38685238095246
367.518,89.52275714285723
370.306,149.19776190476205
373.091,211.28396190476204
375.874,263.7025523809525
378.656,282.7086190476192
381.435,277.3204761904763
384.212,211.12930000000006
386.988,106.53651809523811
389.761,31.516439523809535
392.532,-30.38369238095238
395.301,-12.996770952380919
398.068,12.845864285714303
400.833,22.028448095238087
403.596,19.246023333333337
406.358,11.052122857142846
409.117,-10.33176714285711
411.874,23.602868571428587
414.629,26.88951428571428
417.382,20.18202857142859
420.133,9.563933333333328
422.882,7.691595238095273
425.629,33.22196190476198
428.374,112.38520952380966
431.117,197.4120952380954
433.858,280.34403809523826
436.597,280.6993333333334
439.334,248.18843809523818
442.069,153.2835333333334
444.802,123.22044761904772
447.533,102.61627619047627
450.262,161.61259047619063
452.989,214.68505714285726
455.714,268.73915238095253
458.438,249.44228571428582
461.159,228.36727619047625
463.878,146.75437619047625
466.595,104.93934285714292
469.31,91.92513809523818
472.024,100.95357142857151
474.735,129.45735714285723
477.444,131.86909047619054
480.152,131.71736190476196
482.857,121.5788333333334
485.561,127.22033333333341
488.262,133.26683333333344
490.962,158.15271428571438
493.659,147.93190476190483
496.355,145.61047619047628
499.048,139.3855428571429
501.74,114.35880476190484
504.43,100.4893714285715
507.118,116.92681428571439
509.804,119.63080000000008
512.488,166.27475714285728
515.17,229.96078095238107
517.85,244.60061904761918
520.528,221.24885714285722
523.204,181.4361190476191
525.878,122.35961904761913
528.551,113.31216666666676
531.221,137.96709523809534
533.89,149.75957619047625
536.556,133.88660000000004
539.221,121.25889523809532
541.883,98.83509523809529
544.544,93.81192380952388
547.203,107.24276190476199
549.86,113.46689523809533
552.515,136.63250476190487
555.168,149.50631428571438
557.819,171.52214285714297
560.469,181.3040000000001
563.116,211.47530476190488
565.761,189.3263285714287
568.405,188.4326571428572
571.047,148.17852857142867
573.687,148.56770476190485
576.324,145.88913809523822
578.96,183.62206666666674
581.594,174.34057142857154
584.227,172.57095238095246
586.857,166.9817142857144
589.485,155.0990476190477
592.112,143.87657142857154
594.737,139.55371428571436
597.359,135.32209523809533
599.98,125.4203333333334
602.599,136.03942857142866
605.216,136.6085238095239
607.831,124.0318571428572
610.445,132.3092857142858
613.056,135.24990476190484
615.666,137.51919047619057
618.274,131.5925714285715
620.88,138.1355238095239
623.484,143.1939047619049
626.086,189.8137142857144
628.686,222.32652380952396
631.284,249.4919047619049
633.881,239.49828571428583
636.476,237.2956190476192
639.068,216.26200000000014
641.659,192.82309523809533
644.249,161.02423809523816
646.836,133.29079047619055
649.421,76.28645238095241
652.005,44.48426190476192
654.587,26.880919047619066
657.166,19.759047619047642
659.745,9.972909523809541
662.321,38.2808666666667
664.895,30.680009523809556
667.468,62.26217619047626
670.038,77.78642857142862
672.607,98.15420000000006
675.174,87.60061904761909
677.739,94.59864761904765
680.303,66.1453190476191
682.864,79.28489523809529
685.424,72.87164285714292
687.982,87.85460285714292
690.538,80.75469333333338
693.092,64.56882476190478
695.645,30.48438761904764
698.195,30.59358190476194
700.744,53.036223809523854
703.291,68.42834523809525
705.836,46.05268
708.38,31.953886190476204
710.921,20.65284190476193
713.461,29.289542380952426
715.999,48.28977809523813
718.535,70.2696047619048
721.069,65.22645238095242
723.602,80.15759047619053
726.133,94.10804761904767
728.662,89.55138666666669
731.189,46.05650095238097
733.714,48.23965904761908
736.238,32.81293238095242
738.759,49.25003047619054
741.279,80.16768190476193
743.798,68.51596761904763
746.314,64.19731428571434
748.829,87.20956190476196
751.342,82.645880952381
753.853,89.21844761904767
756.362,87.83002380952384
758.869,55.52625238095243
761.375,66.9241571428572
763.879,74.1648428571429
766.381,78.4845571428572
768.882,74.73868095238099
771.38,88.78286190476197
773.877,96.80574285714292
776.372,93.18669047619052
778.866,70.01944761904765
781.357,61.6358666666667
783.847,51.89172380952387
786.335,62.16681428571433
788.821,87.12627619047626
791.306,94.00703333333338
793.789,96.1890095238096
796.27,107.00432857142866
798.749,130.40417142857152
801.227,142.5306761904763
803.702,178.90629523809537
806.176,202.86380952380966
808.649,213.78333333333345
811.119,202.04514285714293
813.588,181.64838095238105
816.055,156.925761904762
818.521,150.11480952380964
820.984,147.73885714285723
823.446,156.55938095238105
825.906,155.86176190476198
828.365,140.3122857142858
830.821,120.91047619047625
833.276,108.2753333333334
835.729,121.02566666666675
838.181,126.63764285714291
840.631,130.49219047619056
843.079,125.63699047619053
845.525,105.50070952380958
847.97,83.32149047619052
850.412,80.24257142857148
852.854,77.6928571428572
855.293,83.19639047619054
857.731,94.61080476190483
860.167,104.79357142857148
862.601,93.07854761904765
865.034,73.56159047619053
867.465,80.57675714285719
869.894,60.029528571428614
872.321,73.44457619047625
874.747,82.48944761904764
877.171,64.68890952380956
879.594,67.23432857142863
882.014,91.88856666666673
884.433,117.65297142857153
886.851,150.14748095238102
889.266,154.32599047619053
891.68,143.3802857142858
894.092,144.31142857142868
896.503,155.5019523809525
898.912,186.81071428571443
901.319,193.09623809523822
903.724,193.26514285714296
906.128,193.89061904761914
908.53,182.59323809523815
910.931,164.136780952381
913.329,125.28513809523815
915.726,104.27827619047625
918.122,96.59452857142864
920.516,116.33137142857152
922.908,118.15749523809527
925.298,132.50379047619055
927.687,110.13439047619053
930.074,94.7660428571429
932.459,93.11542857142862
934.843,83.28048095238098
937.225,62.073147619047674
939.605,106.02004285714293
941.984,110.88577619047624
944.361,108.53032857142863
946.736,76.00417619047619
949.11,48.54828095238099
951.482,29.546704761904806
953.853,62.097576190476246
956.222,78.48999523809529
958.589,107.39384761904768
960.954,87.8124190476191
963.318,84.17747142857147
965.68,79.20686190476195
968.041,80.0465190476191
970.4,74.08096190476195
972.757,75.40879142857145
975.113,52.27153000000001
977.467,10.291647619047627
979.819,16.32969761904765
982.17,33.19856095238099
984.519,48.28250904761909
986.866,57.25150380952383
989.212,69.82309809523814
991.556,73.90508571428579
993.899,98.78634285714291
996.24,107.27943809523815
998.579,110.72060476190481
1000.92,86.77932380952387
1003.25,86.26777142857148
1005.59,81.85505238095242
1007.92,64.25794761904764
1010.25,44.145342857142886
1012.58,45.23365238095241
1014.91,26.90569523809527
1017.24,43.92509523809528
1019.56,58.531547619047664
1021.88,73.01187619047626
1024.2,97.08182380952387
1026.52,109.36132380952387
1028.84,118.94605714285723
1031.16,142.97986666666677
1033.48,154.98661904761914
1035.79,177.39528571428582
1038.1,184.444142857143
1040.41,190.46614285714298
1042.72,206.03252380952392
1045.03,199.14285714285725
1047.33,192.51071428571439
1049.64,178.61185714285722
1051.94,159.6835238095239
1054.24,162.34338095238107
1056.54,173.3050000000001
1058.84,166.4714761904763
1061.13,167.98471428571438
1063.43,134.08095238095245
1065.72,139.85409523809534
1068.01,142.54009523809532
1070.3,165.6614285714287
1072.59,170.1682857142858
1074.87,192.05900000000014
1077.16,183.52152380952396
1079.44,216.03004761904774
1081.72,207.8204285714287
1084.0,238.3190476190478
1086.28,303.8088095238098
1088.56,436.24000000000035
1090.84,568.3240000000003
1093.11,700.5823333333337
1095.38,709.7268095238098
1097.65,662.1353333333336
1099.92,571.1863333333336
1102.19,478.21033333333355
1104.46,423.2520952380955
1106.72,402.7851428571431
1108.98,379.99728571428597
1111.24,400.12342857142886
1113.5,428.44666666666694
1115.76,481.39247619047654
1118.02,551.720047619048
1120.28,565.569285714286
1122.53,530.3658095238098
1124.78,493.01185714285737
1127.03,421.8376190476192
1129.28,358.9355714285716
1131.53,300.4460952380954
1133.77,249.1283809523811
1136.02,221.12195238095254
1138.26,215.61528571428582
1140.5,188.98614285714294
1142.74,179.2797142857144
1144.98,166.3510000000001
1147.22,198.14971428571445
1149.45,234.86352380952394
1151.69,259.7764285714287
1153.92,233.98100000000014
1156.15,208.3800380952382
1158.38,158.4953000000001
1160.61,140.56279047619054
1162.83,105.05664285714292
1165.06,96.9277047619048
1167.28,53.55492857142859
1169.5,41.365428571428595
1171.72,39.97673333333338
1173.94,60.19714285714291
1176.16,67.26334761904766
1178.37,89.79331428571432
1180.58,64.738380952381
1182.8,61.907176190476235
1185.01,66.58459047619051
1187.22,59.57946666666669
1189.42,40.55786666666669
1191.63,46.56686761904764
1193.84,28.70125095238097
1196.04,27.72256857142859
1198.24,23.44004428571429
1200.44,22.901130476190495
1202.64,26.819988095238127
1204.84,37.95848571428572
1207.03,33.50713200000001
1209.23,26.894659619047616
1211.42,-3.6882512380952375
1213.61,4.282532761904784
1215.8,21.616930666666683
1217.99,34.02975390476194
1220.18,51.8073005714286
1222.36,53.33130000000001
1224.55,49.650185714285755
1226.73,50.622061904761935
1228.91,56.48591428571432
1231.09,81.10028095238101
1233.27,96.70437619047625
1235.44,109.4898714285715
1237.62,128.74397619047625
1239.79,100.70630952380957
1241.96,79.2830190476191
1244.13,75.85710952380958
1246.3,94.71591904761914
1248.47,132.00363333333343
1250.64,164.62711904761915
1252.8,177.3504285714287
1254.96,172.2705238095239
1257.13,171.9611904761906
1259.29,192.75780952380967
1261.44,190.37657142857154
1263.6,191.81985714285724
1265.76,187.47128571428578
1267.91,150.9518095238096
1270.06,147.74019047619058
1272.22,145.55314285714292
1274.37,140.77404761904774
1276.51,148.54823809523816
1278.66,157.83066666666676
1280.81,150.48057142857152
1282.95,145.64376190476196
1285.09,136.70409523809533
1287.23,144.5210000000001
1289.37,156.8592380952382
1291.51,156.48335714285724
1293.65,164.4434857142858
1295.78,137.59974761904766
1297.92,110.38347142857148
1300.05,81.7969666666667
1302.18,85.46232857142863
1304.31,81.38215238095245
1306.44,94.98774761904768
1308.57,119.37690476190484
1310.69,130.64795238095246
1312.82,155.46995238095252
1314.94,203.75052380952394
1317.06,235.5873809523811
1319.18,223.9358571428573
1321.3,220.32209523809536
1323.41,203.70142857142872
1325.53,242.02838095238116
1327.64,302.3057142857145
1329.75,356.4404761904764
1331.87,369.1496666666668
1333.98,365.7690476190478
1336.08,344.20557142857155
1338.19,322.7472857142859
1340.3,300.82557142857155
1342.4,264.7753809523811
1344.5,229.36109523809534
1346.6,205.34680952380964
1348.7,184.87719047619058
1350.8,176.71647619047627
1352.9,155.91440476190485
1354.99,138.42466666666678
1357.09,138.58278571428582
1359.18,156.53319047619058
1361.27,174.8966904761906
1363.36,208.29414285714296
1365.45,217.05995238095252
1367.54,216.9099523809525
1369.62,210.178761904762
1371.7,208.10595238095252
1373.79,225.54966666666684
1375.87,252.74928571428586
1377.95,284.1340952380954
1380.03,292.46700000000016
1382.1,279.6531904761906
1384.18,232.59861904761917
1386.25,200.2555714285715
1388.33,168.8153714285715
1390.4,142.42118095238104
1392.47,127.93030476190485
1394.54,107.62838095238101
1396.6,97.46815238095246
1398.67,97.02026190476198
1400.74,113.04664761904768
1402.8,93.2610428571429
1404.86,79.9010285714286
1406.92,61.299242857142914
1408.98,95.78805714285723
1411.04,104.50939047619056
1413.09,124.12890476190483
1415.15,109.74039047619053
1417.2,106.29492380952388
1419.25,108.31491428571437
1421.3,133.41743809523817
1423.35,126.5060476190477
1425.4,119.00719047619053
1427.45,112.20442857142864
1429.49,118.00042857142864
1431.54,115.01228571428577
1433.58,100.33288095238099
1435.62,96.53180000000006
1437.66,84.89194761904767
1439.7,83.64886666666672
1441.74,90.79999047619053
1443.77,79.05711428571432
1445.81,75.17965238095243
1447.84,80.926780952381
1449.87,93.10522380952388
1451.9,109.42621904761911
1453.93,114.4109428571429
1455.96,95.29460000000007
1457.98,105.50313333333341
1460.01,120.70000952380963
1462.03,152.54940952380966
1464.05,206.1905523809525
1466.07,241.19252380952395
1468.09,260.5043809523811
1470.11,300.12347619047637
1472.13,321.3801904761907
1474.14,312.3667619047621
1476.16,304.74671428571446
1478.17,279.94609523809544
1480.18,267.390523809524
1482.19,260.0773809523811
1484.2,231.28985714285724
1486.21,169.9771285714286
1488.21,102.42234285714291
1490.22,67.57530952380958
1492.22,72.33831619047623
1494.22,61.85157333333337
1496.22,63.30342761904765
1498.22,62.35799809523813
1500.22,49.63215619047624
1502.22,54.07626857142861
1504.21,90.54518285714289
1506.21,68.89418571428574
1508.2,54.1690428571429
1510.19,55.08223809523812
1512.18,32.822609523809554
1514.17,43.62670476190482
1516.16,82.20720571428575
1518.14,71.37237000000003
1520.13,52.073316190476206
1522.11,39.118377619047635
1524.09,22.9826447619048
1526.07,45.37940333333337
1528.05,51.73622952380955
1530.03,66.19526190476195
1532.01,64.27939523809526
1533.98,62.654547619047655
1535.96,60.653409523809565
1537.93,69.41831428571433
1539.9,70.85347142857148
1541.87,84.33952857142862
1543.84,81.78072380952385
1545.81,80.03379523809528
1547.78,81.00354285714292
1549.74,99.35619523809531
1551.7,110.71080952380957
1553.67,114.78143809523817
1555.63,104.94920952380959
1557.59,119.21405714285723
1559.55,145.81455238095248
1561.5,175.65502857142866
1563.46,185.83109523809534
1565.41,189.15257142857152
1567.37,177.66736190476198
1569.32,153.47112380952387
1571.27,143.89772380952388
1573.22,148.8519238095239
1575.17,145.1916857142858
1577.11,134.82244285714293
1579.06,144.03009523809533
1581.0,123.81568095238102
1582.95,107.65575714285721
1584.89,129.50326190476198
1586.83,125.16869047619053
1588.77,120.93826666666675
1590.7,131.09860476190482
1592.64,119.60307619047626
1594.58,100.85711190476198
1596.51,107.3139904761909
1598.44,161.6412285714294
