Raman Shift,Processed Intensity
331.095,-2.8648839761903293
333.909,34.21709280952396
336.721,36.49652180952393
339.531,19.09586419047619
342.339,-3.6007313809523804
345.145,-3.8754881904761778
347.949,4.323489000000011
350.751,24.524999238095262
353.55,40.73472571428573
356.348,18.24489047619046
359.144,-8.794296666666675
361.937,-25.27932095238095
364.729,-12.15339380952376
367.518,65.64152285714296
370.306,144.92614761904775
373.091,243.99863809523828
375.874,313.20593333333346
378.656,316.32468571428586
381.435,273.08463904761913
384.212,190.12191761904768
386.988,76.93069714285718
389.761,19.05421095238095
392.532,-28.24868380952381
395.301,-24.241668095238083
398.068,-7.615941904761903
400.833,1.3198047619047641
403.596,-1.694207142857157
406.358,-5.440199999999992
409.117,7.729501428571464
411.874,42.03536333333335
414.629,26.98490523809523
417.382,13.94404619047619
420.133,-9.577144761904758
422.882,-5.353117619047577
425.629,55.033408571428666
428.374,160.19143809523823
431.117,216.6833761904763
433.858,238.07300952380962
436.597,218.02023809523817
439.334,180.99519047619057
442.069,156.32638095238107
444.802,163.10504761904772
447.533,169.4710476190477
450.262,168.4696666666668
452.989,189.00438095238107
455.714,229.45512380952394
458.438,221.67929047619057
461.159,184.58232380952387
463.878,144.07044761904768
466.595,82.66908571428576
469.31,63.38094285714293
472.024,83.16116190476195
474.735,96.48985238095246
477.444,116.13252380952387
480.152,119.47487619047625
482.857,120.1882857142858
485.561,140.8492857142858
488.262,153.98742857142867
490.962,154.2278571428572
493.659,146.57633333333342
496.355,126.65862857142865
499.048,117.90970000000007
501.74,122.86001904761912
504.43,111.80263333333339
507.118,138.6018761904763
509.804,146.69389047619057
512.488,185.60972380952393
515.17,216.64261904761918
517.85,221.60915238095248
520.528,182.56470000000007
523.204,155.85013809523812
525.878,112.0448333333334
528.551,97.63226666666675
531.221,102.81029047619056
533.89,123.11016190476198
536.556,124.96781428571435
539.221,107.34277619047624
541.883,100.71854285714292
544.544,86.5303333333334
547.203,111.45169523809534
549.86,139.63251428571436
552.515,144.31688095238104
555.168,136.7972095238096
557.819,144.65086666666676
560.469,161.45479047619057
563.116,183.21512380952393
565.761,188.55609523809537
568.405,200.38754285714296
571.047,161.8574714285715
573.687,165.49413333333342
576.324,190.06356666666676
578.96,168.33202857142868
581.594,166.58907142857151
584.227,168.50488571428576
586.857,132.32050476190489
589.485,129.84870476190486
592.112,151.47260952380958
594.737,151.28995238095246
597.359,148.92190476190484
599.98,147.89400000000012
602.599,159.0170857142858
605.216,144.76874761904767
607.831,119.43526190476196
610.445,101.68378571428576
613.056,81.75250952380958
615.666,87.64186190476198
618.274,107.92265238095246
620.88,115.83259047619055
623.484,131.6087142857144
626.086,165.630761904762
628.686,206.80218095238106
631.284,198.45475238095247
633.881,176.34845714285723
636.476,146.2907714285715
639.068,136.61250476190486
641.659,140.93049523809532
644.249,149.05148571428575
646.836,123.73430285714291
649.421,85.78561952380956
652.005,52.96393904761908
654.587,29.789756666666687
657.166,42.16443428571433
659.745,31.17951952380955
662.321,54.64074571428576
664.895,46.97301428571431
667.468,46.934380952380984
670.038,53.7114571428572
672.607,84.82415238095241
675.174,62.93515238095242
677.739,51.040380952380964
680.303,29.85020476190478
682.864,16.170123809523833
685.424,40.234219047619085
687.982,45.08615238095239
690.538,35.198109523809535
693.092,25.56612857142858
695.645,27.186275238095256
698.195,12.911801428571446
700.744,27.548383809523827
703.291,29.18746523809527
705.836,50.825306666666705
708.38,56.02957904761907
710.921,65.2728304761905
713.461,58.6942604761905
715.999,52.71884095238099
718.535,47.24774428571432
721.069,61.32511333333336
723.602,47.85220000000003
726.133,58.87317619047624
728.662,63.051323809523836
731.189,47.85946190476192
733.714,36.532376190476214
736.238,41.114428571428604
738.759,47.88812380952386
741.279,80.13602380952386
743.798,84.04553809523811
746.314,77.99457619047624
748.829,81.93255238095242
751.342,65.28515238095241
753.853,67.43050476190481
756.362,72.318280952381
758.869,86.23146190476197
761.375,101.92946666666671
763.879,103.2669571428572
766.381,80.24154761904765
768.882,67.23188095238098
771.38,57.569090476190524
773.877,52.06054761904764
776.372,48.27577142857146
778.866,29.308161904761924
781.357,46.965280952381
783.847,56.29328571428576
786.335,72.19543333333337
788.821,81.57494285714291
791.306,88.28783809523814
793.789,83.85663809523817
796.27,95.1372952380953
798.749,129.31959047619057
801.227,137.21210952380963
803.702,155.71880000000007
806.176,177.12485714285725
808.649,173.19142857142867
811.119,156.53719047619057
813.588,159.92395238095247
816.055,139.92276190476198
818.521,129.48595238095245
820.984,138.7087142857144
823.446,151.16242857142868
825.906,157.56163809523818
828.365,140.76404285714293
830.821,121.57941904761911
833.276,109.91300476190483
835.729,123.24147619047628
838.181,130.1369190476191
840.631,127.21914285714291
843.079,98.25098571428575
845.525,67.28115238095243
847.97,71.69144285714293
850.412,94.5781190476191
852.854,86.08534761904767
855.293,84.21436190476194
857.731,70.01420952380957
860.167,73.29601904761911
862.601,85.1564285714286
865.034,75.02567619047622
867.465,63.00070952380956
869.894,74.03569047619052
872.321,64.70391904761908
874.747,58.34062380952384
877.171,55.04311428571432
879.594,51.05157619047624
882.014,58.130066666666735
884.433,98.5189952380953
886.851,101.41111428571435
889.266,116.61832857142865
891.68,133.8571476190477
894.092,150.89211428571437
896.503,151.53514285714297
898.912,156.6938571428572
901.319,148.5610476190477
903.724,159.94914285714296
906.128,167.76542857142869
908.53,177.4889523809525
910.931,179.93178095238105
913.329,161.14444761904772
915.726,137.41503809523817
918.122,131.79435238095246
920.516,122.3803333333334
922.908,108.55670000000005
925.298,98.27862857142861
927.687,91.64400476190482
930.074,79.13184285714291
932.459,86.69738095238101
934.843,91.53381428571433
937.225,87.59615714285721
939.605,98.02988095238103
941.984,130.0282238095239
944.361,125.1176333333334
946.736,101.30066666666669
949.11,93.67502380952385
951.482,76.81460952380958
953.853,73.10278571428579
956.222,84.3040428571429
958.589,83.99198571428576
960.954,68.54978095238101
963.318,87.78922380952388
965.68,110.95028571428577
968.041,112.7970571428572
970.4,109.61719523809528
972.757,100.79351904761909
975.113,69.70873523809527
977.467,35.88849238095241
979.819,33.71496095238098
982.17,29.76123619047622
984.519,45.83820380952385
986.866,59.75658285714289
989.212,70.4701447619048
991.556,86.40827619047627
993.899,112.7622714285715
996.24,110.00935238095245
998.579,116.91226666666672
1000.92,108.18584761904768
1003.25,101.30718857142863
1005.59,84.03839571428574
1007.92,66.90360571428573
1010.25,37.331885238095275
1012.58,49.08537714285721
1014.91,78.83081476190483
1017.24,116.56851714285719
1019.56,110.82212380952386
1021.88,102.44882857142863
1024.2,114.68657142857153
1026.52,129.58285714285722
1028.84,166.1849523809525
1031.16,197.15919047619056
1033.48,188.17176190476198
1035.79,182.50814285714299
1038.1,192.12014285714298
1040.41,207.9120952380954
1042.72,269.8834285714288
1045.03,283.6520952380954
1047.33,275.2173809523811
1049.64,249.19790476190485
1051.94,194.30666666666679
1054.24,171.20990476190488
1056.54,180.47809523809534
1058.84,165.34776190476202
1061.13,171.48466666666678
1063.43,151.60242857142865
1065.72,161.2709523809525
1068.01,176.63209523809533
1070.3,206.92271428571442
1072.59,227.522142857143
1074.87,228.57228571428584
1077.16,212.2146190476192
1079.44,247.25723809523828
1081.72,255.50804761904783
1084.0,287.8231904761907
1086.28,328.4389523809526
1088.56,433.54461904761945
1090.84,577.8524761904766
1093.11,711.170666666667
1095.38,734.9261904761909
1097.65,669.6411428571432
1099.92,535.5042857142861
1102.19,463.18071428571466
1104.46,449.0971904761908
1106.72,442.53804761904786
1108.98,444.9301904761908
1111.24,464.27147619047645
1113.5,468.1793333333336
1115.76,506.2710000000003
1118.02,554.1638571428575
1120.28,550.3323809523813
1122.53,528.7270000000003
1124.78,487.20300000000026
1127.03,414.2821428571431
1129.28,365.1534285714288
1131.53,309.05300000000017
1133.77,253.50290476190492
1136.02,210.31109523809533
1138.26,198.52309523809538
1140.5,192.27980952380966
1142.74,203.29404761904772
1144.98,215.4209047619049
1147.22,223.0870952380954
1149.45,234.38642857142875
1151.69,242.93547619047635
1153.92,241.54228571428587
1156.15,232.2051333333335
1158.38,205.35103333333342
1160.61,163.40671428571437
1162.83,127.9421190476191
1165.06,105.33596190476197
1167.28,96.15830000000007
1169.5,102.3597571428572
1171.72,69.51025238095241
1173.94,63.179404761904806
1176.16,54.65159047619051
1178.37,60.924995238095285
1180.58,67.56972380952385
1182.8,68.77471904761907
1185.01,63.109923809523856
1187.22,66.62138095238097
1189.42,53.11740000000002
1191.63,39.54905714285716
1193.84,26.24842380952382
1196.04,20.642928571428605
1198.24,44.01716190476193
1200.44,58.08440476190479
1202.64,44.79612380952381
1204.84,25.961076190476195
1207.03,9.864276190476208
1209.23,11.505214285714322
1211.42,46.16918666666672
1213.61,68.28455809523811
1215.8,54.13698142857144
1217.99,24.536073809523813
1220.18,5.196353809523817
1222.36,6.546797619047654
1224.55,29.873624285714307
1226.73,42.46324619047621
1228.91,46.554543809523835
1231.09,47.43421428571431
1233.27,32.770016666666685
1235.44,45.42033714285717
1237.62,34.86270619047621
1239.79,29.00340285714288
1241.96,40.034479523809566
1244.13,65.00530285714291
1246.3,67.96531809523816
1248.47,107.2022371428572
1250.64,110.90843809523817
1252.8,120.94331428571437
1254.96,133.49975238095246
1257.13,152.57999047619057
1259.29,154.94866666666678
1261.44,176.6559523809525
1263.6,173.79928571428582
1265.76,179.4290000000001
1267.91,166.97671428571437
1270.06,179.77857142857152
1272.22,174.93297142857153
1274.37,155.91885238095247
1276.51,135.691561904762
1278.66,135.25414761904773
1280.81,139.18137142857154
1282.95,163.42864285714296
1285.09,158.18983333333338
1287.23,125.0395333333334
1289.37,124.45759714285722
1291.51,102.35194952380958
1293.65,85.8687847619048
1295.78,72.67794571428574
1297.92,52.2115847619048
1300.05,46.663587619047675
1302.18,83.5136828571429
1304.31,87.47944761904768
1306.44,81.70728571428575
1308.57,88.01001904761912
1310.69,101.86733809523818
1312.82,133.4256476190477
1314.94,184.97405714285728
1317.06,200.94421904761916
1319.18,200.4825238095239
1321.3,199.44938095238106
1323.41,202.8480952380954
1325.53,224.8726190476192
1327.64,263.9544761904763
1329.75,288.1444761904764
1331.87,310.44585714285734
1333.98,326.95704761904784
1336.08,311.01409523809536
1338.19,266.71533333333343
1340.3,213.6824285714287
1342.4,183.91847619047627
1344.5,153.5216190476191
1346.6,154.58971428571436
1348.7,132.60126190476197
1350.8,107.60652380952386
1352.9,94.3220714285715
1354.99,126.94066666666676
1357.09,127.7028333333334
1359.18,135.22963809523816
1361.27,108.99918571428577
1363.36,111.96580000000009
1365.45,112.56000476190485
1367.54,133.83080000000007
1369.62,144.39870952380963
1371.7,175.93201904761912
1373.79,178.71752380952398
1375.87,235.85171428571442
1377.95,270.0024761904763
1380.03,267.59914285714297
1382.1,234.0707142857144
1384.18,184.75114285714295
1386.25,139.4980761904763
1388.33,106.50215238095244
1390.4,93.23960476190481
1392.47,83.56764761904765
1394.54,64.96188571428574
1396.6,46.85047142857146
1398.67,48.32830000000001
1400.74,32.441976190476225
1402.8,48.571580952381
1404.86,71.23973333333338
1406.92,71.68327619047622
1408.98,84.8529571428572
1411.04,79.89027619047623
1413.09,57.03157619047622
1415.15,57.846509523809566
1417.2,63.19010476190479
1419.25,53.869795238095286
1421.3,70.88310952380957
1423.35,73.46595714285716
1425.4,58.18720000000003
1427.45,43.996604761904784
1429.49,41.84380761904764
1431.54,24.91648380952382
1433.58,26.925958095238123
1435.62,32.488254285714305
1437.66,48.45738666666671
1439.7,53.87773142857147
1441.74,67.79366000000005
1443.77,75.6780190476191
1445.81,101.5750571428572
1447.84,83.19564285714289
1449.87,72.7744285714286
1451.9,48.78410476190478
1453.93,24.697419047619086
1455.96,36.12993333333339
1457.98,82.93538095238102
1460.01,107.96737619047627
1462.03,145.79386190476203
1464.05,186.1258380952382
1466.07,214.86471428571446
1468.09,258.5310476190478
1470.11,278.9308571428573
1472.13,294.1084285714287
1474.14,275.8698571428573
1476.16,271.02176190476206
1478.17,247.18014285714298
1480.18,226.24676190476202
1482.19,198.26582857142867
1484.2,164.23455714285723
1486.21,114.2927571428572
1488.21,83.58065714285719
1490.22,59.66697619047624
1492.22,58.35854152380958
1494.22,67.50975152380956
1496.22,45.73731114285716
1498.22,24.18165561904762
1500.22,3.3643282857142913
1502.22,-9.764496571428568
1504.21,4.507394380952391
1506.21,10.511366190476195
1508.2,11.197957142857156
1510.19,21.47016666666668
1512.18,23.659712380952392
1514.17,23.288880000000027
1516.16,38.68959904761907
1518.14,42.14627142857145
1520.13,46.848176190476224
1522.11,58.36560666666669
1524.09,42.26902571428573
1526.07,30.652770476190494
1528.05,29.039840952380978
1530.03,31.38192761904765
1532.01,48.773621904761946
1533.98,57.83344333333335
1535.96,40.13235904761906
1537.93,22.336677619047634
1539.9,15.017525714285743
1541.87,35.126922380952436
1543.84,74.76020095238101
1545.81,96.39331428571433
1547.78,90.07387619047624
1549.74,96.13513333333339
1551.7,98.67242380952388
1553.67,114.20963809523818
1555.63,116.2711952380953
1557.59,118.19043809523816
1559.55,111.87260952380961
1561.5,132.93678095238104
1563.46,151.2408666666668
1565.41,167.73729523809533
1567.37,170.2841904761906
1569.32,156.1675476190477
1571.27,142.38806666666673
1573.22,124.94626190476197
1575.17,99.79556666666673
1577.11,101.1265857142858
1579.06,128.70265238095246
1581.0,139.5718857142858
1582.95,152.54483333333343
1584.89,155.00331428571437
1586.83,142.94804761904768
1588.77,145.99890476190484
1590.7,139.53790476190483
1592.64,138.04219047619057
1594.58,128.60833333333343
1596.51,124.09461904761928
1598.44,130.50221428571473
