Raman Shift,Processed Intensity
331.095,26.399634735713963
333.909,-2.942417600000031
336.721,12.715919514285776
339.531,49.66380522857147
342.339,62.8806190476191
345.145,91.01281238095241
347.949,66.4933361904762
350.751,37.374900952380976
353.55,15.61564952380953
356.348,-6.3013942857142915
359.144,-2.7501066666666425
361.937,18.087636190476225
364.729,43.363880952381024
367.518,99.37462857142867
370.306,159.5121809523811
373.091,237.6938380952383
375.874,346.3136000000002
378.656,380.7672380952382
381.435,353.16573333333343
384.212,257.85927142857145
386.988,127.29474761904766
389.761,32.20617142857144
392.532,-30.957247619047635
395.301,-43.36356666666666
398.068,-43.79849523809525
400.833,-13.808390476190448
403.596,28.06202380952383
406.358,37.65043809523811
409.117,25.129257142857174
411.874,62.57719523809526
414.629,35.88373809523812
417.382,33.41597142857147
420.133,54.73259523809527
422.882,68.91771904761913
425.629,95.77078571428582
428.374,203.04450952380967
431.117,271.8264666666668
433.858,313.0620000000001
436.597,324.03104761904774
439.334,286.87200000000007
442.069,208.29490476190486
444.802,185.96347619047634
447.533,190.68523809523828
450.262,219.17276190476204
452.989,260.2827619047621
455.714,293.06300000000016
458.438,261.60919047619063
461.159,211.87518095238104
463.878,153.81534285714292
466.595,78.00369047619051
469.31,46.77661904761911
472.024,57.042557142857206
474.735,90.13902857142867
477.444,148.784661904762
480.152,155.46060000000006
482.857,174.26749523809534
485.561,172.9726095238096
488.262,177.72497142857154
490.962,182.72105714285723
493.659,175.9197714285715
496.355,132.42331428571435
499.048,124.81010000000006
501.74,96.32543809523817
504.43,107.97656666666674
507.118,121.05634285714294
509.804,135.1439095238096
512.488,136.1041238095239
515.17,161.89690476190486
517.85,195.1495304761906
520.528,167.72651380952385
523.204,153.82617047619055
525.878,140.7421671428572
528.551,109.10117047619059
531.221,133.29160904761915
533.89,163.46434000000005
536.556,116.29340476190482
539.221,113.07215238095246
541.883,102.14117619047624
544.544,100.8886857142858
547.203,124.79769047619055
549.86,120.92281428571435
552.515,132.5564857142858
555.168,118.0387428571429
557.819,110.42355238095249
560.469,129.24050476190484
563.116,159.30540000000008
565.761,169.4807666666668
568.405,216.96236190476202
571.047,205.04147619047632
573.687,216.0086666666668
576.324,216.39206666666675
578.96,186.6249238095239
581.594,151.18694285714292
584.227,129.8916476190477
586.857,123.45713333333345
589.485,139.55286666666674
592.112,150.70575714285718
594.737,121.29922857142861
597.359,104.76400476190481
599.98,95.62606666666674
602.599,109.03002380952388
605.216,112.31032380952387
607.831,117.70608571428579
610.445,113.31324761904771
613.056,118.22802857142865
615.666,139.49794285714296
618.274,150.36127619047627
620.88,142.38904761904772
623.484,141.29438095238103
626.086,158.83857142857153
628.686,164.44933333333344
631.284,197.83923809523822
633.881,225.95884761904773
636.476,210.37789523809533
639.068,174.5226476190477
641.659,146.86724761904767
644.249,130.69465714285724
646.836,120.90694285714292
649.421,121.5485142857143
652.005,71.56883333333333
654.587,22.67906666666668
657.166,13.447171428571462
659.745,27.82194761904765
662.321,40.085553333333365
664.895,38.996210476190484
667.468,31.502506666666687
670.038,25.029122857142884
672.607,39.85779923809527
675.174,29.651212095238108
677.739,34.83385180952383
680.303,32.21111647619051
682.864,54.635994666666704
685.424,56.2470644761905
687.982,64.08769733333335
690.538,36.96311857142859
693.092,22.964260000000017
695.645,24.46772428571431
698.195,24.992997142857156
700.744,37.15476714285718
703.291,45.23445047619049
705.836,37.370566666666676
708.38,23.55885952380953
710.921,21.556966666666675
713.461,6.170202380952407
715.999,39.72772000000003
718.535,37.939684285714314
721.069,49.23057809523814
723.602,55.78683238095242
726.133,63.98542380952384
728.662,45.393830000000015
731.189,41.770068571428574
733.714,26.491275714285734
736.238,22.12510571428574
738.759,34.90593857142861
741.279,57.87776476190479
743.798,48.27510476190479
746.314,55.66587619047623
748.829,52.33243809523812
751.342,57.128323809523856
753.853,76.43145238095244
756.362,90.04811428571432
758.869,78.97521904761908
761.375,85.4478285714286
763.879,51.22491428571431
766.381,54.113028571428615
768.882,45.9189904761905
771.38,64.4974095238096
773.877,71.36937619047623
776.372,89.58000857142862
778.866,62.365075238095265
781.357,51.86529809523811
783.847,29.98312952380956
786.335,43.097755238095274
788.821,49.92133238095243
791.306,85.21405142857147
793.789,82.78363333333337
796.27,78.10488571428577
798.749,114.41416666666674
801.227,140.94834285714293
803.702,157.56334285714297
806.176,165.9722952380953
808.649,167.84080952380964
811.119,151.26352380952392
813.588,166.19166666666675
816.055,149.5298571428572
818.521,141.46761904761914
820.984,152.95706666666678
823.446,157.0454238095239
825.906,156.35140000000007
828.365,144.20833809523813
830.821,105.42611428571435
833.276,93.19505238095246
835.729,119.37302857142863
838.181,104.81722857142864
840.631,114.5755333333334
843.079,103.31559047619052
845.525,106.9426952380953
847.97,113.17216190476196
850.412,129.19573333333338
852.854,97.53816666666671
855.293,97.96266666666673
857.731,82.70868571428575
860.167,83.1108047619048
862.601,58.98017142857144
865.034,36.22338571428572
867.465,14.318452380952424
869.894,46.50560000000005
872.321,67.12013333333337
874.747,77.02142961904764
877.171,43.068984142857154
879.594,24.4555206666667
882.014,31.183734428571483
884.433,82.4944397142858
886.851,112.00938414285723
889.266,146.06468676190485
891.68,148.94890476190486
894.092,163.99809523809535
896.503,150.16766666666678
898.912,167.2702857142858
901.319,146.59495238095246
903.724,143.76395238095247
906.128,126.63795238095247
908.53,132.26776190476198
910.931,129.27547619047627
913.329,132.52150000000006
915.726,120.67582857142862
918.122,105.83720952380958
920.516,97.29499047619056
922.908,111.76679047619055
925.298,127.6846571428572
927.687,125.90909047619053
930.074,116.87225714285721
932.459,117.33938095238103
934.843,124.69485714285723
937.225,140.32287619047628
939.605,135.98864761904767
941.984,110.17166190476195
944.361,78.16112857142862
946.736,72.29344761904765
949.11,58.333938095238146
951.482,77.23795238095244
953.853,87.53242857142862
956.222,96.02987142857148
958.589,92.82848571428576
960.954,104.93136190476197
963.318,93.00772857142861
965.68,87.91733809523815
968.041,80.52005238095242
970.4,75.29447619047623
972.757,65.38596952380956
975.113,62.70179619047621
977.467,34.76773357142858
979.819,16.728783809523826
982.17,23.205956428571454
984.519,31.43913714285717
986.866,36.239578333333355
989.212,51.03745761904765
991.556,45.92931904761909
993.899,69.44042857142864
996.24,99.09556190476195
998.579,103.94330952380957
1000.92,93.2226047619048
1003.25,81.3628047619048
1005.59,52.26917142857147
1007.92,53.32330952380956
1010.25,61.71586190476195
1012.58,73.78054285714292
1014.91,103.42209428571434
1017.24,86.30723952380956
1019.56,66.95966952380957
1021.88,45.85549857142861
1024.2,78.75641238095247
1026.52,112.90016333333344
1028.84,154.3338133333334
1031.16,168.24726666666675
1033.48,159.78285714285724
1035.79,164.74980952380966
1038.1,196.33771428571438
1040.41,209.8316666666668
1042.72,221.08780952380965
1045.03,218.67633333333347
1047.33,204.54900000000015
1049.64,187.89542857142868
1051.94,165.2855238095239
1054.24,149.62323809523818
1056.54,154.6214761904763
1058.84,152.4694761904763
1061.13,164.26157142857153
1063.43,155.71028571428582
1065.72,182.5762380952382
1068.01,180.4294761904763
1070.3,196.41123809523822
1072.59,207.520142857143
1074.87,201.04028571428583
1077.16,194.01757142857156
1079.44,208.35533333333345
1081.72,208.24252380952396
1084.0,254.05828571428592
1086.28,349.51538095238124
1088.56,483.8499523809527
1090.84,603.2982857142861
1093.11,672.620428571429
1095.38,659.3861428571432
1097.65,600.0699523809527
1099.92,503.71761904761934
1102.19,451.2798095238098
1104.46,423.32576190476215
1106.72,381.4730476190478
1108.98,348.71933333333357
1111.24,393.39647619047645
1113.5,422.8358095238098
1115.76,477.27357142857176
1118.02,546.7078571428574
1120.28,544.9467619047622
1122.53,518.3210000000003
1124.78,484.210285714286
1127.03,419.8985714285717
1129.28,338.7644285714287
1131.53,282.711142857143
1133.77,227.40366666666677
1136.02,192.125761904762
1138.26,161.92342857142867
1140.5,173.17595238095248
1142.74,198.97685714285728
1144.98,230.1339523809525
1147.22,226.45509523809534
1149.45,219.27223809523824
1151.69,191.58347619047626
1153.92,180.29214285714298
1156.15,176.92055238095247
1158.38,159.4194714285715
1160.61,127.83521428571436
1162.83,98.6427190476191
1165.06,63.60250000000005
1167.28,68.09449047619051
1169.5,71.64089047619052
1171.72,86.0977333333334
1173.94,95.3210571428572
1176.16,86.071680952381
1178.37,66.20578095238099
1180.58,56.43687142857146
1182.8,39.33527619047622
1185.01,47.09071428571431
1187.22,46.08337619047621
1189.42,28.455447619047625
1191.63,12.634900000000012
1193.84,18.38305714285716
1196.04,17.747109523809552
1198.24,36.96476952380955
1200.44,45.55952428571429
1202.64,27.76929142857143
1204.84,4.070113809523807
1207.03,4.557144761904764
1209.23,-8.579053333333324
1211.42,14.328290476190501
1213.61,31.279406190476205
1215.8,35.08418761904764
1217.99,34.50496523809526
1220.18,38.44693904761906
1222.36,23.0535904761905
1224.55,30.46842857142859
1226.73,32.93030476190478
1228.91,31.440071428571454
1231.09,46.617714285714314
1233.27,42.607028571428586
1235.44,41.45671904761908
1237.62,47.88217142857146
1239.79,56.17029047619052
1241.96,62.03662857142862
1244.13,78.43484285714291
1246.3,88.2710333333334
1248.47,114.64219523809531
1250.64,116.54957619047626
1252.8,115.56626666666673
1254.96,118.69379047619057
1257.13,130.40970476190486
1259.29,163.0493523809525
1261.44,204.1385904761906
1263.6,203.15495238095247
1265.76,179.81466666666674
1267.91,151.83395238095247
1270.06,132.7860476190477
1272.22,128.72066666666674
1274.37,155.8303333333334
1276.51,165.73566666666673
1278.66,157.2962857142858
1280.81,160.89504761904772
1282.95,158.67709523809532
1285.09,143.54890476190485
1287.23,153.46519047619057
1289.37,159.38023809523818
1291.51,157.29680952380963
1293.65,156.6928095238096
1295.78,145.66580000000008
1297.92,120.07499047619055
1300.05,106.77979047619053
1302.18,103.16324761904768
1304.31,104.98969523809531
1306.44,115.11851428571438
1308.57,154.50394285714296
1310.69,170.1482857142858
1312.82,181.05395238095252
1314.94,199.84176190476205
1317.06,234.0856190476192
1319.18,246.31142857142873
1321.3,252.52133333333347
1323.41,245.76504761904778
1325.53,258.2828571428573
1327.64,283.3148095238097
1329.75,312.2916190476192
1331.87,316.16728571428587
1333.98,316.6586666666668
1336.08,325.62461904761926
1338.19,310.3527619047621
1340.3,279.74995238095255
1342.4,236.48428571428585
1344.5,206.3671904761906
1346.6,176.40071428571437
1348.7,166.72914285714293
1350.8,147.73557142857152
1352.9,161.84980952380965
1354.99,181.5972380952382
1357.09,189.4082857142858
1359.18,180.33180952380962
1361.27,182.60700000000008
1363.36,166.09295238095248
1365.45,197.8379047619049
1367.54,208.12942857142866
1369.62,214.58757142857158
1371.7,241.26095238095252
1373.79,246.9123809523811
1375.87,273.4954761904764
1377.95,301.6295714285716
1380.03,275.69685714285725
1382.1,279.65028571428587
1384.18,254.87152380952392
1386.25,206.8373809523811
1388.33,197.9770000000001
1390.4,177.338161904762
1392.47,120.25438095238101
1394.54,108.24971428571433
1396.6,73.56227142857148
1398.67,62.001652380952436
1400.74,71.61540476190483
1402.8,101.83197142857149
1404.86,97.6509190476191
1406.92,84.73851428571432
1408.98,80.42772380952385
1411.04,66.43214761904765
1413.09,62.84637142857149
1415.15,86.57430476190481
1417.2,104.28191904761911
1419.25,97.82538095238101
1421.3,109.06117619047623
1423.35,93.27361904761909
1425.4,78.60446666666674
1427.45,94.290580952381
1429.49,112.23543333333339
1431.54,110.5805190476191
1433.58,104.89605714285719
1435.62,84.98986666666671
1437.66,87.05102380952388
1439.7,108.07814285714294
1441.74,131.49769047619057
1443.77,149.45097619047627
1445.81,153.7457238095239
1447.84,139.0470142857144
1449.87,122.44831904761912
1451.9,97.85248571428576
1453.93,83.73360476190483
1455.96,92.18500952380961
1457.98,106.585461904762
1460.01,136.21858571428584
1462.03,173.17772380952394
1464.05,213.03204761904777
1466.07,253.5415714285716
1468.09,285.79919047619063
1470.11,286.70761904761923
1472.13,293.64528571428593
1474.14,309.5150000000002
1476.16,322.88561904761923
1478.17,309.8028095238097
1480.18,286.1689047619049
1482.19,240.79114285714297
1484.2,193.33390476190485
1486.21,159.9852857142858
1488.21,118.88564285714291
1490.22,91.98521904761911
1492.22,74.37693333333338
1494.22,84.82038095238102
1496.22,87.17043809523813
1498.22,75.61517619047622
1500.22,59.19985238095242
1502.22,56.39828095238098
1504.21,45.82729047619051
1506.21,49.43712857142859
1508.2,44.034895238095245
1510.19,28.047001904761927
1512.18,15.566497142857157
1514.17,25.115041904761938
1516.16,56.26198380952385
1518.14,55.38624190476193
1520.13,59.057289523809544
1522.11,45.13039666666666
1524.09,13.556151428571447
1526.07,6.189976666666684
1528.05,24.363646666666682
1530.03,31.36136142857146
1532.01,43.84834476190479
1533.98,58.91848571428576
1535.96,58.427719047619085
1537.93,75.66042380952388
1539.9,94.90130952380959
1541.87,119.57806190476197
1543.84,129.6898238095239
1545.81,128.14046190476193
1547.78,110.35779047619056
1549.74,123.05509047619054
1551.7,118.56528571428578
1553.67,100.26892380952386
1555.63,85.40347619047624
1557.59,83.20693809523817
1559.55,109.39283809523818
1561.5,136.96113809523817
1563.46,157.5782000000001
1565.41,160.62480952380963
1567.37,152.43428571428578
1569.32,160.2927142857144
1571.27,157.96147619047628
1573.22,144.3932380952382
1575.17,159.82614285714297
1577.11,168.02233333333345
1579.06,177.0300000000001
1581.0,194.944761904762
1582.95,184.1950761904763
1584.89,150.06707619047629
1586.83,146.27577142857152
1588.77,144.10735238095248
1590.7,153.8482476190477
1592.64,172.26074285714296
1594.58,166.27386190476204
1596.51,151.17413333333354
1598.44,130.12892380952408
