Raman Shift,Processed Intensity
331.095,96.17873672741644
333.909,37.19792439057437
336.721,24.433933471665114
339.531,40.05344025346767
342.339,44.96123548907417
345.145,93.44309116084969
347.949,99.641960572686
350.751,120.41513082323127
353.55,182.42947051721512
356.348,210.35191557202052
359.144,223.70662169092066
361.937,221.20830731251044
364.729,174.19083465537096
367.518,184.55960028655045
370.306,198.3153542614864
373.091,252.07801926391312
375.874,357.56289069817376
378.656,376.96159868629456
381.435,360.2754510174218
384.212,274.1725856210851
386.988,102.51178970711862
389.761,21.866318905579647
392.532,4.952478311424784
395.301,-11.656082185078958
398.068,14.995451241568844
400.833,27.33830456144642
403.596,9.042029573439322
406.358,1.871655684702091
409.117,-17.45515830986642
411.874,-34.64906768627043
414.629,-61.94427077606815
417.382,-31.71754926486028
420.133,-4.535883533980268
422.882,107.03402059301516
425.629,238.75905895271808
428.374,401.54924616277685
431.117,586.5529470285346
433.858,735.0616317591848
436.597,847.986059755367
439.334,957.7610348253124
442.069,1011.0120651629036
444.802,1015.2696423733514
447.533,1018.6359014512591
450.262,978.4036617110623
452.989,1002.0088010508043
455.714,994.7921540254197
458.438,1004.094743253368
461.159,940.6387251089582
463.878,872.7654782718332
466.595,799.626073228831
469.31,808.0384084425264
472.024,838.1062512816598
474.735,880.5049456182533
477.444,846.1956908532848
480.152,835.4255352280975
482.857,848.2511786595983
485.561,885.3008708135699
488.262,942.4410710827374
490.962,982.1097752315031
493.659,999.8879372787819
496.355,1065.8804151903464
499.048,1142.477868952129
501.74,1200.880563405427
504.43,1279.9555044154404
507.118,1383.0935750398144
509.804,1525.6857193162214
512.488,1692.0753165261458
515.17,1863.6057935538952
517.85,1975.3349039122827
520.528,2101.606149625449
523.204,2199.3344888259753
525.878,2268.2920433520007
528.551,2291.060473010996
531.221,2316.602397462599
533.89,2303.118532387152
536.556,2321.3333970828166
539.221,2332.542926824588
541.883,2351.3763709375903
544.544,2343.6058099179913
547.203,2306.193767792014
549.86,2314.817014951129
552.515,2319.8189424158118
555.168,2340.9714599088325
557.819,2411.6178463094952
560.469,2516.529885822163
563.116,2686.574527954312
565.761,2924.6186427326847
568.405,3175.957585443256
571.047,3375.5056661331078
573.687,3532.8913810170475
576.324,3675.885977217581
578.96,3804.1177317905854
581.594,3851.4528974176433
584.227,3877.7576004793423
586.857,3796.7549772237976
589.485,3664.929928982806
592.112,3498.624353578473
594.737,3280.4180910155546
597.359,2991.319392983336
599.98,2719.098249500356
602.599,2455.238763178188
605.216,2257.558190151881
607.831,2121.30217148659
610.445,2051.1923455365954
613.056,2064.0453888757324
615.666,2209.2015810373537
618.274,2455.3343216352323
620.88,2803.259647484481
623.484,3208.0314640081638
626.086,3581.036776643924
628.686,3916.329017488701
631.284,4146.437562419637
633.881,4182.082010119742
636.476,4060.076937294043
639.068,3801.5223681714233
641.659,3392.994244006494
644.249,2930.2587021052436
646.836,2419.9863548507
649.421,1915.2284734904983
652.005,1469.5598385911062
654.587,1133.031114301582
657.166,848.4545559506487
659.745,674.4992414533053
662.321,547.1196360507629
664.895,451.9365380027607
667.468,335.2846909465452
670.038,269.40325339871197
672.607,224.5310301618083
675.174,211.14456087378812
677.739,201.05335141460228
680.303,170.73320055089698
682.864,120.89762181880769
685.424,87.16450350198784
687.982,68.67514956202695
690.538,49.760939616488486
693.092,64.80046510742159
695.645,85.41000567198444
698.195,102.58639155851415
700.744,72.8974916425318
703.291,47.24413001417997
705.836,32.14581208946538
708.38,53.12169620200984
710.921,83.7858558412081
713.461,139.3234976917629
715.999,210.53861379401042
718.535,275.42545173507915
721.069,305.0256991257734
723.602,305.6666204584021
726.133,267.10395586938876
728.662,191.90291513994998
731.189,147.39060026822654
733.714,71.56080899378503
736.238,16.69312403638969
738.759,16.495811858599154
741.279,13.963014702495002
743.798,-21.720436454508217
746.314,-47.32182613725627
748.829,-43.0843094141278
751.342,-48.15543139459896
753.853,-52.77755720876212
756.362,-58.04973575305212
758.869,-82.59433118768857
761.375,-106.84270850232178
763.879,-82.46378336692305
766.381,-70.07829670580622
768.882,-84.83024598935208
771.38,-51.958326966342156
773.877,-18.938812733713803
776.372,18.323937364917583
778.866,22.87839102728003
781.357,34.44008736428714
783.847,51.67731193747659
786.335,107.11582201764486
788.821,209.1864328558322
791.306,317.5107048933305
793.789,426.09140402671073
796.27,565.7886761585687
798.749,748.0343169863677
801.227,941.5936608389097
803.702,1105.9941361794695
806.176,1186.4300115851202
808.649,1199.2385702974784
811.119,1123.8524752496492
813.588,1007.4664198074474
816.055,880.0371118439602
818.521,745.6165911474363
820.984,625.6855468291828
823.446,551.2009204457477
825.906,478.310175787763
828.365,413.0179496211813
830.821,354.37651195230774
833.276,292.39051200711674
835.729,213.15981944867053
838.181,188.8318894040658
840.631,151.60174653900685
843.079,137.80720722760725
845.525,128.30981600790665
847.97,103.87578203738485
850.412,105.84262983418603
852.854,110.35727858977543
855.293,84.18555005301596
857.731,50.85500974758179
860.167,17.845427236992236
862.601,-29.982668372264015
865.034,-1.1499038707638647
867.465,13.537167370343468
869.894,31.557481849160467
872.321,27.675453687403206
874.747,38.41715429461965
877.171,11.2131619691163
879.594,24.589033416945767
882.014,17.07006491349057
884.433,29.086054640865314
886.851,45.828448512963405
889.266,67.25034491189399
891.68,90.637930963298
894.092,102.61049024023032
896.503,101.2156485622836
898.912,118.69128646137096
901.319,139.7512611713223
903.724,133.6330333793876
906.128,160.57386540630068
908.53,174.85844795777484
910.931,179.29509830456482
913.329,170.59672036729808
915.726,155.19033622986672
918.122,142.7885224147385
920.516,149.57989377729928
922.908,161.27673025734794
925.298,171.7816512496379
927.687,152.33048045061196
930.074,165.9684440384658
932.459,181.93113075797328
934.843,190.26354724340717
937.225,215.7248876271742
939.605,235.59806505320284
941.984,239.45162414271817
944.361,233.94927250763158
946.736,205.65941226393034
949.11,187.24562392601956
951.482,209.94286458677425
953.853,233.0336660975986
956.222,256.0862380103913
958.589,239.76399909093743
960.954,202.34939454659025
963.318,182.98199896824008
965.68,151.42042879608607
968.041,143.328064309223
970.4,132.7492478056979
972.757,99.29976749685784
975.113,54.0716271159763
977.467,2.680672669739579
979.819,-40.35244747693196
982.17,-34.93560823034977
984.519,-14.07186673085107
986.866,-15.811839729447001
989.212,-7.825132135255899
991.556,-4.3050988962713745
993.899,48.031155024634245
996.24,69.51420324513174
998.579,77.85563132076686
1000.92,39.338512959435775
1003.25,26.19836242633255
1005.59,21.432658377474127
1007.92,49.467510550362476
1010.25,45.633850264172
1012.58,54.35790663422267
1014.91,59.97073040549731
1017.24,91.51771778616148
1019.56,116.94908666203673
1021.88,119.92940043011413
1024.2,117.98042516540909
1026.52,114.81446297828325
1028.84,126.33435203844374
1031.16,150.53822850368897
1033.48,188.32905035342947
1035.79,189.22888312696523
1038.1,198.61699518557725
1040.41,199.63461964128555
1042.72,221.37543057133144
1045.03,222.40935256597822
1047.33,238.40160837155645
1049.64,214.87462367636363
1051.94,178.77945570608608
1054.24,165.3053170573162
1056.54,157.87957572155028
1058.84,165.16775510918205
1061.13,197.0735340735091
1063.43,200.50065169663912
1065.72,220.01957398015747
1068.01,233.0579700596045
1070.3,216.1864265141935
1072.59,218.3565426288942
1074.87,178.90093041842601
1077.16,180.91416703220239
1079.44,205.96708049260542
1081.72,253.1067497189747
1084.0,294.1422188373126
1086.28,344.4064019661769
1088.56,400.4227499073295
1090.84,479.57191683639485
1093.11,556.0917603268354
1095.38,585.7916270882274
1097.65,554.5285434664411
1099.92,499.77864403905187
1102.19,471.7324097345645
1104.46,420.86609642782423
1106.72,419.32268734495756
1108.98,424.1499883254505
1111.24,439.8244373699449
1113.5,481.91777133088726
1115.76,558.8589306984209
1118.02,656.5531072434123
1120.28,741.0007916604873
1122.53,787.20253549677
1124.78,781.1589511758662
1127.03,732.9659501170777
1129.28,660.624266568906
1131.53,605.8489814425584
1133.77,545.0219032883124
1136.02,518.8106159385547
1138.26,556.6922880555726
1140.5,627.0012922031569
1142.74,730.595871537249
1144.98,791.1914731632464
1147.22,847.5036053028361
1149.45,870.247837317972
1151.69,835.2350378300848
1153.92,741.5142318869207
1156.15,598.467839081758
1158.38,446.95453072023975
1160.61,334.7378012729282
1162.83,245.2002541135721
1165.06,196.43883963832968
1167.28,154.21723624213064
1169.5,100.44204081885209
1171.72,86.5437211662479
1173.94,55.95280648613334
1176.16,29.861792170271656
1178.37,29.987044586271622
1180.58,27.28308681585895
1182.8,14.228312964581619
1185.01,1.4916548524633981
1187.22,-19.924560819148155
1189.42,-24.589372922383518
1191.63,-13.357470015511808
1193.84,21.53557108953737
1196.04,48.75899656553156
1198.24,54.60115685248411
1200.44,73.49331390511452
1202.64,90.05725796412298
1204.84,107.62911480366029
1207.03,135.97362916926795
1209.23,150.04606726343764
1211.42,167.2779287549797
1213.61,231.1483730740988
1215.8,282.85088380271327
1217.99,353.1980283028661
1220.18,382.5262173451356
1222.36,351.02903616561434
1224.55,307.9953374276465
1226.73,281.42828656452275
1228.91,251.80726426502815
1231.09,249.13548324471049
1233.27,240.74950977904882
1235.44,235.9383090461456
1237.62,293.75276665989895
1239.79,360.1961625841209
1241.96,488.6527402847578
1244.13,650.2210377868664
1246.3,859.8567425411138
1248.47,1091.6584034331413
1250.64,1387.2959999357795
1252.8,1653.2490350707885
1254.96,2036.6160569420263
1257.13,2424.686085030522
1259.29,2856.4147983943117
1261.44,3149.234057201602
1263.6,3280.909043311561
1265.76,3208.4906389503453
1267.91,3016.3154244347356
1270.06,2724.910437800561
1272.22,2435.8026963358648
1274.37,2160.2810990664643
1276.51,1882.2535673367329
1278.66,1637.6279949142067
1280.81,1397.4551028560777
1282.95,1199.4522467566549
1285.09,1007.1938906614837
1287.23,884.1116047909923
1289.37,796.3512061212796
1291.51,786.3441846791816
1293.65,829.6172250754462
1295.78,920.8398232759887
1297.92,1045.8719033731518
1300.05,1170.1447676903044
1302.18,1353.4706183149965
1304.31,1541.5187452987866
1306.44,1708.1488577142054
1308.57,1882.0301289974386
1310.69,2068.831670862435
1312.82,2244.4130072150056
1314.94,2406.109786162179
1317.06,2531.067111069155
1319.18,2582.287157330567
1321.3,2581.105360570292
1323.41,2493.333271507949
1325.53,2311.496648920614
1327.64,2034.7878383188408
1329.75,1744.4943410988526
1331.87,1466.141669409033
1333.98,1217.5885819687924
1336.08,1027.4080341731515
1338.19,864.696699625898
1340.3,712.4559202441678
1342.4,589.3059896963678
1344.5,488.1051987448518
1346.6,406.9974520171713
1348.7,338.2694085868452
1350.8,290.20762255414184
1352.9,236.81282648399292
1354.99,217.94278627248514
1357.09,202.16944172763806
1359.18,196.39795191209214
1361.27,156.4381214381783
1363.36,143.33773152488584
1365.45,113.33491867388466
1367.54,114.28674382173631
1369.62,136.33585673019888
1371.7,144.24382704320078
1373.79,142.29590391524198
1375.87,195.53910897313062
1377.95,217.6393768967655
1380.03,226.92917219040055
1382.1,238.35986785865998
1384.18,218.9303145587528
1386.25,169.82969546695676
1388.33,169.77085733559488
1390.4,156.94268916904775
1392.47,115.34345328072231
1394.54,84.68554492145313
1396.6,58.72882333646976
1398.67,21.566323774753982
1400.74,3.243302831724577
1402.8,11.709617125265595
1404.86,7.629247021078754
1406.92,30.14220164597009
1408.98,73.53118700511777
1411.04,114.03113202581153
1413.09,185.73395571685887
1415.15,308.826667661338
1417.2,472.6389923188617
1419.25,676.3100409468975
1421.3,831.2168882839901
1423.35,904.5460063758396
1425.4,892.9123174490019
1427.45,790.2163420226857
1429.49,672.0251565443518
1431.54,540.0962081681746
1433.58,387.901129533504
1435.62,304.0543154480847
1437.66,272.3605471903279
1439.7,268.9578549068169
1441.74,278.4127609621992
1443.77,292.0536185271694
1445.81,286.2563311188442
1447.84,305.9681673792261
1449.87,353.564909187005
1451.9,405.9937140550792
1453.93,432.7731203852136
1455.96,497.04067177032357
1457.98,558.6005412967534
1460.01,691.44734632275
1462.03,905.8137727807416
1464.05,1166.9801042415174
1466.07,1547.607560502221
1468.09,2003.2144933171953
1470.11,2548.9859154621654
1472.13,3136.059220274617
1474.14,3682.8575202417724
1476.16,4073.5182236838273
1478.17,4305.464468580032
1480.18,4301.2146516328785
1482.19,4042.1919573322784
1484.2,3551.867220353087
1486.21,2930.8541689049966
1488.21,2298.5760966538674
1490.22,1712.3134870239985
1492.22,1284.9659232146969
1494.22,963.7663791692139
1496.22,714.519320067503
1498.22,535.5054694856362
1500.22,397.624671793325
1502.22,277.6339926466703
1504.21,188.14772424282
1506.21,155.54215247938737
1508.2,124.81270506624833
1510.19,90.52633773258071
1512.18,41.9167775767562
1514.17,21.3607187971877
1516.16,16.80639937555179
1518.14,11.05932061715589
1520.13,34.16320478654143
1522.11,23.923809885949822
1524.09,0.09941110044906054
1526.07,-7.74205109026866
1528.05,-11.889632323901878
1530.03,-23.34652195803369
1532.01,-26.06813383173926
1533.98,-22.628769656063923
1535.96,-7.4120943136447295
1537.93,17.388862360900475
1539.9,7.866939584951979
1541.87,14.829412220018412
1543.84,23.940843078149555
1545.81,41.48498284740094
1547.78,74.84095573157833
1549.74,118.05468318522026
1551.7,162.07697431524775
1553.67,224.14447342546555
1555.63,298.87489327536036
1557.59,377.2193911960378
1559.55,448.9863737775918
1561.5,498.6986348898015
1563.46,537.8314460837855
1565.41,535.5268374698364
1567.37,494.59359288097266
1569.32,443.8881974174385
1571.27,372.12435641978186
1573.22,295.0158477752632
1575.17,242.27651708140502
1577.11,212.57265376192618
1579.06,202.332510039814
1581.0,196.50820086278782
1582.95,190.67093716208979
1584.89,189.7253067303268
1586.83,191.95688843264338
1588.77,185.31796165599258
1590.7,161.28464432982673
1592.64,131.5711738039372
1594.58,100.22514010724512
1596.51,71.27033825421336
1598.44,48.37343007505751
