Raman Shift,Processed Intensity
331.095,58.038169047618865
333.909,12.670913095237992
336.721,-6.3366797619048185
339.531,-7.194192857142847
342.339,2.6504757142857196
345.145,0.10687428571429736
347.949,30.03771761904764
350.751,18.354041904761896
353.55,4.20571857142858
356.348,11.981490476190476
359.144,-7.595660000000005
361.937,-13.420809523809497
364.729,19.040490476190495
367.518,25.085719047619104
370.306,80.06103333333346
373.091,165.55168571428584
375.874,266.85845714285733
378.656,312.90196190476206
381.435,292.41403333333346
384.212,201.50855238095247
386.988,86.77678571428574
389.761,-0.23640952380950653
392.532,-25.556276190476208
395.301,-33.87380952380952
398.068,-21.163757142857147
400.833,-10.114100000000004
403.596,3.2076333333333356
406.358,-1.1695047619047791
409.117,-15.072252380952367
411.874,8.626290476190489
414.629,24.768688571428584
417.382,21.48442904761906
420.133,29.95186761904763
422.882,12.160032857142882
425.629,48.52766285714295
428.374,123.33155761904771
431.117,177.70723142857153
433.858,204.5525761904763
436.597,195.67152380952388
439.334,148.1545238095239
442.069,145.18814285714296
444.802,140.81666666666675
447.533,124.46666666666675
450.262,119.8508095238096
452.989,146.1590000000001
455.714,196.01003809523826
458.438,209.30950000000007
461.159,171.58227619047625
463.878,138.8776714285715
466.595,112.05545714285724
469.31,121.49932380952389
472.024,128.16480000000004
474.735,111.19863333333339
477.444,125.55753333333345
480.152,147.05543809523823
482.857,159.3640000000001
485.561,190.4409380952382
488.262,160.53006666666678
490.962,163.16085238095252
493.659,172.10166190476198
496.355,137.26335238095245
499.048,114.6046714285715
501.74,121.5135571428572
504.43,96.56849047619055
507.118,124.77604285714295
509.804,142.09598095238107
512.488,179.77334761904774
515.17,203.67251428571439
517.85,190.51519047619055
520.528,144.07057142857147
523.204,117.82199047619055
525.878,83.49118095238101
528.551,110.13283809523816
531.221,123.13538095238103
533.89,128.22013809523816
536.556,126.7272571428572
539.221,113.14010000000005
541.883,83.9892714285715
544.544,89.9481190476191
547.203,92.02341428571435
549.86,94.03105714285724
552.515,140.6435761904763
555.168,165.81993333333344
557.819,187.5659523809525
560.469,184.07766666666674
563.116,169.2178095238096
565.761,150.46790476190483
568.405,146.64233333333343
571.047,143.5558571428572
573.687,144.45090476190484
576.324,133.71283809523817
578.96,125.34580952380959
581.594,108.02033333333337
584.227,67.16870476190479
586.857,41.508566666666695
589.485,40.32858571428576
592.112,54.536557142857184
594.737,57.65878095238099
597.359,71.07854571428574
599.98,51.321748095238114
602.599,36.53308190476194
605.216,60.99962333333339
607.831,76.7227866666667
610.445,83.46549095238102
613.056,95.08566952380957
615.666,88.48835238095243
618.274,77.19770952380956
620.88,92.35655238095242
623.484,83.53603333333338
626.086,95.21160000000005
628.686,80.1921571428572
631.284,92.61923809523817
633.881,133.11078095238105
636.476,160.9512095238096
639.068,162.3289238095239
641.659,153.48002857142862
644.249,107.35487142857147
646.836,65.23660000000005
649.421,62.88451428571432
652.005,47.20064000000003
654.587,31.56273761904763
657.166,22.063008571428597
659.745,42.31711476190479
662.321,37.940603809523836
664.895,25.453704285714302
667.468,38.6143685714286
670.038,38.60931904761908
672.607,49.05359523809528
675.174,73.99066190476194
677.739,76.51157619047622
680.303,51.37393333333337
682.864,68.1922228571429
685.424,62.2478366666667
687.982,46.58380952380954
690.538,33.62412904761906
693.092,16.173651428571432
695.645,7.98958238095241
698.195,29.11480952380954
700.744,34.54455714285715
703.291,26.655006190476193
705.836,10.727107619047617
708.38,12.565614761904792
710.921,32.737227619047644
713.461,39.522930952380975
715.999,42.6799904761905
718.535,49.7752504761905
721.069,43.70895047619053
723.602,79.04808476190482
726.133,73.40738000000002
728.662,41.06833333333334
731.189,15.931576190476205
733.714,26.42192857142861
736.238,37.249704761904816
738.759,90.03010000000006
741.279,90.37886666666672
743.798,84.81643333333338
746.314,75.05387619047623
748.829,90.75490952380957
751.342,87.05930000000005
753.853,87.63074761904765
756.362,84.65746190476196
758.869,85.13655238095244
761.375,110.97064285714295
763.879,144.2524215238096
766.381,121.69409628571431
768.882,81.1032163809524
771.38,69.28740561904766
773.877,43.625787809523864
776.372,61.54558200000005
778.866,78.09266914285718
781.357,70.59902380952386
783.847,82.82528095238102
786.335,105.34147142857148
788.821,106.71800476190484
791.306,117.14442380952387
793.789,122.47715238095248
796.27,137.62019047619057
798.749,165.23966666666678
801.227,168.7634761904763
803.702,177.00033333333343
806.176,187.42628571428583
808.649,182.993761904762
811.119,186.0832857142858
813.588,180.98071428571436
816.055,167.59065714285722
818.521,145.96077619047628
820.984,138.9486476190477
823.446,124.07841428571437
825.906,137.39769523809534
828.365,159.4310238095239
830.821,156.27390476190484
833.276,142.5937333333334
835.729,134.01009523809532
838.181,106.66669523809531
840.631,128.75486666666674
843.079,126.13271904761908
845.525,100.37237142857148
847.97,98.28445238095243
850.412,83.53657142857148
852.854,80.03459523809532
855.293,93.92278571428575
857.731,92.20226666666673
860.167,98.44569142857148
862.601,78.41640333333336
865.034,56.40145428571432
867.465,53.164006190476215
869.894,45.08665904761909
872.321,58.36132238095243
874.747,88.79922476190481
877.171,89.16374285714292
879.594,87.21841428571435
882.014,90.53618571428578
884.433,104.83333809523816
886.851,124.2543761904763
889.266,154.13450000000006
891.68,167.61835238095247
894.092,161.4695238095239
896.503,159.308761904762
898.912,173.61466666666678
901.319,178.24609523809534
903.724,175.77657142857154
906.128,170.0651904761906
908.53,166.4947142857144
910.931,146.3530476190477
913.329,144.54690476190484
915.726,150.45938095238105
918.122,153.37842857142866
920.516,141.59200000000007
922.908,155.3880476190477
925.298,140.14947619047626
927.687,129.64019047619058
930.074,139.48152380952388
932.459,138.0567904761905
934.843,109.9874095238096
937.225,131.22816190476198
939.605,118.59036190476195
941.984,110.40980952380959
944.361,119.83154761904768
946.736,83.19135714285716
949.11,67.39617619047625
951.482,81.54363333333339
953.853,92.49325238095247
956.222,121.00943333333342
958.589,164.713180952381
960.954,139.3688857142858
963.318,154.97860000000009
965.68,137.4971095238096
968.041,114.54595238095244
970.4,103.03227142857149
972.757,98.481680952381
975.113,62.61080000000004
977.467,72.37374761904766
979.819,73.86816190476195
982.17,58.00081428571434
984.519,79.67835238095243
986.866,85.80749523809527
989.212,76.96146666666672
991.556,71.28470000000004
993.899,75.20770000000005
996.24,79.35070000000007
998.579,112.8580333333334
1000.92,117.44551809523816
1003.25,81.01915142857143
1005.59,56.15132666666671
1007.92,54.462381904761955
1010.25,83.52446000000009
1012.58,132.86223714285723
1014.91,150.57148952380956
1017.24,111.55754761904767
1019.56,91.63016190476193
1021.88,72.21857619047624
1024.2,80.70393333333341
1026.52,110.70518571428582
1028.84,140.60340952380963
1031.16,176.3985523809525
1033.48,209.80476190476207
1035.79,242.6788095238097
1038.1,242.87752380952392
1040.41,257.7338571428573
1042.72,230.86628571428585
1045.03,232.8454285714287
1047.33,216.95661904761914
1049.64,214.05580952380961
1051.94,186.95204761904776
1054.24,187.4065238095239
1056.54,158.75109523809536
1058.84,160.36576190476202
1061.13,165.91633333333345
1063.43,167.25833333333344
1065.72,170.96247619047628
1068.01,174.31295238095248
1070.3,164.97490476190484
1072.59,166.80414285714298
1074.87,197.60890476190488
1077.16,194.72100000000012
1079.44,191.80561904761916
1081.72,208.33704761904775
1084.0,239.79023809523827
1086.28,268.78233333333355
1088.56,354.0737619047622
1090.84,458.18647619047647
1093.11,536.547047619048
1095.38,574.6301904761908
1097.65,572.7198571428574
1099.92,476.1477619047622
1102.19,396.53085714285737
1104.46,367.43866666666685
1106.72,348.77404761904785
1108.98,335.01161904761926
1111.24,356.48252380952397
1113.5,374.7089523809526
1115.76,397.06985714285736
1118.02,427.2774761904765
1120.28,434.80614285714313
1122.53,403.2255238095241
1124.78,386.2481428571431
1127.03,345.39595238095256
1129.28,298.2862857142859
1131.53,248.155142857143
1133.77,230.7150952380954
1136.02,202.2974285714287
1138.26,177.4242380952382
1140.5,163.617761904762
1142.74,181.01933333333346
1144.98,186.19852380952392
1147.22,209.10609523809538
1149.45,230.12133333333347
1151.69,217.05209523809538
1153.92,194.2305238095239
1156.15,183.27414285714295
1158.38,161.65723809523817
1160.61,135.71215238095246
1162.83,128.53271428571435
1165.06,113.73665714285718
1167.28,82.2276190476191
1169.5,67.2424190476191
1171.72,74.77972380952387
1173.94,92.36281904761911
1176.16,121.70471428571437
1178.37,114.80457142857146
1180.58,97.32828571428574
1182.8,67.98936285714288
1185.01,42.02512000000002
1187.22,11.768440000000012
1189.42,14.409184761904772
1191.63,6.566030476190496
1193.84,39.286315238095284
1196.04,52.90316761904764
1198.24,56.65455238095239
1200.44,33.588123809523815
1202.64,16.37077142857145
1204.84,27.097809523809573
1207.03,59.9602466666667
1209.23,52.86331095238098
1211.42,50.569469523809545
1213.61,44.22224361904764
1215.8,19.012873380952403
1217.99,34.65632342857147
1220.18,54.010808047619086
1222.36,54.98206009523814
1224.55,75.19023242857148
1226.73,84.06506409523813
1228.91,71.17918095238099
1231.09,81.48626190476195
1233.27,60.6543404761905
1235.44,58.5418571428572
1237.62,83.57908809523815
1239.79,73.19600000000005
1241.96,79.82277380952387
1244.13,100.2229190476191
1246.3,77.68374761904768
1248.47,91.34984761904768
1250.64,98.4136285714286
1252.8,106.82896190476198
1254.96,124.97894285714295
1257.13,165.29404761904775
1259.29,193.91894761904774
1261.44,207.95073333333343
1263.6,198.8674761904763
1265.76,188.09985714285722
1267.91,161.50733333333343
1270.06,147.8060000000001
1272.22,142.71242857142866
1274.37,145.18071428571437
1276.51,149.73709523809532
1278.66,149.5740761904763
1280.81,141.21776666666673
1282.95,134.09883809523816
1285.09,114.36241904761911
1287.23,116.43902857142862
1289.37,111.14068571428578
1291.51,107.18350952380958
1293.65,104.56994761904768
1295.78,102.25476190476195
1297.92,84.6685571428572
1300.05,81.05166190476194
1302.18,69.54917619047623
1304.31,67.87759047619055
1306.44,87.46767142857149
1308.57,99.94066190476198
1310.69,133.58430476190486
1312.82,162.5914000000001
1314.94,171.82114285714297
1317.06,183.84728571428582
1319.18,194.71933333333342
1321.3,177.01109523809532
1323.41,161.91504761904773
1325.53,174.5283809523811
1327.64,209.28147619047635
1329.75,264.17642857142874
1331.87,312.5962380952383
1333.98,325.87623809523825
1336.08,298.1612380952382
1338.19,277.8338571428573
1340.3,277.84843809523824
1342.4,241.1113904761906
1344.5,205.76740000000012
1346.6,165.2466571428572
1348.7,142.21725714285728
1350.8,152.63353333333345
1352.9,176.73515238095248
1354.99,165.80923809523821
1357.09,183.52358095238105
1359.18,154.40370000000007
1361.27,150.3078761904763
1363.36,153.66615714285723
1365.45,151.24159047619057
1367.54,152.84484285714296
1369.62,178.28639047619058
1371.7,193.3293809523811
1373.79,219.92680952380965
1375.87,235.55576190476208
1377.95,258.169523809524
1380.03,247.00676190476202
1382.1,244.16376190476205
1384.18,214.59333333333342
1386.25,188.53385714285724
1388.33,158.84309523809532
1390.4,161.23538095238104
1392.47,154.09181904761914
1394.54,142.1271476190477
1396.6,110.10310476190482
1398.67,68.35311904761906
1400.74,50.0676952380953
1402.8,63.48423333333339
1404.86,93.7930952380953
1406.92,97.04135714285721
1408.98,124.32371428571435
1411.04,123.78235714285722
1413.09,127.98826190476197
1415.15,129.27351904761912
1417.2,122.97120476190483
1419.25,114.7464857142858
1421.3,115.59842857142864
1423.35,125.19250476190484
1425.4,118.14664285714294
1427.45,114.45920000000007
1429.49,112.51036666666676
1431.54,105.01264761904768
1433.58,115.01206666666677
1435.62,118.31675238095244
1437.66,112.54416666666673
1439.7,84.5496047619048
1441.74,79.14117619047624
1443.77,67.5073952380953
1445.81,81.69385714285718
1447.84,70.88936666666669
1449.87,73.28245714285718
1451.9,64.72831428571433
1453.93,71.22505238095243
1455.96,91.00863809523815
1457.98,105.22000952380958
1460.01,114.28562857142866
1462.03,128.6793761904763
1464.05,155.3517238095239
1466.07,170.20504761904775
1468.09,203.66609523809538
1470.11,224.7324285714287
1472.13,244.44976190476206
1474.14,243.48228571428584
1476.16,249.01828571428587
1478.17,222.91285714285726
1480.18,220.49709523809537
1482.19,187.62590476190485
1484.2,166.29729523809536
1486.21,139.27075238095244
1488.21,126.4963190476191
1490.22,91.686480952381
1492.22,82.31492857142861
1494.22,56.1894666666667
1496.22,47.40300000000003
1498.22,48.66779047619052
1500.22,65.50557619047623
1502.22,78.8667190476191
1504.21,86.13020571428574
1506.21,59.38934619047621
1508.2,40.451730476190505
1510.19,39.791725238095275
1512.18,55.16938285714291
1514.17,71.20199380952386
1516.16,73.79252952380956
1518.14,71.27285714285719
1520.13,58.73637619047623
1522.11,59.562504761904805
1524.09,73.08298095238098
1526.07,45.201119047619066
1528.05,43.296371428571476
1530.03,59.51044285714289
1532.01,52.17512380952385
1533.98,68.28912857142862
1535.96,100.47027619047624
1537.93,99.19366190476197
1539.9,106.93439047619052
1541.87,91.16760000000002
1543.84,75.32093333333339
1545.81,75.86959047619055
1547.78,98.90795238095248
1549.74,130.76827142857152
1551.7,158.30720000000008
1553.67,174.1427142857144
1555.63,169.988761904762
1557.59,177.51161904761918
1559.55,185.94861904761916
1561.5,195.2991904761906
1563.46,227.32480952380968
1565.41,230.5484285714287
1567.37,210.9701904761906
1569.32,199.20866666666677
1571.27,192.59700000000012
1573.22,179.32552380952393
1575.17,172.63200000000006
1577.11,146.08752380952387
1579.06,129.73990476190485
1581.0,138.77914285714297
1582.95,146.39604761904772
1584.89,172.16180952380964
1586.83,188.12409523809535
1588.77,195.14038095238107
1590.7,190.87752380952392
1592.64,197.81157142857154
1594.58,173.39530952380957
1596.51,164.05716666666683
1598.44,192.13047619047677
