Raman Shift,Processed Intensity
331.095,28.883087619047718
333.909,13.127624761904675
336.721,5.530863333333244
339.531,5.053846666666666
342.339,24.80015619047621
345.145,3.0881333333333227
347.949,4.4990952380952365
350.751,5.520100000000022
353.55,14.448678095238087
356.348,-6.5118147619047555
359.144,15.795360952380957
361.937,17.147081428571468
364.729,33.607018095238146
367.518,77.62077095238102
370.306,132.06355904761915
373.091,198.81203809523828
375.874,260.9339571428573
378.656,271.9268380952382
381.435,233.00335238095244
384.212,148.85349523809532
386.988,100.07305238095246
389.761,70.16389047619053
392.532,44.48568095238097
395.301,25.304038095238127
398.068,36.17113333333336
400.833,30.73560476190479
403.596,31.504185238095246
406.358,26.460813809523806
409.117,-11.552370000000021
411.874,-40.59701857142858
414.629,-5.543046190476161
417.382,21.168820952380983
420.133,43.05149238095242
422.882,66.38075
425.629,53.71900952380956
428.374,55.820173809523894
431.117,138.29618095238106
433.858,180.8547380952382
436.597,188.4904333333334
439.334,180.24601904761911
442.069,152.7841904761906
444.802,126.48238095238106
447.533,121.4332857142858
450.262,149.87261904761917
452.989,183.13247619047632
455.714,201.497761904762
458.438,212.30133333333345
461.159,186.3530476190477
463.878,133.46299047619056
466.595,113.5368952380953
469.31,86.29076666666671
472.024,78.10762857142865
474.735,93.79924285714293
477.444,113.51113333333345
480.152,145.53201428571435
482.857,144.15107142857147
485.561,118.65771428571436
488.262,111.00810000000006
490.962,100.06381428571434
493.659,91.97183809523816
496.355,82.35615714285719
499.048,72.41197619047625
501.74,95.23960476190486
504.43,135.27243333333342
507.118,146.46829047619053
509.804,158.45141904761914
512.488,134.41801428571435
515.17,124.56411428571437
517.85,146.1812561904763
520.528,124.27491333333337
523.204,99.5652552380953
525.878,97.96249142857148
528.551,72.32977904761911
531.221,54.625094285714326
533.89,80.37832761904767
536.556,64.54730952380957
539.221,68.09027142857148
541.883,92.82231428571436
544.544,88.89178571428576
547.203,77.16109047619055
549.86,103.9694333333334
552.515,118.89307619047626
555.168,121.7944857142858
557.819,133.67858095238103
560.469,127.88342857142865
563.116,120.46142857142864
565.761,115.60776190476196
568.405,126.65980952380961
571.047,115.8123571428572
573.687,119.97385714285721
576.324,138.14821428571437
578.96,151.05327619047628
581.594,140.6923714285715
584.227,146.3544095238096
586.857,132.3279857142858
589.485,133.4726476190477
592.112,143.74325238095244
594.737,118.09413333333337
597.359,102.19424761904769
599.98,96.42612857142865
602.599,95.69606666666674
605.216,128.52870000000007
607.831,134.8776285714286
610.445,86.9340190476191
613.056,97.17479047619054
615.666,101.83785238095244
618.274,88.78065238095246
620.88,108.85977619047623
623.484,110.64655714285719
626.086,68.71158571428577
628.686,108.76838571428581
631.284,131.81536666666676
633.881,155.08964761904772
636.476,158.01815714285723
639.068,171.55178095238102
641.659,123.7359333333334
644.249,125.42570476190481
646.836,94.4757666666667
649.421,70.59812380952383
652.005,46.59973333333336
654.587,45.811228571428586
657.166,34.18194285714289
659.745,49.99458571428573
662.321,42.10322190476191
664.895,13.599852857142864
667.468,20.100234285714308
670.038,22.69617095238097
672.607,31.765192380952406
675.174,32.73235380952381
677.739,17.87981428571429
680.303,17.537334285714316
682.864,24.367972857142874
685.424,25.415700000000022
687.982,42.391191904761925
690.538,43.86225523809526
693.092,35.0157723809524
695.645,39.943428571428576
698.195,20.022603333333343
700.744,16.725964761904784
703.291,16.954760952380965
705.836,28.18178666666668
708.38,19.117937619047623
710.921,25.474199047619063
713.461,13.390195714285724
715.999,20.62465619047621
718.535,28.31733104761907
721.069,33.989055809523826
723.602,30.92261733333336
726.133,40.30565752380954
728.662,48.32588876190481
731.189,56.7901586666667
733.714,66.21967676190478
736.238,48.65954761904764
738.759,45.91688095238099
741.279,56.036938095238156
743.798,102.58869047619055
746.314,124.71293333333341
748.829,125.45515714285719
751.342,93.0990047619048
753.853,63.975852380952425
756.362,49.41709333333337
758.869,42.75407428571431
761.375,41.223277142857164
763.879,35.72776380952383
766.381,31.265915238095275
768.882,55.0743028571429
771.38,64.86576952380955
773.877,54.68654285714289
776.372,56.44008571428574
778.866,43.648985714285736
781.357,36.16921238095241
783.847,38.95207523809524
786.335,13.234642380952385
788.821,16.39713714285718
791.306,43.96234047619052
793.789,65.929480952381
796.27,76.25018714285719
798.749,96.97162476190482
801.227,106.18836666666675
803.702,129.42391904761914
806.176,136.86818571428577
808.649,120.99720952380957
811.119,108.14393809523817
813.588,106.07026666666673
816.055,104.29984761904768
818.521,105.64209523809531
820.984,97.66862857142863
823.446,80.95112857142863
825.906,94.87076190476195
828.365,74.90386190476192
830.821,67.6224428571429
833.276,78.50292857142864
835.729,107.59359047619054
838.181,109.70441428571434
840.631,116.12193809523815
843.079,93.03724761904765
845.525,64.35620952380955
847.97,43.4129666666667
850.412,38.54194552380953
852.854,9.553607904761915
855.293,8.449149142857173
857.731,42.32496923809528
860.167,55.94437771428574
862.601,61.30870314285717
865.034,46.324203619047616
867.465,5.135260476190478
869.894,-1.5898647619047335
872.321,20.436206190476213
874.747,31.501025714285742
877.171,53.03495095238098
879.594,51.32560095238096
882.014,37.51780000000003
884.433,35.61354285714289
886.851,52.56731904761911
889.266,89.14330476190483
891.68,111.3435571428572
894.092,122.59863809523816
896.503,108.19674761904766
898.912,84.42586666666672
901.319,86.4787571428572
903.724,103.50085714285719
906.128,95.20866666666673
908.53,102.89010476190481
910.931,89.88111428571435
913.329,94.51743809523815
915.726,103.75370000000005
918.122,97.54478571428577
920.516,104.79798095238101
922.908,111.9441190476191
925.298,83.22367142857146
927.687,82.4485571428572
930.074,76.04968095238098
932.459,61.886566666666724
934.843,61.056919047619076
937.225,63.42000000000003
939.605,51.216119047619095
941.984,64.78074761904767
944.361,76.0685047619048
946.736,87.12909523809527
949.11,62.53602380952383
951.482,58.148357142857186
953.853,70.49181428571434
956.222,74.80642857142863
958.589,76.09399047619051
960.954,79.35620476190479
963.318,69.8804571428572
965.68,56.382504761904805
968.041,81.91146666666673
970.4,88.84971428571433
972.757,72.24612380952385
975.113,74.387580952381
977.467,55.179954761904774
979.819,38.57659523809529
982.17,45.19743095238097
984.519,39.99559047619049
986.866,22.25740238095241
989.212,49.793114285714324
991.556,58.69819047619054
993.899,94.54460476190482
996.24,117.42748571428578
998.579,114.53759523809528
1000.92,98.92259047619052
1003.25,90.9159428571429
1005.59,66.37445238095242
1007.92,59.250600000000055
1010.25,74.06730952380957
1012.58,86.01498095238101
1014.91,91.18831428571434
1017.24,96.96768095238099
1019.56,92.16205714285721
1021.88,86.29438571428578
1024.2,119.84022857142867
1026.52,141.46518095238105
1028.84,146.45419047619058
1031.16,166.94914285714296
1033.48,181.0441904761906
1035.79,194.9759047619049
1038.1,236.07719047619062
1040.41,222.67947619047627
1042.72,213.4009523809525
1045.03,188.71628571428582
1047.33,172.5289523809525
1049.64,181.93257142857155
1051.94,188.87828571428582
1054.24,165.7452857142858
1056.54,159.57990476190486
1058.84,151.57090476190487
1061.13,156.5262380952382
1063.43,159.96780952380962
1065.72,162.17985714285723
1068.01,167.20814285714295
1070.3,165.71766666666676
1072.59,180.3734285714287
1074.87,187.88785714285723
1077.16,181.30676190476203
1079.44,207.0571904761906
1081.72,225.85114285714303
1084.0,250.0677142857145
1086.28,301.2766190476193
1088.56,369.09533333333366
1090.84,478.8075238095241
1093.11,579.0305714285718
1095.38,586.0953809523812
1097.65,530.3337142857146
1099.92,468.36295238095266
1102.19,372.32400000000024
1104.46,330.64352380952397
1106.72,295.2723809523811
1108.98,298.208285714286
1111.24,323.8307619047622
1113.5,410.0903809523812
1115.76,443.1282380952384
1118.02,445.9903809523812
1120.28,438.1513333333335
1122.53,447.27580952380976
1124.78,436.69538095238124
1127.03,390.83709523809546
1129.28,333.9379047619049
1131.53,242.71052380952395
1133.77,175.96285714285727
1136.02,150.312761904762
1138.26,147.61561904761916
1140.5,135.29880952380964
1142.74,169.17066666666676
1144.98,167.56319047619058
1147.22,181.9989047619049
1149.45,195.33423809523822
1151.69,211.56776190476205
1153.92,229.22271428571446
1156.15,220.7740000000001
1158.38,178.41142857142864
1160.61,145.3245952380953
1162.83,115.2272095238096
1165.06,93.1660333333334
1167.28,85.95026666666672
1169.5,92.10296666666672
1171.72,78.67155238095242
1173.94,75.51275714285721
1176.16,80.29322380952384
1178.37,74.44124761904766
1180.58,64.0996428571429
1182.8,72.2685523809524
1185.01,33.900452380952395
1187.22,25.56700476190478
1189.42,8.411438095238108
1191.63,29.33898380952385
1193.84,34.73114571428574
1196.04,55.68380571428575
1198.24,44.72154285714288
1200.44,31.749934761904775
1202.64,24.19845619047623
1204.84,54.353792857142885
1207.03,55.50267238095242
1209.23,60.836637619047636
1211.42,45.499699047619046
1213.61,3.016852380952389
1215.8,3.6274857142857506
1217.99,39.76130571428576
1220.18,71.13404190476196
1222.36,67.88991142857145
1224.55,60.887451428571445
1226.73,44.747180000000036
1228.91,41.28015904761909
1231.09,54.297334285714314
1233.27,51.22900571428573
1235.44,40.50537238095241
1237.62,27.080517619047633
1239.79,30.76572095238098
1241.96,35.80091571428574
1244.13,57.94978761904766
1246.3,67.6428271428572
1248.47,82.0724771428572
1250.64,79.90729047619054
1252.8,101.91114761904771
1254.96,128.99090476190486
1257.13,147.29149047619055
1259.29,141.24367619047626
1261.44,140.99233333333342
1263.6,146.25395238095248
1265.76,164.74485714285723
1267.91,168.0385714285715
1270.06,155.75671428571437
1272.22,126.52033333333341
1274.37,133.71247619047628
1276.51,141.6689333333334
1278.66,138.01076666666674
1280.81,135.0259714285715
1282.95,119.38369047619054
1285.09,99.84784285714292
1287.23,71.23019761904764
1289.37,62.34271904761909
1291.51,55.42555952380957
1293.65,71.00481428571432
1295.78,66.74928333333337
1297.92,62.851676190476205
1300.05,29.50459523809527
1302.18,40.94849047619053
1304.31,72.94734285714293
1306.44,112.74122380952387
1308.57,133.28475238095245
1310.69,155.29426666666674
1312.82,148.72395238095243
1314.94,142.86164761904772
1317.06,120.70957619047624
1319.18,118.3647238095239
1321.3,125.97213809523821
1323.41,168.29572380952393
1325.53,206.05124285714297
1327.64,261.5263142857145
1329.75,289.53233333333355
1331.87,299.78514285714306
1333.98,285.1438571428573
1336.08,265.37228571428585
1338.19,236.23357142857157
1340.3,231.49142857142868
1342.4,209.24247619047628
1344.5,194.059561904762
1346.6,165.4203476190477
1348.7,143.75483809523817
1350.8,133.2547952380953
1352.9,121.54070000000006
1354.99,96.13751904761911
1357.09,95.95116666666672
1359.18,104.60173333333341
1361.27,111.2807476190477
1363.36,133.13217142857152
1365.45,129.39507619047626
1367.54,130.49885714285722
1369.62,124.15857142857149
1371.7,140.75561904761915
1373.79,142.24314285714297
1375.87,174.5264285714287
1377.95,181.51090476190487
1380.03,206.48261904761915
1382.1,197.34690476190485
1384.18,193.77042857142868
1386.25,170.13469523809536
1388.33,157.1062333333334
1390.4,116.54221428571434
1392.47,94.1567523809524
1394.54,56.42601428571432
1396.6,44.11159047619051
1398.67,62.45161904761909
1400.74,55.54060714285717
1402.8,69.33034761904767
1404.86,77.62990238095242
1406.92,71.15285238095241
1408.98,52.46987380952384
1411.04,64.67551428571431
1413.09,46.14955238095243
1415.15,70.79559523809529
1417.2,81.89832857142862
1419.25,90.26601428571433
1421.3,71.18301904761908
1423.35,84.74332380952387
1425.4,82.80244761904767
1427.45,78.16832380952386
1429.49,73.31551428571433
1431.54,73.52800380952384
1433.58,35.23261333333337
1435.62,56.14187428571434
1437.66,65.06330095238098
1439.7,56.56633619047622
1441.74,53.601313333333366
1443.77,60.78515142857145
1445.81,44.73473333333338
1447.84,73.78110952380958
1449.87,82.4935047619048
1451.9,70.86956666666669
1453.93,61.57354380952384
1455.96,40.65064380952382
1457.98,28.717382857142894
1460.01,45.00955619047624
1462.03,66.7624733333334
1464.05,112.9258961904763
1466.07,158.2116580952382
1468.09,181.04534285714297
1470.11,185.2342380952382
1472.13,186.4422380952382
1474.14,198.42842857142873
1476.16,215.28544761904774
1478.17,198.34395714285725
1480.18,168.69622380952387
1482.19,115.48288571428577
1484.2,86.46289047619054
1486.21,68.82434761904766
1488.21,58.08850952380955
1490.22,39.062285714285736
1492.22,35.88609047619051
1494.22,32.89081428571433
1496.22,61.59792857142861
1498.22,61.909938095238125
1500.22,73.68179047619051
1502.22,45.53039047619049
1504.21,42.50130952380955
1506.21,38.73543333333336
1508.2,41.183297619047636
1510.19,34.03362857142859
1512.18,40.47527380952381
1514.17,21.64951428571431
1516.16,20.84064047619049
1518.14,32.28537714285716
1520.13,23.83962238095239
1522.11,24.264106666666684
1524.09,16.319691904761914
1526.07,27.005411428571456
1528.05,52.27280238095243
1530.03,63.692519047619065
1532.01,57.83534095238099
1533.98,48.605462857142875
1535.96,45.00246000000004
1537.93,48.50216571428575
1539.9,68.72335142857145
1541.87,66.52300476190479
1543.84,54.13912380952383
1545.81,29.71460952380955
1547.78,50.916152380952425
1549.74,51.98216190476195
1551.7,73.05562380952388
1553.67,109.1847190476191
1555.63,122.22694285714293
1557.59,113.27779523809528
1559.55,124.7665333333334
1561.5,109.97947619047626
1563.46,121.82201904761914
1565.41,129.58085238095245
1567.37,123.35194285714293
1569.32,131.46937619047628
1571.27,132.12457142857147
1573.22,109.65156666666672
1575.17,109.00401904761911
1577.11,113.46863809523816
1579.06,105.95118095238104
1581.0,122.31007619047625
1582.95,141.16515238095246
1584.89,135.94630476190486
1586.83,133.65491428571437
1588.77,147.6255333333334
1590.7,143.5735714285715
1592.64,135.11966666666675
1594.58,139.1219761904763
1596.51,132.70097619047633
1598.44,105.19133333333336
