Raman Shift,Processed Intensity
331.095,70.15895452380948
333.909,22.210527142856996
336.721,-1.1097457142858218
339.531,-5.510779047619039
342.339,18.51253000000001
345.145,20.82273047619048
347.949,-17.954477619047637
350.751,-12.716665714285707
353.55,-4.312676190476195
356.348,-29.78081904761904
359.144,0.7464904761904982
361.937,22.04267142857143
364.729,36.97784285714294
367.518,93.9465000000001
370.306,185.1066952380954
373.091,256.76044285714306
375.874,312.591742857143
378.656,324.7144857142859
381.435,288.1484333333334
384.212,190.00964285714295
386.988,133.98719047619053
389.761,62.58075238095239
392.532,32.05303238095243
395.301,25.52523000000001
398.068,29.26244571428574
400.833,27.531222380952396
403.596,17.742155238095222
406.358,-20.597655714285715
409.117,-11.456072380952381
411.874,-6.942607619047598
414.629,12.024942380952394
417.382,30.006137142857153
420.133,19.84738142857144
422.882,15.538965714285748
425.629,38.50096619047626
428.374,105.63035904761917
431.117,176.2539285714287
433.858,217.12768095238104
436.597,220.7231714285715
439.334,172.22671428571437
442.069,137.7780000000001
444.802,140.70766666666677
447.533,147.1570000000001
450.262,165.9344285714287
452.989,174.8495714285715
455.714,175.5689523809525
458.438,195.47447619047628
461.159,196.37677619047628
463.878,141.27780000000004
466.595,109.60848095238099
469.31,68.3243428571429
472.024,58.47600476190482
474.735,76.16275238095244
477.444,100.48360952380958
480.152,115.91936190476198
482.857,119.9507428571429
485.561,126.82096190476199
488.262,130.4876857142858
490.962,128.90894285714293
493.659,114.42372380952388
496.355,123.08581904761911
499.048,83.66306190476197
501.74,80.01880952380961
504.43,117.87390000000009
507.118,124.13948095238102
509.804,130.72682380952392
512.488,161.83303333333345
515.17,196.41720952380967
517.85,228.34323333333344
520.528,235.5226095238096
523.204,167.2952047619048
525.878,103.7151714285715
528.551,94.97955714285725
531.221,114.4757476190477
533.89,140.63885238095247
536.556,117.4750285714286
539.221,95.79981904761911
541.883,67.95289523809528
544.544,90.03530476190481
547.203,73.19570476190479
549.86,82.34467619047624
552.515,74.67790952380957
555.168,86.10541904761911
557.819,119.82256666666677
560.469,149.64373333333344
563.116,155.14509523809534
565.761,149.33119047619053
568.405,146.96795238095245
571.047,114.24995238095245
573.687,117.27576190476198
576.324,108.81101904761913
578.96,103.90654285714291
581.594,104.32705714285721
584.227,112.02773809523815
586.857,98.86805714285721
589.485,101.32640000000005
592.112,95.21413809523814
594.737,87.15195238095242
597.359,68.61707619047621
599.98,55.0869428571429
602.599,66.6098190476191
605.216,68.90050952380956
607.831,63.86395714285719
610.445,77.07151428571433
613.056,68.42756190476196
615.666,72.78866190476197
618.274,77.82064761904765
620.88,68.90331428571432
623.484,54.84480476190481
626.086,80.5007476190477
628.686,105.96448095238102
631.284,145.18632857142867
633.881,148.16413809523817
636.476,154.32402857142864
639.068,146.52041904761913
641.659,152.75082857142866
644.249,147.96439047619054
646.836,158.77696190476195
649.421,135.51875714285723
652.005,109.61489904761908
654.587,70.4427966666667
657.166,29.18955047619049
659.745,16.56557000000003
662.321,23.32897904761908
664.895,33.0951204761905
667.468,53.38395142857144
670.038,36.95352857142858
672.607,21.276157142857166
675.174,32.44327142857145
677.739,33.8795666666667
680.303,59.6289190476191
682.864,63.735238095238095
685.424,51.33771428571432
687.982,40.670814285714314
690.538,45.63577619047622
693.092,43.13387619047623
695.645,57.54271904761906
698.195,43.71612380952384
700.744,46.26991904761907
703.291,45.1532704761905
705.836,37.55355857142858
708.38,27.086805714285724
710.921,8.226225238095246
713.461,10.445080000000022
715.999,23.597670000000022
718.535,42.062152380952405
721.069,40.45484095238097
723.602,38.77305523809526
726.133,48.490247619047665
728.662,65.12775714285719
731.189,80.6354285714286
733.714,77.43937619047621
736.238,71.63240952380956
738.759,53.545457142857174
741.279,67.74746666666672
743.798,80.76014761904767
746.314,79.20031904761909
748.829,66.6848666666667
751.342,48.49735714285716
753.853,48.254880952381
756.362,45.81245714285717
758.869,68.59676285714289
761.375,52.70122000000001
763.879,54.21912095238099
766.381,64.29170380952388
768.882,85.39361142857146
771.38,85.85649142857149
773.877,86.39309142857144
776.372,48.478176190476226
778.866,34.34827619047623
781.357,44.002214285714324
783.847,45.15295238095243
786.335,86.65660476190482
788.821,87.17850952380957
791.306,90.95593333333339
793.789,82.17808571428576
796.27,89.22515238095247
798.749,105.66767142857152
801.227,149.02870476190483
803.702,150.402661904762
806.176,160.36054285714295
808.649,143.47309523809534
811.119,130.97809523809534
813.588,132.01785714285722
816.055,133.0205714285715
818.521,132.74766666666673
820.984,124.72288095238102
823.446,122.85086666666673
825.906,104.36967142857148
828.365,87.56496666666672
830.821,98.67490952380959
833.276,117.03269047619055
835.729,116.21033333333341
838.181,134.11257619047626
840.631,132.7398666666667
843.079,105.85453809523817
845.525,112.6000571428572
847.97,103.97673809523815
850.412,93.79490000000007
852.854,95.8168571428572
855.293,86.61484380952385
857.731,48.52310571428574
860.167,36.733216190476206
862.601,22.38877523809527
865.034,28.15756380952385
867.465,62.421595238095286
869.894,65.51539285714287
872.321,50.344964761904805
874.747,55.483079523809565
877.171,53.121517142857186
879.594,51.6902728571429
882.014,77.28621333333338
884.433,80.1965190476191
886.851,108.51777619047628
889.266,126.01372380952387
891.68,138.3049714285715
894.092,97.67912380952384
896.503,108.32842857142866
898.912,123.20711428571437
901.319,150.17394285714295
903.724,155.99320476190482
906.128,153.28541904761911
908.53,128.9578095238096
910.931,141.0119523809525
913.329,163.68804761904772
915.726,167.17859047619052
918.122,150.05753809523816
920.516,108.70760476190482
922.908,110.17909047619054
925.298,102.33109047619054
927.687,115.40355714285722
930.074,134.732061904762
932.459,137.5097333333334
934.843,129.92919047619057
937.225,131.27866190476198
939.605,121.84619523809529
941.984,93.10997142857147
944.361,74.31050000000003
946.736,53.49794285714289
949.11,51.67453809523813
951.482,42.937961904761934
953.853,59.90963809523812
956.222,44.63955714285716
958.589,34.55870000000002
960.954,31.09799047619051
963.318,55.78373809523814
965.68,63.856280952381
968.041,89.31801904761909
970.4,76.02847619047621
972.757,57.65665238095241
975.113,50.49057580952384
977.467,43.86595057142859
979.819,32.16582019047622
982.17,29.29717990476192
984.519,33.6907725714286
986.866,40.92006961904765
989.212,50.463304380952415
991.556,68.51264761904768
993.899,88.64170476190483
996.24,102.37604285714292
998.579,120.76477619047624
1000.92,104.47612380952384
1003.25,59.36867142857145
1005.59,38.63406190476193
1007.92,28.750085714285746
1010.25,32.33684285714289
1012.58,43.014209523809555
1014.91,58.40203333333337
1017.24,59.548752380952436
1019.56,88.2644095238096
1021.88,119.93055714285721
1024.2,116.54752857142863
1026.52,117.73445238095245
1028.84,128.96766190476197
1031.16,143.53301904761915
1033.48,161.81141428571436
1035.79,193.75500952380963
1038.1,219.12557142857156
1040.41,242.87504761904776
1042.72,239.7646666666668
1045.03,235.36538095238106
1047.33,172.00995238095246
1049.64,139.5544761904763
1051.94,119.37947619047625
1054.24,109.86504761904771
1056.54,137.4384761904763
1058.84,163.47976190476197
1061.13,167.4639523809525
1063.43,177.1042857142858
1065.72,166.5899523809525
1068.01,190.34828571428585
1070.3,221.61552380952392
1072.59,206.6285238095239
1074.87,178.4810000000001
1077.16,150.74304761904773
1079.44,143.41271428571443
1081.72,194.10747619047635
1084.0,243.8729523809526
1086.28,321.70771428571453
1088.56,429.3721904761908
1090.84,514.2929047619051
1093.11,563.7060000000004
1095.38,575.561904761905
1097.65,518.9538095238098
1099.92,446.11757142857175
1102.19,386.24209523809543
1104.46,324.18233333333353
1106.72,301.0792857142859
1108.98,330.0261428571431
1111.24,388.92552380952407
1113.5,428.8229047619051
1115.76,464.04947619047647
1118.02,471.6507142857145
1120.28,454.29133333333357
1122.53,423.20733333333357
1124.78,407.82504761904784
1127.03,360.3808095238097
1129.28,322.110142857143
1131.53,288.34447619047637
1133.77,235.891142857143
1136.02,191.79580952380962
1138.26,170.24700000000013
1140.5,149.09980952380963
1142.74,155.97114285714298
1144.98,190.57357142857157
1147.22,220.19047619047632
1149.45,227.01076190476203
1151.69,222.03266666666678
1153.92,185.0632380952382
1156.15,163.91033333333345
1158.38,176.33438095238108
1160.61,182.09549523809534
1162.83,155.52535238095248
1165.06,145.9558476190477
1167.28,118.57517142857152
1169.5,116.191561904762
1171.72,138.99427619047628
1173.94,125.79149047619053
1176.16,113.91494285714292
1178.37,105.31607238095243
1180.58,70.18374619047623
1182.8,62.89784952380957
1185.01,71.50497095238099
1187.22,48.43272619047624
1189.42,48.489590000000035
1191.63,56.436743333333354
1193.84,45.749581904761946
1196.04,52.332100476190504
1198.24,47.99338857142857
1200.44,21.54245238095239
1202.64,14.407533333333365
1204.84,33.635966666666704
1207.03,50.70376190476193
1209.23,62.134685714285744
1211.42,62.3573904761905
1213.61,34.324428571428584
1215.8,29.79806190476194
1217.99,48.06444285714289
1220.18,57.79077142857147
1222.36,56.73965238095241
1224.55,62.57854285714288
1226.73,42.26074761904765
1228.91,43.78735714285719
1231.09,65.73095428571432
1233.27,58.9022923809524
1235.44,51.73128000000004
1237.62,52.31459809523813
1239.79,51.844227619047665
1241.96,61.84558761904767
1244.13,76.12985904761908
1246.3,65.27016190476195
1248.47,64.31588571428576
1250.64,89.9357952380953
1252.8,104.03632380952388
1254.96,107.8576714285715
1257.13,131.06839523809532
1259.29,161.5754761904763
1261.44,191.95241904761917
1263.6,221.9158000000001
1265.76,227.18214285714296
1267.91,208.61109523809532
1270.06,185.68061904761913
1272.22,159.96495238095247
1274.37,132.7995714285715
1276.51,127.80600000000011
1278.66,129.60614285714294
1280.81,146.10709523809533
1282.95,140.78742857142862
1285.09,125.4118571428572
1287.23,113.79214285714295
1289.37,138.50225714285725
1291.51,126.8307571428572
1293.65,115.589680952381
1295.78,86.30573333333336
1297.92,60.41008571428575
1300.05,52.476700000000044
1302.18,75.3652428571429
1304.31,60.888071428571465
1306.44,73.09544761904768
1308.57,78.79944761904767
1310.69,103.47904285714296
1312.82,132.8989095238096
1314.94,154.25193333333343
1317.06,138.35042857142867
1319.18,127.10152380952391
1321.3,150.17442857142873
1323.41,194.2386190476192
1325.53,244.3443809523811
1327.64,286.39852380952397
1329.75,313.59419047619065
1331.87,307.2195714285716
1333.98,321.51509523809545
1336.08,290.6262857142858
1338.19,240.3173333333335
1340.3,219.5426666666668
1342.4,200.44752380952394
1344.5,196.93909523809538
1346.6,193.06695238095247
1348.7,177.4524380952382
1350.8,135.0020571428572
1352.9,128.86068571428578
1354.99,115.60160952380959
1357.09,110.27449523809531
1359.18,124.59562857142866
1361.27,142.09043809523817
1363.36,142.99871428571439
1365.45,176.6077142857144
1367.54,175.68061904761913
1369.62,177.26680952380966
1371.7,182.84385714285725
1373.79,181.88919047619058
1375.87,178.78500000000014
1377.95,199.15128571428585
1380.03,205.1797142857144
1382.1,226.34729523809537
1384.18,189.46446190476203
1386.25,169.15116190476198
1388.33,144.0746333333334
1390.4,110.14002380952387
1392.47,91.68132380952386
1394.54,99.98407142857147
1396.6,74.38220952380956
1398.67,61.59019047619051
1400.74,61.179519047619074
1402.8,53.91181904761908
1404.86,40.929733333333374
1406.92,56.32795714285718
1408.98,62.10617619047622
1411.04,60.97804761904765
1413.09,57.657067619047645
1415.15,43.904258095238106
1417.2,32.385287619047645
1419.25,28.575175238095266
1421.3,35.71071142857147
1423.35,57.26668190476193
1425.4,75.62245809523813
1427.45,47.53821428571431
1429.49,70.96470476190481
1431.54,73.99505238095243
1433.58,75.15104761904767
1435.62,88.001988952381
1437.66,78.73610942857144
1439.7,32.73206171428575
1441.74,44.7495124761905
1443.77,39.07153314285718
1445.81,49.552733238095286
1447.84,67.00004609523813
1449.87,77.98220000000005
1451.9,82.68691904761911
1453.93,89.15902857142862
1455.96,92.10983809523816
1457.98,88.48893809523814
1460.01,104.53160476190484
1462.03,120.09205238095245
1464.05,137.6909142857144
1466.07,152.13480476190486
1468.09,190.61101904761915
1470.11,190.83076190476203
1472.13,222.69595238095252
1474.14,215.29885714285726
1476.16,218.06485714285728
1478.17,213.65757142857154
1480.18,215.50266666666678
1482.19,171.54933333333344
1484.2,157.46164761904768
1486.21,133.14127142857149
1488.21,104.109080952381
1490.22,92.60018571428577
1492.22,75.75480000000002
1494.22,41.80819047619051
1496.22,37.71030000000003
1498.22,55.31541904761909
1500.22,54.716310476190515
1502.22,56.62476990476192
1504.21,38.943174666666664
1506.21,11.288220761904764
1508.2,-5.675577523809505
1510.19,14.668660761904789
1512.18,34.7475165714286
1514.17,45.03525276190478
1516.16,36.6252980952381
1518.14,28.80163904761906
1520.13,9.848409523809527
1522.11,-1.7120747619047565
1524.09,13.166427619047644
1526.07,24.19695000000002
1528.05,34.71169142857146
1530.03,49.80486238095241
1532.01,57.76121714285718
1533.98,56.96092380952385
1535.96,75.40322857142861
1537.93,68.4208323809524
1539.9,48.20366809523811
1541.87,30.22746000000003
1543.84,40.01566047619052
1545.81,55.90125523809529
1547.78,74.8839871428572
1549.74,85.82071333333339
1551.7,114.75911904761915
1553.67,146.9846238095239
1555.63,176.78312857142865
1557.59,167.10707619047625
1559.55,141.29005714285722
1561.5,130.6654000000001
1563.46,139.5666761904763
1565.41,133.89869523809534
1567.37,148.6144095238096
1569.32,129.33314285714295
1571.27,134.05580952380964
1573.22,157.6872380952382
1575.17,161.41833333333344
1577.11,147.91652380952388
1579.06,149.75376190476197
1581.0,130.97842857142865
1582.95,123.63900000000008
1584.89,136.16433333333342
1586.83,139.5552857142858
1588.77,147.52733333333342
1590.7,150.36661904761914
1592.64,163.45514285714293
1594.58,168.24614285714284
1596.51,157.78828571428573
1598.44,123.58257142857161
