Raman Shift,Processed Intensity
331.095,-48.012792857143054
333.909,-83.5093309523812
336.721,-76.93560238095262
339.531,-48.18272380952383
342.339,-33.19022857142858
345.145,-1.9917457142857096
347.949,2.834447142857141
350.751,14.75986761904765
353.55,27.49637142857143
356.348,24.424640952380962
359.144,14.403595238095267
361.937,24.24667714285718
364.729,49.24569476190485
367.518,125.5036971428573
370.306,236.7446952380955
373.091,382.12366190476223
375.874,520.3685619047621
378.656,574.2092380952383
381.435,517.901104761905
384.212,373.84413809523824
386.988,227.2018857142858
389.761,99.71145238095244
392.532,23.158904761904793
395.301,20.8560047619048
398.068,20.73461904761908
400.833,46.06202857142863
403.596,58.53546666666667
406.358,44.85372857142858
409.117,6.95520000000001
411.874,11.113133333333359
414.629,26.649542857142908
417.382,60.221109523809574
420.133,81.5334571428572
422.882,111.15052380952389
425.629,143.2091523809525
428.374,199.32288095238113
431.117,299.44023809523827
433.858,348.3196666666668
436.597,346.0067619047621
439.334,295.2144761904763
442.069,227.3709047619049
444.802,173.3334285714287
447.533,199.48376190476205
450.262,242.25228571428593
452.989,289.7843333333335
455.714,359.17809523809547
458.438,361.81771428571443
461.159,301.6123809523811
463.878,249.32795238095252
466.595,212.11276190476204
469.31,160.44807142857155
472.024,169.815761904762
474.735,185.74559523809538
477.444,190.863142857143
480.152,223.7938333333335
482.857,251.3544285714287
485.561,250.17066666666682
488.262,245.34519047619062
490.962,290.9328571428573
493.659,286.5602380952383
496.355,266.90147619047633
499.048,218.25009523809533
501.74,173.18509523809536
504.43,136.23852380952394
507.118,163.41776190476202
509.804,191.30190476190492
512.488,228.51780952380966
515.17,273.6442857142859
517.85,301.4032857142859
520.528,281.37423809523824
523.204,238.27849523809533
525.878,153.0757571428572
528.551,117.2970380952382
531.221,124.52070952380961
533.89,134.27764285714292
536.556,116.5748047619048
539.221,100.65676190476194
541.883,45.196657142857205
544.544,75.77199047619057
547.203,110.0558476190477
549.86,118.14920476190484
552.515,128.58166666666676
555.168,155.83487619047628
557.819,151.866561904762
560.469,160.8247095238096
563.116,136.5239904761905
565.761,105.9689095238096
568.405,78.40216190476198
571.047,91.73287142857151
573.687,126.15537142857153
576.324,151.53064761904773
578.96,161.86268571428582
581.594,166.0592571428572
584.227,147.17157142857153
586.857,186.7265904761906
589.485,183.34563809523817
592.112,165.6506190476191
594.737,145.26305238095242
597.359,75.23240000000003
599.98,35.56108571428577
602.599,53.822376190476206
605.216,46.35112380952387
607.831,59.958628571428626
610.445,96.31270000000004
613.056,70.46218095238099
615.666,74.17005714285719
618.274,72.0085571428572
620.88,84.74012380952388
623.484,129.26984761904774
626.086,191.6930380952382
628.686,203.96228571428583
631.284,239.07728571428586
633.881,246.51404761904774
636.476,251.55747619047636
639.068,251.06380952380965
641.659,236.03204761904775
644.249,204.07966666666675
646.836,165.30030000000005
649.421,130.1686190476191
652.005,113.634880952381
654.587,75.554180952381
657.166,67.06730000000007
659.745,90.21861904761911
662.321,92.29149047619053
664.895,100.23532380952388
667.468,102.76140476190481
670.038,122.15214285714295
672.607,122.11860476190483
675.174,124.84724761904769
677.739,113.85866666666672
680.303,108.62513333333341
682.864,118.4760857142858
685.424,134.26474761904768
687.982,103.93948571428575
690.538,64.01979047619048
693.092,28.35889066666668
695.645,10.76187257142859
698.195,11.748222285714286
700.744,3.12331885714286
703.291,3.2162384761904903
705.836,6.546533523809554
708.38,50.68133257142864
710.921,94.7117990476191
713.461,87.68145714285717
715.999,66.72909523809527
718.535,44.75549523809526
721.069,25.56630476190482
723.602,65.72901904761912
726.133,119.66869047619053
728.662,135.5245095238096
731.189,119.19778571428577
733.714,107.63727619047627
736.238,99.26837619047627
738.759,144.56407619047633
741.279,167.18803809523817
743.798,165.3752571428572
746.314,140.12285238095245
748.829,96.2848666666667
751.342,63.28723333333339
753.853,78.17494761904766
756.362,69.51696666666672
758.869,76.07274761904768
761.375,84.79239523809527
763.879,50.4831904761905
766.381,46.71448095238098
768.882,36.15097619047621
771.38,36.98130000000005
773.877,59.9656047619048
776.372,66.48327142857147
778.866,83.48512571428577
781.357,87.44607333333336
783.847,67.55534190476195
786.335,43.33565047619049
788.821,35.54792761904765
791.306,28.048482857142908
793.789,72.59858285714292
796.27,72.81667142857148
798.749,79.46397619047625
801.227,92.77855238095245
803.702,115.04570476190483
806.176,115.45600000000007
808.649,146.86671428571438
811.119,147.08742857142866
813.588,133.0705714285715
816.055,141.8168095238096
818.521,148.84999047619056
820.984,133.8376714285715
823.446,125.25670000000007
825.906,106.58408571428576
828.365,85.05877619047625
830.821,73.39604285714292
833.276,76.16812380952386
835.729,85.80498095238102
838.181,92.49819523809529
840.631,98.43951428571434
843.079,90.8208428571429
845.525,98.5007333333334
847.97,80.95694047619051
850.412,77.23880000000005
852.854,61.44309761904765
855.293,55.00017142857146
857.731,31.10225000000004
860.167,69.70367619047624
862.601,68.09197743809527
865.034,54.5548290809524
867.465,52.33247244761908
869.894,46.760207538095266
872.321,37.93537720952387
874.747,81.28883860476196
877.171,113.96543458095245
879.594,106.11037619047625
882.014,128.4406095238096
884.433,123.29126666666674
886.851,126.760361904762
889.266,144.80218095238104
891.68,162.51470476190485
894.092,170.7096666666668
896.503,170.38971428571438
898.912,177.4142380952382
901.319,171.64338095238102
903.724,166.1742380952382
906.128,158.96219047619059
908.53,170.866761904762
910.931,174.6044761904763
913.329,201.4162380952382
915.726,204.35233333333346
918.122,186.9386190476191
920.516,165.65399047619056
922.908,139.07251428571433
925.298,116.38707619047626
927.687,102.17158095238103
930.074,118.095361904762
932.459,134.54151428571438
934.843,162.75059047619055
937.225,151.2965190476191
939.605,110.32476190476194
941.984,84.17055714285719
944.361,77.64611238095243
946.736,72.03930285714289
949.11,45.63799142857143
951.482,31.111349523809547
953.853,34.6517771428572
956.222,60.118360000000045
958.589,66.79907904761907
960.954,58.791138095238104
963.318,42.763171428571475
965.68,56.95530000000005
968.041,73.55959047619051
970.4,80.24437142857145
972.757,58.91598095238097
975.113,36.337780952380974
977.467,34.225409523809546
979.819,29.008633333333357
982.17,34.35523809523814
984.519,63.93264285714291
986.866,72.88481428571436
989.212,98.4979857142858
991.556,141.58239523809533
993.899,176.0911523809525
996.24,218.31010476190494
998.579,270.0491047619049
1000.92,260.4511904761906
1003.25,232.89700000000013
1005.59,179.6247142857144
1007.92,153.15847619047628
1010.25,135.97390476190486
1012.58,149.8805238095239
1014.91,158.06828571428582
1017.24,159.25090476190485
1019.56,142.42757142857153
1021.88,139.02659523809533
1024.2,130.90400000000008
1026.52,115.01150000000008
1028.84,142.4912380952382
1031.16,164.10435714285722
1033.48,203.46866666666676
1035.79,213.15442857142867
1038.1,219.06509523809538
1040.41,217.8187142857144
1042.72,227.2234761904763
1045.03,217.61180952380968
1047.33,239.26795238095252
1049.64,229.8569047619049
1051.94,223.234142857143
1054.24,253.39838095238113
1056.54,276.49076190476205
1058.84,277.89090476190495
1061.13,274.2166190476192
1063.43,267.0850952380954
1065.72,256.68471428571445
1068.01,295.2047142857145
1070.3,351.4049523809526
1072.59,371.14090476190495
1074.87,380.41100000000023
1077.16,372.68933333333354
1079.44,352.92633333333356
1081.72,387.8351428571431
1084.0,462.36590476190514
1086.28,549.4216666666671
1088.56,686.3815714285719
1090.84,830.1005714285719
1093.11,934.6725238095244
1095.38,947.5243809523815
1097.65,871.1303809523812
1099.92,744.2027619047623
1102.19,609.3113809523812
1104.46,554.1684761904766
1106.72,507.7250000000003
1108.98,513.1217619047623
1111.24,571.2145238095243
1113.5,675.1441904761909
1115.76,746.0044761904767
1118.02,800.4129523809528
1120.28,785.7964761904766
1122.53,767.4869047619052
1124.78,710.0068571428575
1127.03,642.6878571428574
1129.28,571.2425714285718
1131.53,508.955666666667
1133.77,463.7304285714288
1136.02,441.4227142857145
1138.26,399.4126666666669
1140.5,361.36552380952406
1142.74,346.1373333333335
1144.98,341.4416190476192
1147.22,344.8962380952383
1149.45,339.54752380952397
1151.69,314.0142380952382
1153.92,298.67666666666685
1156.15,262.96257142857155
1158.38,221.58576190476205
1160.61,196.64095238095248
1162.83,152.17514285714293
1165.06,133.47414285714294
1167.28,154.39482857142866
1169.5,148.69865714285723
1171.72,117.05234285714292
1173.94,112.64642190476194
1176.16,74.29063380952383
1178.37,34.41402476190479
1180.58,25.254951904761924
1182.8,30.00419619047623
1185.01,57.424614761904834
1187.22,98.94531238095243
1189.42,96.61466666666671
1191.63,87.24332380952386
1193.84,80.78451428571434
1196.04,75.09638571428577
1198.24,79.9424047619048
1200.44,98.03781428571435
1202.64,94.24127619047626
1204.84,123.07801428571437
1207.03,121.69243333333338
1209.23,99.94325238095242
1211.42,63.64163333333338
1213.61,69.36050952380957
1215.8,64.57789523809528
1217.99,74.24770476190479
1220.18,51.18142857142859
1222.36,45.047461904761946
1224.55,59.84758571428577
1226.73,78.10750000000004
1228.91,88.92434761904764
1231.09,76.34758571428573
1233.27,60.09334761904766
1235.44,44.925314285714315
1237.62,53.08337619047623
1239.79,55.140889523809555
1241.96,49.67106761904763
1244.13,21.294711904761915
1246.3,27.29927142857145
1248.47,33.162636666666714
1250.64,72.31506000000007
1252.8,101.99623190476196
1254.96,102.35058761904766
1257.13,77.66533809523814
1259.29,92.56114761904769
1261.44,90.4679095238096
1263.6,107.67269047619055
1265.76,123.31960952380959
1267.91,113.41017142857149
1270.06,88.37414761904766
1272.22,85.45119047619052
1274.37,88.64224285714293
1276.51,99.42451428571437
1278.66,122.27509047619054
1280.81,127.33830476190482
1282.95,134.37680952380958
1285.09,131.77300000000008
1287.23,160.86095238095248
1289.37,179.21300000000008
1291.51,173.82974285714295
1293.65,151.75993809523817
1295.78,115.43275238095244
1297.92,100.13476666666675
1300.05,95.53350476190482
1302.18,95.24853809523816
1304.31,129.8522000000001
1306.44,162.0118380952382
1308.57,174.5848571428573
1310.69,202.23833333333343
1312.82,188.68752380952392
1314.94,183.2181904761906
1317.06,217.25980952380965
1319.18,241.00328571428588
1321.3,291.2583333333335
1323.41,311.6443333333335
1325.53,304.0189523809525
1327.64,305.42990476190494
1329.75,309.3060000000002
1331.87,311.3621428571431
1333.98,371.5981904761907
1336.08,394.20490476190497
1338.19,408.8966666666669
1340.3,404.57838095238117
1342.4,376.0596666666669
1344.5,322.4837619047621
1346.6,284.85047619047634
1348.7,232.54076190476206
1350.8,209.22138095238108
1352.9,224.08266666666685
1354.99,260.55323809523827
1357.09,286.0615714285716
1359.18,313.1312380952383
1361.27,312.90480952380966
1363.36,332.715904761905
1365.45,353.7069523809526
1367.54,380.49700000000024
1369.62,409.9428571428574
1371.7,438.0916666666669
1373.79,468.18152380952415
1375.87,533.9741428571431
1377.95,571.4690000000004
1380.03,577.7135714285718
1382.1,571.2312380952384
1384.18,489.11690476190506
1386.25,396.5605714285716
1388.33,323.9906666666668
1390.4,288.1682857142859
1392.47,268.61690476190495
1394.54,263.00295238095254
1396.6,252.56380952380965
1398.67,222.72776190476202
1400.74,202.35171428571445
1402.8,201.148761904762
1404.86,202.6424285714287
1406.92,207.3086190476192
1408.98,232.33671428571444
1411.04,235.3933333333335
1413.09,226.14438095238108
1415.15,195.9222857142858
1417.2,174.44119047619057
1419.25,157.08142857142866
1421.3,163.08023809523823
1423.35,166.8179523809525
1425.4,191.6748571428573
1427.45,199.7451904761906
1429.49,205.60004761904776
1431.54,199.85766666666677
1433.58,190.99361904761915
1435.62,167.48338095238105
1437.66,175.6120000000001
1439.7,164.71190476190486
1441.74,177.73509523809537
1443.77,178.87095238095247
1445.81,176.83314285714297
1447.84,192.76366666666678
1449.87,215.5664285714287
1451.9,216.81223809523826
1453.93,256.7386190476192
1455.96,258.1540476190478
1457.98,237.96233333333348
1460.01,235.1628571428573
1462.03,238.89757142857158
1464.05,240.78509523809544
1466.07,246.06242857142874
1468.09,271.53852380952395
1470.11,257.16476190476203
1472.13,255.70219047619065
1474.14,254.43561904761918
1476.16,249.1739523809525
1478.17,242.15431428571443
1480.18,230.42388571428583
1482.19,194.41034285714295
1484.2,167.1602095238096
1486.21,140.52981904761916
1488.21,132.4232000000001
1490.22,133.45877142857148
1492.22,120.63562857142864
1494.22,125.4766857142858
1496.22,126.36222380952387
1498.22,125.81507619047625
1500.22,130.83467809523813
1502.22,88.7059066666667
1504.21,71.47551809523814
1506.21,68.33318857142861
1508.2,65.56395142857149
1510.19,73.45264000000006
1512.18,89.37955428571432
1514.17,86.39153142857147
1516.16,65.53548142857146
1518.14,51.95353428571431
1520.13,55.54983761904766
1522.11,62.51412476190482
1524.09,70.46483380952387
1526.07,80.97277428571431
1528.05,58.46591904761907
1530.03,38.61041904761908
1532.01,37.07251904761909
1533.98,72.56574285714294
1535.96,107.85170000000008
1537.93,136.59667619047627
1539.9,116.181180952381
1541.87,92.65234761904767
1543.84,94.20060952380962
1545.81,135.96785238095248
1547.78,180.66852380952395
1549.74,206.54030476190485
1551.7,201.48757142857153
1553.67,191.55761904761917
1555.63,183.94128571428584
1557.59,186.11385714285726
1559.55,194.12319047619062
1561.5,197.0641904761906
1563.46,224.2223809523811
1565.41,220.97876190476202
1567.37,198.57138095238105
1569.32,179.8092857142858
1571.27,158.69252380952392
1573.22,144.3640000000001
1575.17,162.6334761904763
1577.11,182.35809523809536
1579.06,194.01380952380967
1581.0,195.79104761904773
1582.95,187.49938095238105
1584.89,173.13895238095247
1586.83,166.99561904761913
1588.77,180.35523809523818
1590.7,175.59890476190486
1592.64,189.44085714285728
1594.58,201.52414285714272
1596.51,202.2296428571427
1598.44,182.05735714285697
