Raman Shift,Processed Intensity
331.095,48.151997619047506
333.909,-65.03689285714285
336.721,-86.6302857142856
339.531,-57.18928095238096
342.339,-45.29969619047619
345.145,-11.593793809523838
347.949,-25.36668285714287
350.751,-47.00647285714286
353.55,-18.612611428571423
356.348,-4.186717619047607
359.144,42.367187619047684
361.937,60.76700047619051
364.729,82.16148190476196
367.518,86.36853285714295
370.306,141.35109619047637
373.091,280.0268004761908
375.874,442.8389266666669
378.656,525.9951904761907
381.435,517.990761904762
384.212,396.7042380952382
386.988,252.72969523809536
389.761,147.71112857142865
392.532,82.19879047619054
395.301,60.220909523809574
398.068,59.521619047619104
400.833,63.08497619047624
403.596,69.94370000000004
406.358,58.751457142857184
409.117,58.44885238095241
411.874,47.31120476190481
414.629,72.94849047619056
417.382,92.3052190476191
420.133,114.75578095238103
422.882,119.8183714285715
425.629,169.2029809523811
428.374,193.66781428571446
431.117,294.06750476190496
433.858,347.92452380952403
436.597,354.8574285714287
439.334,283.4374285714287
442.069,238.4275238095239
444.802,175.9243333333335
447.533,207.93009523809542
450.262,266.30476190476213
452.989,321.6711428571431
455.714,353.8899523809526
458.438,350.53747619047635
461.159,341.57090476190496
463.878,296.6624761904763
466.595,261.0554761904763
469.31,223.7562857142858
472.024,179.7712857142858
474.735,153.91661904761918
477.444,190.6276666666668
480.152,204.29257142857156
482.857,242.68028571428587
485.561,257.41761904761916
488.262,261.4169047619049
490.962,295.5427142857145
493.659,311.3269523809525
496.355,268.92012380952394
499.048,207.90169523809533
501.74,134.04129523809533
504.43,100.48982857142866
507.118,112.77862857142868
509.804,162.43936190476205
512.488,246.48017142857157
515.17,306.71809523809543
517.85,331.25561904761923
520.528,314.9580476190477
523.204,237.02261904761912
525.878,161.694761904762
528.551,150.07731428571438
531.221,140.2245333333334
533.89,121.42885238095245
536.556,94.84004285714288
539.221,55.46430952380955
541.883,32.87971904761912
544.544,90.66365238095248
547.203,134.7744333333334
549.86,159.02775238095245
552.515,153.09548571428576
555.168,136.74514285714292
557.819,120.55338095238105
560.469,168.76333333333343
563.116,197.47480952380963
565.761,208.21661904761916
568.405,181.61200000000008
571.047,157.6652095238096
573.687,110.80894761904769
576.324,107.04732380952389
578.96,110.33590952380959
581.594,107.77384761904771
584.227,137.3166142857144
586.857,193.1576380952382
589.485,187.10961904761916
592.112,209.55652380952392
594.737,209.3104952380953
597.359,124.08844761904768
599.98,98.27327619047625
602.599,92.39121904761907
605.216,52.111133333333406
607.831,93.76860952380959
610.445,113.88944285714288
613.056,88.28499047619056
615.666,122.9091000000001
618.274,144.14465714285723
620.88,140.80228095238107
623.484,174.3594000000001
626.086,181.19828571428584
628.686,198.41519047619062
631.284,228.24857142857155
633.881,234.69909523809537
636.476,241.43352380952393
639.068,240.16633333333345
641.659,216.13571428571439
644.249,177.1510476190477
646.836,140.92558095238104
649.421,103.506280952381
652.005,78.89226190476195
654.587,56.987080952380985
657.166,46.313219047619086
659.745,48.440804761904815
662.321,88.1769428571429
664.895,112.61515238095245
667.468,107.1341952380953
670.038,105.58865714285719
672.607,94.92850000000006
675.174,68.72259047619052
677.739,86.72945238095245
680.303,112.89852380952387
682.864,113.55991428571436
685.424,112.09093333333337
687.982,96.77385238095242
690.538,64.08104857142861
693.092,47.484681428571456
695.645,23.409365714285723
698.195,27.993686190476218
700.744,36.70970847619051
703.291,36.838782523809556
705.836,44.85261076190477
708.38,43.36569842857145
710.921,38.611498380952426
713.461,52.775613476190514
715.999,72.85341323809529
718.535,68.93525238095242
721.069,83.58773809523817
723.602,109.2345476190477
726.133,142.2991571428572
728.662,144.0147952380953
731.189,130.85265238095243
733.714,110.8075095238096
736.238,100.44631904761913
738.759,106.19238571428579
741.279,128.61232857142866
743.798,126.65343809523817
746.314,135.64452380952392
748.829,151.7235238095239
751.342,161.60020952380964
753.853,155.03180476190485
756.362,147.96639047619055
758.869,101.97088571428574
761.375,84.70819523809527
763.879,44.69806666666668
766.381,21.507876190476203
768.882,13.277042857142886
771.38,37.14485714285719
773.877,59.155780952381015
776.372,102.02122380952386
778.866,110.92875238095243
781.357,110.6852714285715
783.847,89.05029047619053
786.335,86.25962380952387
788.821,102.45437619047628
791.306,140.10878571428583
793.789,168.55464285714297
796.27,184.36182857142867
798.749,163.7195238095239
801.227,160.6264761904763
803.702,165.03457142857152
806.176,170.56152380952392
808.649,161.63580952380963
811.119,183.11404761904777
813.588,205.4718571428573
816.055,206.7093333333334
818.521,212.635961904762
820.984,164.63267619047625
823.446,130.79544761904774
825.906,143.31508571428583
828.365,159.1444000000001
830.821,146.42705714285722
833.276,166.35405714285722
835.729,132.54547619047628
838.181,138.33615238095248
840.631,127.91743809523817
843.079,129.19578095238103
845.525,123.07680952380959
847.97,116.75270000000005
850.412,92.03457619047624
852.854,87.30541428571432
855.293,62.61441428571435
857.731,83.1542714285715
860.167,112.30744285714292
862.601,119.26677619047625
865.034,103.5105190476191
867.465,103.61251904761912
869.894,98.2415857142858
872.321,133.73351904761915
874.747,157.7573380952382
877.171,188.88718095238107
879.594,177.22080952380963
882.014,168.3324761904763
884.433,173.84333333333348
886.851,202.94685714285725
889.266,209.93157142857154
891.68,225.41933333333347
894.092,200.65123809523823
896.503,195.0110952380954
898.912,216.40657142857157
901.319,214.31680952380964
903.724,221.07814285714295
906.128,206.78852380952392
908.53,187.45133333333345
910.931,183.68819047619056
913.329,193.35990476190483
915.726,169.56423809523818
918.122,159.63761904761913
920.516,156.20226666666676
922.908,134.92800476190482
925.298,143.15077142857152
927.687,134.2549952380953
930.074,121.48134285714292
932.459,101.73771904761911
934.843,121.3606952380953
937.225,114.82910000000007
939.605,120.5743523809524
941.984,64.78988095238097
944.361,51.57347619047623
946.736,57.49957619047626
949.11,84.09491904761911
951.482,100.45729523809527
953.853,97.16078095238097
956.222,60.017490476190524
958.589,56.02974761904767
960.954,67.58104285714289
963.318,73.34049523809529
965.68,77.40564761904766
968.041,84.20733238095242
970.4,59.319134761904785
972.757,53.885989523809556
975.113,36.957540000000016
977.467,22.63091904761907
979.819,13.241307619047632
982.17,24.790410476190505
984.519,34.27995095238101
986.866,79.80667238095245
989.212,109.895661904762
991.556,156.4531761904763
993.899,189.6232380952382
996.24,227.45476190476208
998.579,246.75847619047636
1000.92,255.3446666666668
1003.25,219.8335238095239
1005.59,200.8447142857144
1007.92,180.99797142857153
1010.25,158.7702142857144
1012.58,137.40004285714292
1014.91,115.79260952380957
1017.24,99.4249095238096
1019.56,79.01121428571433
1021.88,104.74258571428578
1024.2,111.76191428571435
1026.52,138.40246666666678
1028.84,149.75980476190486
1031.16,195.50049523809537
1033.48,187.1007142857144
1035.79,222.7984285714287
1038.1,197.4982857142858
1040.41,203.58071428571438
1042.72,168.5220476190477
1045.03,195.60728571428587
1047.33,213.69323809523826
1049.64,257.44614285714306
1051.94,257.96057142857154
1054.24,262.3789523809525
1056.54,227.70080952380965
1058.84,224.3061904761906
1061.13,214.76576190476206
1063.43,229.55514285714304
1065.72,244.3400952380954
1068.01,270.7867142857145
1070.3,290.846523809524
1072.59,318.9944761904764
1074.87,323.42019047619067
1077.16,319.07504761904784
1079.44,315.38680952380975
1081.72,340.4497619047621
1084.0,366.5009047619051
1086.28,459.0628095238099
1088.56,583.5631904761908
1090.84,716.7626190476195
1093.11,839.6599047619053
1095.38,868.2063809523814
1097.65,798.8294761904765
1099.92,677.1948095238098
1102.19,548.8725238095241
1104.46,477.48042857142883
1106.72,428.1122380952384
1108.98,431.90952380952416
1111.24,488.53819047619083
1113.5,562.4254761904765
1115.76,613.2844761904765
1118.02,659.1138095238099
1120.28,657.9121904761909
1122.53,677.9638095238099
1124.78,680.6013809523813
1127.03,627.5374285714288
1129.28,552.2473333333336
1131.53,465.68200000000024
1133.77,394.07842857142884
1136.02,358.9113333333335
1138.26,360.6085714285716
1140.5,334.78752380952403
1142.74,350.01900000000023
1144.98,354.82552380952404
1147.22,340.2058571428573
1149.45,312.9206190476192
1151.69,300.96900000000016
1153.92,256.5403809523811
1156.15,231.20528571428582
1158.38,188.05797619047627
1160.61,145.90696666666673
1162.83,91.51307619047624
1165.06,75.87560476190481
1167.28,59.946109523809575
1169.5,72.96179333333338
1171.72,56.92192428571431
1173.94,59.111492476190506
1176.16,37.72028842857144
1178.37,23.652457333333345
1180.58,9.764539666666677
1182.8,5.1512020952381015
1185.01,19.33580319047623
1187.22,40.74643200000002
1189.42,44.04938095238097
1191.63,46.24430000000003
1193.84,57.378490476190514
1196.04,54.92790000000005
1198.24,74.1304047619048
1200.44,74.36674285714291
1202.64,78.49392380952389
1204.84,89.1309714285715
1207.03,123.27750000000006
1209.23,135.02896666666675
1211.42,137.3376571428572
1213.61,120.53684285714291
1215.8,99.7217047619048
1217.99,95.98774476190482
1220.18,89.04881857142861
1222.36,67.14335619047623
1224.55,45.557024285714306
1226.73,37.81373238095242
1228.91,62.86588523809532
1231.09,116.1422733333334
1233.27,133.97599047619053
1235.44,112.3195666666667
1237.62,91.03014285714292
1239.79,92.20309047619055
1241.96,97.5528952380953
1244.13,101.55580476190482
1246.3,94.4022666666667
1248.47,72.8544190476191
1250.64,104.24561904761914
1252.8,144.90890476190484
1254.96,147.7493952380953
1257.13,122.05281904761908
1259.29,95.96226190476196
1261.44,73.66843809523816
1263.6,87.88557619047627
1265.76,125.37551428571439
1267.91,129.56697619047625
1270.06,124.45981904761913
1272.22,140.19742380952388
1274.37,162.06553333333343
1276.51,176.0640523809525
1278.66,191.62217142857153
1280.81,173.8824761904763
1282.95,174.27361904761915
1285.09,197.46261904761917
1287.23,232.59200000000016
1289.37,236.75733333333343
1291.51,227.72090476190488
1293.65,212.9111904761906
1295.78,201.75704761904777
1297.92,208.1631904761906
1300.05,196.9391904761906
1302.18,181.13304761904774
1304.31,178.64971428571442
1306.44,197.87004761904777
1308.57,232.60395238095253
1310.69,256.75600000000014
1312.82,270.3266190476192
1314.94,306.9824761904764
1317.06,319.24771428571444
1319.18,345.4558095238097
1321.3,373.3212380952383
1323.41,358.4155714285716
1325.53,384.69109523809556
1327.64,424.62442857142884
1329.75,451.8345238095241
1331.87,474.1314761904764
1333.98,508.5626666666669
1336.08,484.31914285714316
1338.19,489.3055714285717
1340.3,476.2842857142859
1342.4,429.8741428571431
1344.5,382.2660952380955
1346.6,360.4124285714288
1348.7,342.88528571428594
1350.8,332.73214285714306
1352.9,341.6199523809526
1354.99,334.8344285714288
1357.09,326.566523809524
1359.18,327.8160476190478
1361.27,344.1551904761907
1363.36,382.82195238095267
1365.45,434.4831428571431
1367.54,467.8054285714289
1369.62,494.4561904761907
1371.7,507.8162380952384
1373.79,527.0291428571431
1375.87,567.1424285714289
1377.95,602.1083333333337
1380.03,581.7844761904765
1382.1,564.1711428571432
1384.18,523.1260000000003
1386.25,470.07776190476216
1388.33,407.69300000000027
1390.4,375.11500000000024
1392.47,328.72485714285733
1394.54,315.3322857142859
1396.6,313.2234761904764
1398.67,264.20800000000014
1400.74,253.14347619047635
1402.8,216.31561904761918
1404.86,205.248523809524
1406.92,222.32352380952395
1408.98,237.20747619047637
1411.04,233.23395238095253
1413.09,239.83204761904778
1415.15,231.04914285714298
1417.2,243.83804761904776
1419.25,250.7705714285716
1421.3,259.84695238095253
1423.35,248.78161904761916
1425.4,232.05157142857158
1427.45,227.46623809523823
1429.49,239.02561904761916
1431.54,221.01619047619064
1433.58,206.19980952380965
1435.62,184.3862380952382
1437.66,193.95709523809538
1439.7,194.15052380952395
1441.74,206.15709523809537
1443.77,190.45361904761916
1445.81,180.8497142857144
1447.84,206.20276190476207
1449.87,245.08471428571443
1451.9,266.44804761904777
1453.93,281.72157142857156
1455.96,274.2868571428573
1457.98,238.33466666666678
1460.01,219.43652380952395
1462.03,224.8310952380954
1464.05,256.2324761904764
1466.07,287.02219047619064
1468.09,306.48657142857166
1470.11,307.1970000000002
1472.13,304.15385714285736
1474.14,288.9767142857145
1476.16,285.28447619047637
1478.17,249.50642857142867
1480.18,205.0715714285716
1482.19,190.45595238095248
1484.2,181.18414285714294
1486.21,136.78016666666676
1488.21,141.52986666666675
1490.22,125.19570000000006
1492.22,123.44461904761913
1494.22,129.27686666666673
1496.22,113.55013809523815
1498.22,90.69322380952389
1500.22,105.08745523809529
1502.22,67.54265523809528
1504.21,70.39243428571432
1506.21,59.82771619047621
1508.2,40.515472380952424
1510.19,53.694174285714325
1512.18,66.88796952380953
1514.17,42.430523809523834
1516.16,39.22694761904763
1518.14,25.27757142857144
1520.13,27.439847619047654
1522.11,48.28545238095241
1524.09,56.814633333333354
1526.07,44.218100000000014
1528.05,40.54370666666669
1530.03,19.696420952380965
1532.01,14.72403714285717
1533.98,37.81731238095242
1535.96,63.97623714285719
1537.93,84.058120952381
1539.9,98.30119238095241
1541.87,66.84844285714287
1543.84,62.652271428571495
1545.81,74.71298095238102
1547.78,89.84004285714293
1549.74,120.41469047619054
1551.7,130.3890571428572
1553.67,124.38234761904772
1555.63,145.39465714285723
1557.59,149.56866666666673
1559.55,158.47599047619056
1561.5,142.40246666666673
1563.46,134.8239238095239
1565.41,120.83580952380957
1567.37,105.0572952380953
1569.32,109.48800000000008
1571.27,133.65187619047626
1573.22,131.8823238095239
1575.17,166.08391428571437
1577.11,163.06601428571435
1579.06,123.01908095238103
1581.0,112.65701428571435
1582.95,96.26568095238102
1584.89,98.41652857142866
1586.83,107.87130000000005
1588.77,88.58222380952384
1590.7,70.35854285714292
1592.64,98.24761428571436
1594.58,125.84475238095212
1596.51,132.24510952380894
1598.44,95.94861904761825
