Raman Shift,Processed Intensity
331.095,50.84847926295697
333.909,-1.8788357835674105
336.721,-3.5436295393647015
339.531,28.854103076496358
342.339,65.57628206870504
345.145,121.81341411332915
347.949,184.27983573397114
350.751,185.59467076365763
353.55,194.61516875910365
356.348,215.15099579593607
359.144,241.0594776448629
361.937,237.95989056689723
364.729,284.75727591810664
367.518,293.64244523055777
370.306,328.90150910279317
373.091,380.3444537093487
375.874,463.68609826266675
378.656,461.0699096178614
381.435,433.06800735366187
384.212,342.44307361528354
386.988,233.3388343858428
389.761,139.1848264720652
392.532,82.93449782334119
395.301,41.589022136485255
398.068,17.768732508118774
400.833,14.046459848963423
403.596,0.13801415526950223
406.358,-5.28828478889227
409.117,-5.230646655767487
411.874,-34.21094504072789
414.629,-48.84613825667611
417.382,-38.84826217974887
420.133,-14.881570405182174
422.882,68.67555695366627
425.629,161.63536574836462
428.374,215.7150020773861
431.117,321.5365088021558
433.858,405.05539349167657
436.597,452.98919636714527
439.334,479.4841534846805
442.069,474.3532884894885
444.802,450.45736151286656
447.533,453.22867521209264
450.262,484.48059509600307
452.989,501.40754604106314
455.714,515.2040564264762
458.438,544.540945126445
461.159,523.9462704071934
463.878,473.9005645382749
466.595,465.55111602292845
469.31,453.0929184951019
472.024,428.53057199742943
474.735,447.1068509258648
477.444,434.8265100695585
480.152,442.6943763650206
482.857,487.4296311264761
485.561,500.132473228608
488.262,505.1888775273819
490.962,555.1277342332678
493.659,582.0970359034977
496.355,641.8162549105305
499.048,698.0525304343055
501.74,702.7635221211735
504.43,746.4783589809235
507.118,811.8214454266545
509.804,898.5600768384652
512.488,1025.080626555702
515.17,1144.2456852501714
517.85,1227.584533632672
520.528,1318.7217103976282
523.204,1366.3293896915243
525.878,1407.1749966765856
528.551,1467.3116802373052
531.221,1511.3640237822337
533.89,1512.7661369981183
536.556,1500.4759380802657
539.221,1450.7370550105047
541.883,1412.269298263731
544.544,1404.5543716096972
547.203,1417.4072972005106
549.86,1405.7383168486003
552.515,1443.1243171142496
555.168,1492.0469210597757
557.819,1547.6543895275272
560.469,1582.9520938464525
563.116,1648.564417110098
565.761,1707.7347506926963
568.405,1772.2778717176302
571.047,1840.3418443354349
573.687,1859.0746829065424
576.324,1868.1005389935635
578.96,1908.2339835916664
581.594,1951.24190840657
584.227,1955.2244747515938
586.857,1906.472252920897
589.485,1811.5138377531994
592.112,1775.0682261002676
594.737,1720.663860962064
597.359,1675.3529137171372
599.98,1633.9969949244337
602.599,1521.4576270298835
605.216,1459.02481231107
607.831,1491.036077012392
610.445,1510.9717059564018
613.056,1584.8833104884834
615.666,1691.7747773739093
618.274,1806.3641700758512
620.88,1990.417058604814
623.484,2240.6036588918846
626.086,2440.308353114358
628.686,2612.3915909737457
631.284,2715.0946481166484
633.881,2758.944384555624
636.476,2730.1341935662304
639.068,2642.047807726955
641.659,2419.3069144829287
644.249,2146.485438376327
646.836,1823.633347086287
649.421,1486.4195050878666
652.005,1176.750717787208
654.587,922.486013751924
657.166,673.436641227207
659.745,519.5089217947948
662.321,387.9423421271781
664.895,289.50002669418154
667.468,227.18301999335335
670.038,186.13504497083886
672.607,153.6901185851134
675.174,147.99159594214052
677.739,136.61121443053526
680.303,121.73956642816484
682.864,95.47181010398663
685.424,42.42671355321636
687.982,28.50855607535368
690.538,14.90712469030268
693.092,34.14533432191729
695.645,17.317327316157844
698.195,18.564669861877064
700.744,12.504932960081078
703.291,1.5650371585384164
705.836,-14.113972184830345
708.38,4.989756438233599
710.921,8.874133620998691
713.461,32.20361854686644
715.999,53.40447090888347
718.535,67.33143140068705
721.069,70.17249744554147
723.602,76.6870322587074
726.133,74.15815962409215
728.662,46.20230152804379
731.189,19.24538245981057
733.714,16.903795616761727
736.238,24.460607204847747
738.759,22.103665500971147
741.279,6.592281343922878
743.798,-40.50466280324372
746.314,-77.95155617179898
748.829,-72.03652205353865
751.342,-33.99997540508775
753.853,-25.177474165469448
756.362,-13.475911143053963
758.869,-4.897324950129587
761.375,-27.919853794612663
763.879,-28.25964165270716
766.381,-29.870839679662822
768.882,-55.04084571577732
771.38,-79.72363903048108
773.877,-47.73025792357885
776.372,-40.01451542171344
778.866,-7.577762593887201
781.357,21.959681466358234
783.847,8.215671087330975
786.335,-11.38233882014356
788.821,45.25984868367232
791.306,106.95079020428648
793.789,204.73721012602982
796.27,318.0944753917752
798.749,385.97421313979703
801.227,483.75669024539775
803.702,612.6317642911076
806.176,714.6465012035451
808.649,753.6099357474232
811.119,745.4264034481175
813.588,688.8098248951987
816.055,623.80751385548
818.521,548.5144615765353
820.984,503.5495258521305
823.446,416.6744772305087
825.906,326.46066427029064
828.365,276.2413930820908
830.821,231.49287829869854
833.276,230.35805118812095
835.729,228.93227252852103
838.181,202.45380738792983
840.631,154.30382371347423
843.079,112.19686711108443
845.525,75.8951451490093
847.97,89.30376404229628
850.412,78.2326320039324
852.854,70.11074354837092
855.293,48.224273318867745
857.731,33.62133658148832
860.167,44.30246400482656
862.601,46.363457392101736
865.034,71.5191977942086
867.465,64.10364409895601
869.894,39.92697447745513
872.321,56.0374897352699
874.747,74.81684999690015
877.171,62.31340662836101
879.594,77.76601035023805
882.014,69.55639077931664
884.433,47.73296454163892
886.851,82.24892909985374
889.266,88.20035658056304
891.68,76.68333522071407
894.092,75.88920605208523
896.503,91.24741863339568
898.912,122.23505344908062
901.319,151.18634430806515
903.724,149.72124836158628
906.128,135.364492311488
908.53,124.92652338042899
910.931,118.36065075828083
913.329,159.90590133423848
915.726,179.5155897146392
918.122,180.95255490745558
920.516,160.5510636734507
922.908,163.3120472106657
925.298,157.18881402937996
927.687,153.6584771127841
930.074,159.19814298241636
932.459,141.33252933502854
934.843,135.2053922032619
937.225,177.53190549727924
939.605,210.02723102258778
941.984,229.97794564070955
944.361,244.00394462033773
946.736,229.34415451229916
949.11,214.28510316737402
951.482,189.73234689697165
953.853,168.87713572904568
956.222,169.4821262830551
958.589,163.30995178778494
960.954,139.6470301944073
963.318,129.30356276573548
965.68,111.80400885595236
968.041,123.244227357
970.4,132.81528481164196
972.757,124.85107305033216
975.113,76.35211730428273
977.467,28.50938431851955
979.819,-7.390957154097123
982.17,-1.1103949064831795
984.519,7.541925311923478
986.866,30.471102380768116
989.212,45.82028704256163
991.556,55.73258513427345
993.899,47.06534177130288
996.24,52.39013981716198
998.579,36.27851263888442
1000.92,24.159085433851942
1003.25,34.79376417567801
1005.59,36.039638845798436
1007.92,10.89660095077943
1010.25,5.840675325334814
1012.58,17.58592336392303
1014.91,43.32253783361011
1017.24,73.43112876237456
1019.56,67.05415394448346
1021.88,47.23877801730032
1024.2,52.60354106189743
1026.52,83.5764557751013
1028.84,98.01405702248712
1031.16,100.72521329613937
1033.48,78.4235096009811
1035.79,92.34629700777214
1038.1,128.39755172991636
1040.41,166.7669246764558
1042.72,162.12021957649404
1045.03,148.2660615798177
1047.33,144.0130420479809
1049.64,117.69353001206946
1051.94,114.97319791617383
1054.24,118.08911878943513
1056.54,94.13548246570986
1058.84,115.15883561275677
1061.13,131.44379795190207
1063.43,129.32258800151158
1065.72,153.98454882047122
1068.01,165.38091184690188
1070.3,133.3676559749697
1072.59,131.94360472692802
1074.87,131.77423771087797
1077.16,133.23931160233042
1079.44,153.05190969719933
1081.72,178.87749146479314
1084.0,201.3815135293719
1086.28,258.8960982707572
1088.56,363.2295595677938
1090.84,434.1425952084828
1093.11,479.1101935858244
1095.38,485.2263975365181
1097.65,445.8233538939364
1099.92,412.5665535172984
1102.19,360.1691189398837
1104.46,310.05847296962406
1106.72,273.75729300399576
1108.98,294.45494153537265
1111.24,323.9122299897226
1113.5,370.08046827958515
1115.76,410.7681334046674
1118.02,421.6884904333929
1120.28,451.98340396064714
1122.53,483.6519114702742
1124.78,482.07403479281425
1127.03,465.7250677537254
1129.28,436.9851019168382
1131.53,383.9485523278129
1133.77,344.04320706711906
1136.02,307.2207053744478
1138.26,311.0993967255022
1140.5,355.63100943259906
1142.74,398.6720811500295
1144.98,455.6982465222759
1147.22,514.4709057846158
1149.45,527.7038933637314
1151.69,518.6349083830751
1153.92,473.54932612061066
1156.15,424.2087713713215
1158.38,358.4225489525793
1160.61,322.7619313523642
1162.83,252.89349399653793
1165.06,192.6743552780233
1167.28,164.86646420503098
1169.5,142.94612614452626
1171.72,117.43733808950333
1173.94,123.53083821198243
1176.16,90.03648874933742
1178.37,80.90708746204677
1180.58,63.762179091449525
1182.8,15.364247769877693
1185.01,-3.428900093021184
1187.22,-1.187943400155973
1189.42,-8.816806337812068
1191.63,-1.1717044155832355
1193.84,8.55790460910589
1196.04,-2.198297788730315
1198.24,-6.724823828828903
1200.44,-20.591806717465715
1202.64,-17.178809122053963
1204.84,10.468034306614072
1207.03,45.921729293105955
1209.23,66.94584670198356
1211.42,97.3040436233864
1213.61,103.76006064909643
1215.8,129.26819533907906
1217.99,158.6875852118369
1220.18,142.59172883000406
1222.36,154.7446735526073
1224.55,174.62482233494393
1226.73,172.37731195702963
1228.91,163.24258172823738
1231.09,150.9373231443219
1233.27,128.2259057349138
1235.44,163.39656481577913
1237.62,223.83282733632132
1239.79,277.3944615366004
1241.96,327.4174742234063
1244.13,395.99982233204264
1246.3,493.57283877382633
1248.47,665.0917059026333
1250.64,871.7021194576419
1252.8,1086.1212382203598
1254.96,1349.304347957364
1257.13,1595.6829539344676
1259.29,1832.8314448594624
1261.44,2039.228994920085
1263.6,2142.688132488664
1265.76,2119.25949930295
1267.91,2046.6604191707625
1270.06,1877.5129904841606
1272.22,1653.3917025431406
1274.37,1446.3948614031415
1276.51,1277.1445871511137
1278.66,1146.2153826101721
1280.81,1051.5627020442348
1282.95,962.7134246245823
1285.09,868.0515659916355
1287.23,774.2468469596074
1289.37,711.016595554483
1291.51,705.5066966710565
1293.65,714.9582560156805
1295.78,756.4695021442503
1297.92,808.6148313573294
1300.05,842.9209954524167
1302.18,900.5337656666889
1304.31,984.3131680483157
1306.44,1067.4525283515827
1308.57,1138.668945503447
1310.69,1186.2509079272318
1312.82,1219.1059098663272
1314.94,1284.4747343745594
1317.06,1349.6933553541721
1319.18,1407.2881729271471
1321.3,1413.2617249969962
1323.41,1378.6641130962726
1325.53,1307.8310949007491
1327.64,1228.3364624578717
1329.75,1095.372991843793
1331.87,996.8952975823127
1333.98,853.8103061114371
1336.08,732.8343959166064
1338.19,646.3029186162998
1340.3,564.4082914762198
1342.4,475.96189944727985
1344.5,409.82266387026084
1346.6,318.70656356142035
1348.7,263.09139399333753
1350.8,247.5977169519556
1352.9,219.03647686028853
1354.99,218.4089980545
1357.09,177.47841063143142
1359.18,148.34107629612936
1361.27,117.99801420938229
1363.36,122.16442207334103
1365.45,124.74586388381749
1367.54,155.1239814921032
1369.62,155.82315854773833
1371.7,154.367660631759
1373.79,144.28163253279627
1375.87,145.75576218984634
1377.95,162.7901351112273
1380.03,189.76566022210181
1382.1,186.7297814262979
1384.18,161.68218916811702
1386.25,138.47957961320435
1388.33,96.21660430558859
1390.4,69.79729601520967
1392.47,39.98268506163322
1394.54,4.057463256812753
1396.6,-11.217637866438508
1398.67,-12.653464766380239
1400.74,3.272321791622744
1402.8,42.08191391857417
1404.86,47.01164141014442
1406.92,26.107209290006267
1408.98,13.17607821031379
1411.04,14.025559137894106
1413.09,90.79614879397514
1415.15,178.913914087693
1417.2,261.5666875288912
1419.25,359.75169121235217
1421.3,425.08506556392854
1423.35,482.27806475334137
1425.4,523.0894425831802
1427.45,489.0873621874132
1429.49,430.07797239657407
1431.54,353.72446029342063
1433.58,268.6899132924009
1435.62,231.39922883815848
1437.66,210.80102410404106
1439.7,182.41525997632107
1441.74,175.28562694318248
1443.77,147.9319309837024
1445.81,134.63581279017149
1447.84,151.9645622285043
1449.87,180.39017089388335
1451.9,192.81314657117196
1453.93,248.61013721912718
1455.96,289.82441209746844
1457.98,323.30872384633494
1460.01,405.29674199430156
1462.03,521.0221055140198
1464.05,702.0517610921397
1466.07,951.5716823516123
1468.09,1238.9583033597082
1470.11,1555.9213807074652
1472.13,1930.789712731997
1474.14,2278.368287310228
1476.16,2619.7954296526314
1478.17,2837.9237596207786
1480.18,2894.9392442829803
1482.19,2770.5992980889787
1484.2,2494.566121139874
1486.21,2129.5971803152033
1488.21,1748.545214209536
1490.22,1348.9296666404996
1492.22,1016.5557392044245
1494.22,744.6096343081701
1496.22,537.325226772394
1498.22,402.9364497205172
1500.22,291.77253761056227
1502.22,193.40088831460025
1504.21,150.24611567439365
1506.21,108.06624491418233
1508.2,91.71462233918305
1510.19,70.66372979599055
1512.18,45.19566579965408
1514.17,41.30691237503038
1516.16,30.99405427909096
1518.14,30.206164889900947
1520.13,35.70195400035391
1522.11,18.383106088103204
1524.09,-2.3247623668898996
1526.07,-29.519716993375823
1528.05,-39.72826249698278
1530.03,-19.09581415357502
1532.01,11.803779850037017
1533.98,19.77775924869229
1535.96,30.347780010047245
1537.93,24.22610097198435
1539.9,31.553675241922974
1541.87,42.28109873899234
1543.84,67.69241587905549
1545.81,76.6908300216462
1547.78,94.84631867880898
1549.74,138.39562967632287
1551.7,173.67084874349257
1553.67,217.43272900770626
1555.63,249.63259191756288
1557.59,283.7932757850522
1559.55,301.8186557562958
1561.5,312.8984018775361
1563.46,318.1746419230208
1565.41,328.4086242228875
1567.37,326.5521423958112
1569.32,308.03324579593755
1571.27,255.56575948361774
1573.22,172.86356610092434
1575.17,111.54536393762669
1577.11,105.70609166384816
1579.06,147.0597816341392
1581.0,151.7490798582262
1582.95,155.86905168604335
1584.89,134.65765415943088
1586.83,125.40049407811739
1588.77,136.62130035141604
1590.7,147.08192015944383
1592.64,124.11564844767031
1594.58,95.91293837385206
1596.51,65.56901651687008
1598.44,38.41721237127035
