Raman Shift,Processed Intensity
331.095,96.49632633944111
333.909,46.05100378659699
336.721,70.93480449869458
339.531,132.48107145530412
342.339,173.09459549988696
345.145,175.34686308127948
347.949,192.76178018562587
350.751,193.43472960166037
353.55,199.88972342408124
356.348,241.46036508074394
359.144,279.289858978897
361.937,306.95006777046365
364.729,331.77485533161735
367.518,301.1458106947389
370.306,309.7303529327546
373.091,344.24364556729097
375.874,416.59146335779315
378.656,443.6321067096733
381.435,430.46212560629147
384.212,312.22585306472774
386.988,194.0677957344219
389.761,77.60883401960655
392.532,3.565279344617011
395.301,-30.870163818910896
398.068,-22.218864496257993
400.833,-12.00196984907825
403.596,-22.311827476164126
406.358,-46.33579109941047
409.117,-47.40383708483159
411.874,-45.13142160834332
414.629,-27.27662925034292
417.382,-5.644946624882323
420.133,22.339291531710387
422.882,39.15669093405313
425.629,100.14515705872418
428.374,167.7855904078997
431.117,271.08282438078686
433.858,354.2322876824269
436.597,429.4771429229895
439.334,422.6797109313329
442.069,429.7500379257185
444.802,457.21731982736947
447.533,482.4679932407107
450.262,514.26954071932
452.989,561.1038198413939
455.714,565.0242018090489
458.438,565.1317576666502
461.159,510.95620642391077
463.878,461.4082917504229
466.595,415.5893015273282
469.31,410.7434445418594
472.024,411.0197509913919
474.735,415.8530206065516
477.444,371.4400088695529
480.152,375.1203751373064
482.857,351.61477362166033
485.561,328.07246817916894
488.262,346.9284709103863
490.962,386.6654426639243
493.659,426.19464115954815
496.355,513.6178214922297
499.048,566.9415175885788
501.74,605.267514139478
504.43,689.8404613898465
507.118,787.6192994522216
509.804,854.6105873822394
512.488,966.963737016008
515.17,1062.3995801408337
517.85,1161.4484594754576
520.528,1261.6407006026766
523.204,1361.1732743781527
525.878,1392.814554577316
528.551,1427.0471707803708
531.221,1455.1156231620726
533.89,1481.8834210910322
536.556,1481.5473645861566
539.221,1471.1613495826282
541.883,1402.9220779597727
544.544,1357.169053283229
547.203,1348.3845765471028
549.86,1370.050884773303
552.515,1420.3644324680145
555.168,1469.950173078169
557.819,1508.575840447917
560.469,1558.723373132228
563.116,1609.255576805751
565.761,1665.7018342907054
568.405,1745.1152441562162
571.047,1806.0249974128747
573.687,1897.9125637311136
576.324,1947.3069252786286
578.96,1933.0702867482823
581.594,1931.4933091955277
584.227,1928.4379629234554
586.857,1883.242285129741
589.485,1868.1013280297689
592.112,1801.4957260273845
594.737,1708.7155009808912
597.359,1628.7172008023736
599.98,1555.933419009405
602.599,1497.8918380862683
605.216,1516.3580823689977
607.831,1544.6690471208854
610.445,1575.3519418937112
613.056,1594.8385719842022
615.666,1671.893905604773
618.274,1799.94940295904
620.88,2020.1030119839916
623.484,2287.642973615968
626.086,2542.0478175328303
628.686,2718.4149293246955
631.284,2845.8414986170455
633.881,2856.56737195574
636.476,2820.403619977745
639.068,2704.3039617247173
641.659,2496.2695222899174
644.249,2177.5393047508437
646.836,1803.9711382923315
649.421,1442.8988168058563
652.005,1159.2273327269281
654.587,906.670968015339
657.166,689.3247184687507
659.745,532.4738132743823
662.321,395.11752027497687
664.895,335.11199885381893
667.468,295.1702956768868
670.038,234.9099594826298
672.607,144.2816082526956
675.174,100.75940114457444
677.739,58.10293899566432
680.303,44.64297435114668
682.864,50.8052167299702
685.424,61.8246200387739
687.982,41.17396036310856
690.538,33.37337130951528
693.092,30.561784109509517
695.645,10.639800480355461
698.195,3.4601879488950544
700.744,-9.219716948588484
703.291,-14.737985295947965
705.836,-18.575691106867907
708.38,5.595492367224779
710.921,33.34188520474618
713.461,58.801153269501356
715.999,80.82518504551672
718.535,101.8372541861695
721.069,134.07013444426548
723.602,110.13754793544649
726.133,79.36751816350852
728.662,41.135723045717896
731.189,3.960752700025296
733.714,-15.829204196276805
736.238,-24.334435952671356
738.759,-27.94083103058165
741.279,-23.89128692281247
743.798,-29.857121494777402
746.314,-35.223772876059684
748.829,-23.233644600684784
751.342,-43.17657281180436
753.853,-28.342201816771194
756.362,-31.54378821365208
758.869,-43.070580893500846
761.375,-30.830677233111146
763.879,-21.493879287767413
766.381,-18.777411522954935
768.882,-9.826876641310264
771.38,12.783740971375664
773.877,30.242547990638286
776.372,50.975929183523476
778.866,58.93425824829819
781.357,65.16332293988035
783.847,53.99479781431364
786.335,66.99862173514839
788.821,107.79251823697223
791.306,189.94675398417712
793.789,314.74604008686674
796.27,438.61810008343355
798.749,547.8003331612308
801.227,651.7207630915327
803.702,730.7123204978252
806.176,789.2985536955289
808.649,841.2412442936297
811.119,834.7308799391658
813.588,789.7676032521904
816.055,718.351684570262
818.521,663.0549470738833
820.984,580.6874300071786
823.446,536.4878614223803
825.906,495.74270235288986
828.365,450.35757193871405
830.821,402.76200588524216
833.276,378.9570720648717
835.729,322.42012897578525
838.181,271.0572032483424
840.631,238.72679572290735
843.079,226.1446399086244
845.525,217.3122699660039
847.97,191.51701726093097
850.412,183.2367688234467
852.854,164.09234485414208
855.293,158.0855905162698
857.731,149.7898486802378
860.167,124.73090885858164
862.601,107.95843233141568
865.034,85.61737727188256
867.465,84.75751910969484
869.894,97.85725660896287
872.321,102.58551318411583
874.747,107.6588763110617
877.171,114.07968931929372
879.594,127.37414318400715
882.014,156.2113206991612
884.433,172.92700255530826
886.851,177.99985436979796
889.266,172.52761371698807
891.68,144.98899144416964
894.092,174.52938251129535
896.503,202.15133873547302
898.912,229.80980344021918
901.319,240.60258419995307
903.724,247.77034939401346
906.128,230.12519618925444
908.53,244.00302804645116
910.931,243.168313179086
913.329,257.8617001549901
915.726,235.41906206941667
918.122,216.70006452763528
920.516,206.13578124657988
922.908,231.77630965649132
925.298,211.5764817406589
927.687,195.72919392277208
930.074,192.37968933523007
932.459,188.10174484935578
934.843,220.75481048655638
937.225,250.1982916866241
939.605,242.767736337948
941.984,236.41768847439153
944.361,233.53120863883896
946.736,236.3008228181693
949.11,229.68089994965203
951.482,215.4828865702052
953.853,204.232446227551
956.222,191.31231317708625
958.589,169.6765746501851
960.954,179.08876264630862
963.318,196.55042191559505
965.68,219.68205889382853
968.041,216.58028111360454
970.4,172.1987461392955
972.757,115.91958669250198
975.113,51.362931015591585
977.467,40.053566092384244
979.819,49.420934202174976
982.17,55.084843759468185
984.519,29.379275391806004
986.866,15.2095213509333
989.212,19.480753495389763
991.556,54.43135614717312
993.899,90.4900700604735
996.24,115.99028126232724
998.579,83.0271670361326
1000.92,49.83865142897321
1003.25,51.900646473225606
1005.59,50.87943626531069
1007.92,70.20310866348882
1010.25,84.29965365232329
1012.58,69.54934742142905
1014.91,50.284755491849864
1017.24,59.83835489004559
1019.56,50.59015632188675
1021.88,70.39627872759593
1024.2,71.92228574144383
1026.52,70.21461738953985
1028.84,84.31964083524599
1031.16,122.7598439817375
1033.48,108.5338385983764
1035.79,109.49731582803088
1038.1,120.41066836106211
1040.41,134.5580411807391
1042.72,168.9854299277049
1045.03,180.16735069301467
1047.33,156.2449383826056
1049.64,159.5497593674827
1051.94,171.41333841961932
1054.24,172.9290666002371
1056.54,179.66649010046353
1058.84,155.1951228915193
1061.13,136.22730699394288
1063.43,146.14202512778206
1065.72,128.79442764849182
1068.01,131.37297853046198
1070.3,148.44707754101728
1072.59,167.34801574774747
1074.87,175.50231197821995
1077.16,185.0507635654044
1079.44,185.22940185499442
1081.72,203.41711437940603
1084.0,238.27850512701002
1086.28,293.47818338279444
1088.56,353.442671616649
1090.84,419.50326575260306
1093.11,464.2769906761541
1095.38,467.61898431303484
1097.65,455.90821504130236
1099.92,421.9046276748602
1102.19,366.17771801841036
1104.46,322.0589169462103
1106.72,292.87968876655145
1108.98,304.4953438719449
1111.24,346.0469466274176
1113.5,398.6756042111813
1115.76,435.99866021721436
1118.02,501.8239834959395
1120.28,545.9118760425106
1122.53,581.1655523136935
1124.78,588.0120947351995
1127.03,540.354837780468
1129.28,458.3828949065835
1131.53,404.19020929971975
1133.77,337.1565093824911
1136.02,310.8044547974896
1138.26,376.60916334320814
1140.5,424.61726171948135
1142.74,506.30403151103064
1144.98,589.9067456471919
1147.22,592.5199096235551
1149.45,541.9047884378851
1151.69,503.7751240022294
1153.92,454.22570969789535
1156.15,444.7800125494657
1158.38,434.67589063691526
1160.61,378.1989295553517
1162.83,308.82530268426945
1165.06,251.2693933615758
1167.28,253.8647503909467
1169.5,240.70694831108744
1171.72,216.98692385547315
1173.94,167.03859812636824
1176.16,101.67221305456769
1178.37,66.50766785913675
1180.58,46.02214122144392
1182.8,16.692951554431147
1185.01,4.854702986173606
1187.22,-18.11023532323543
1189.42,-49.53363081717248
1191.63,-29.509002967173046
1193.84,-6.2725739873690145
1196.04,-0.6794634071343353
1198.24,18.27249502168752
1200.44,23.442745277296126
1202.64,1.5480009492498539
1204.84,-0.5044277089882598
1207.03,21.526217082014682
1209.23,35.1188964142616
1211.42,85.60981613981585
1213.61,126.57337525218782
1215.8,159.25073331533758
1217.99,176.35933027362853
1220.18,185.9500253094011
1222.36,166.97852141483963
1224.55,159.3529804400241
1226.73,130.02925718860706
1228.91,139.9156573230107
1231.09,158.0157905077167
1233.27,176.19047117160017
1235.44,192.72914307979363
1237.62,237.5403515246012
1239.79,254.48507265927128
1241.96,302.6624237841511
1244.13,391.74299268046434
1246.3,525.1116907536057
1248.47,696.8201299859561
1250.64,900.6818570325636
1252.8,1137.891396840626
1254.96,1382.0718676975443
1257.13,1671.5130724694563
1259.29,1941.9810184111884
1261.44,2139.146484595269
1263.6,2245.204065531409
1265.76,2251.3959766907465
1267.91,2119.7739552681865
1270.06,1949.9135418971246
1272.22,1731.056933792735
1274.37,1545.1129807524067
1276.51,1380.7524192514115
1278.66,1218.3602493957223
1280.81,1057.6547785414846
1282.95,929.1638077716411
1285.09,816.0817707535043
1287.23,734.5554440248957
1289.37,705.636323946956
1291.51,696.0901465141014
1293.65,712.920692878261
1295.78,753.8459758254944
1297.92,831.7268072049974
1300.05,895.7096510723941
1302.18,978.6551911187412
1304.31,1014.7573742900036
1306.44,1061.4005496446316
1308.57,1101.111845306366
1310.69,1156.8944977980086
1312.82,1248.894514708512
1314.94,1340.2578135505591
1317.06,1386.463551094335
1319.18,1421.1336431774844
1321.3,1432.4613321341167
1323.41,1373.9254685095266
1325.53,1343.9095546796789
1327.64,1269.1303122802087
1329.75,1145.399582968772
1331.87,1020.8148006159472
1333.98,889.0923206390148
1336.08,733.9959874309561
1338.19,634.8133208370828
1340.3,557.4031312030861
1342.4,450.00503918499635
1344.5,378.23947174961495
1346.6,312.34575341304344
1348.7,264.99162605064157
1350.8,227.74943537364834
1352.9,239.95326978675075
1354.99,194.93705162661354
1357.09,158.65358078135432
1359.18,112.76976878621736
1361.27,78.71425387162299
1363.36,36.24882553502812
1365.45,34.80175387469626
1367.54,59.13445225679561
1369.62,86.62719131797076
1371.7,81.23148320491418
1373.79,88.70818009965478
1375.87,88.57985845912981
1377.95,59.89272706427937
1380.03,87.59758268819132
1382.1,88.02600385948244
1384.18,72.8903541494883
1386.25,75.99807117373302
1388.33,30.0611936886462
1390.4,-28.25601607363342
1392.47,-4.575164356159348
1394.54,16.148661384259867
1396.6,27.29356221592934
1398.67,17.618449357036297
1400.74,-16.070284918796006
1402.8,-28.01399840852673
1404.86,4.593447881813518
1406.92,37.462839594687466
1408.98,30.876279532823446
1411.04,31.591953888004355
1413.09,57.17746989844363
1415.15,130.96224112520122
1417.2,225.6089203476472
1419.25,334.97054674463925
1421.3,434.23340736141563
1423.35,515.8694223860016
1425.4,521.4932923303923
1427.45,491.19583568791995
1429.49,423.16304087633534
1431.54,339.15226103803616
1433.58,290.44459931647725
1435.62,227.74967508497366
1437.66,176.39610446120628
1439.7,154.3791236788827
1441.74,173.36059341176974
1443.77,172.7642411929728
1445.81,192.10899907230896
1447.84,165.9613888927247
1449.87,159.26885994767508
1451.9,180.64550759087274
1453.93,216.32445851271177
1455.96,253.68168458811738
1457.98,337.66457862915604
1460.01,436.69672061384085
1462.03,601.0588343911209
1464.05,795.6030777192084
1466.07,988.1816180181879
1468.09,1275.1228271702525
1470.11,1607.1360477485086
1472.13,2000.4544544838843
1474.14,2427.9779157320227
1476.16,2822.177759702088
1478.17,3021.1920168760553
1480.18,3086.0635195708355
1482.19,2920.0256205480428
1484.2,2622.0260068618372
1486.21,2233.3933708496343
1488.21,1829.3612239799522
1490.22,1410.7345678431188
1492.22,1076.6994222848318
1494.22,794.2514011587716
1496.22,562.5290499839732
1498.22,418.5281359831565
1500.22,291.7207000258122
1502.22,209.4836323808172
1504.21,168.76534370713534
1506.21,121.27624556833234
1508.2,54.53637380423197
1510.19,46.97063095018939
1512.18,23.813552465891462
1514.17,25.156930107013523
1516.16,16.997435296877484
1518.14,21.61757583143799
1520.13,-17.366680749062652
1522.11,-24.101140931292775
1524.09,-28.683857095271378
1526.07,-8.688934558439314
1528.05,5.404896874601718
1530.03,19.16666061321439
1532.01,12.784557694583327
1533.98,41.446915553308145
1535.96,50.77075583862256
1537.93,63.039886041135105
1539.9,69.10965778623563
1541.87,44.930772746555476
1543.84,34.78737426870816
1545.81,39.868472333365844
1547.78,44.98222565819128
1549.74,63.07974761029277
1551.7,105.87415021391189
1553.67,136.69768339621078
1555.63,159.5017313759172
1557.59,205.04728524244047
1559.55,266.00017743975377
1561.5,327.454887678849
1563.46,366.2202536120951
1565.41,344.6766100790203
1567.37,300.7757854949566
1569.32,287.0887172872972
1571.27,260.32925780795495
1573.22,239.02083738867395
1575.17,209.21074644395458
1577.11,145.51775090731985
1579.06,123.65589814376904
1581.0,144.00594190985248
1582.95,141.32962445660473
1584.89,144.5791967277121
1586.83,139.13550998625033
1588.77,96.80801220333365
1590.7,87.02522063723723
1592.64,74.59662298394915
1594.58,59.284102337253444
1596.51,45.849552624993066
1598.44,36.126303569147694
