Raman Shift,Processed Intensity
331.095,79.25532018341983
333.909,13.04949785637291
336.721,7.4734951724431085
339.531,43.19398670796181
342.339,118.87766285856469
345.145,134.97695203455714
347.949,158.63479047526926
350.751,147.51796349203687
353.55,151.43616099686915
356.348,188.0086520787454
359.144,245.56905481800322
361.937,249.6415346721642
364.729,281.4170028617582
367.518,266.0864576133017
370.306,301.0790873070314
373.091,389.3479926722598
375.874,444.94162326845344
378.656,471.6228330139279
381.435,465.1546023812116
384.212,354.15718916383594
386.988,216.29861257646053
389.761,138.5327564026079
392.532,47.57556738052017
395.301,35.14315835089383
398.068,51.047054261783614
400.833,56.95610484015015
403.596,24.444111549139507
406.358,21.84697835488396
409.117,-36.02299464955331
411.874,-68.448529363744
414.629,-61.188309273096365
417.382,-57.905542507265636
420.133,-34.92986738703212
422.882,38.26644806237482
425.629,114.49706056607647
428.374,196.14724423198868
431.117,307.31673057699254
433.858,412.8197033494512
436.597,501.13717430411043
439.334,553.6074542150959
442.069,559.4737667460599
444.802,506.97948136795367
447.533,499.3681081815598
450.262,521.645197501935
452.989,552.8640489666604
455.714,585.6018968345743
458.438,595.7218095702124
461.159,541.8488751425507
463.878,524.7987672761124
466.595,525.1967878925657
469.31,504.1445285999325
472.024,491.31510361037454
474.735,460.00076361035553
477.444,411.25574772606296
480.152,414.943897393563
482.857,451.8815083242134
485.561,471.3611348510158
488.262,471.7230133225821
490.962,479.6883902590075
493.659,512.0738028887017
496.355,564.8863120661667
499.048,616.4663542373846
501.74,687.4877362623542
504.43,724.7195349995341
507.118,794.7403778426715
509.804,903.8431994481043
512.488,992.3685698906356
515.17,1132.418975200355
517.85,1248.5730978994688
520.528,1317.4096213486464
523.204,1373.983415045746
525.878,1439.6350532578713
528.551,1509.324143177233
531.221,1619.8674149817866
533.89,1625.3196690387103
536.556,1599.2594850126534
539.221,1529.5987404977895
541.883,1477.6778439355958
544.544,1463.0276341992853
547.203,1471.0836611306368
549.86,1435.2814184577583
552.515,1436.9134814747658
555.168,1459.891406626236
557.819,1520.6981072821168
560.469,1571.9592771317052
563.116,1653.3481469109338
565.761,1720.9664316058706
568.405,1797.1538490847656
571.047,1851.6309720634458
573.687,1917.3563657849986
576.324,1940.2408685565929
578.96,1972.0047294291621
581.594,1999.272841115178
584.227,2006.3366395731036
586.857,1977.7731464489661
589.485,1928.444963898895
592.112,1878.547888459274
594.737,1790.4204296788043
597.359,1714.6390430362699
599.98,1645.6371723821335
602.599,1590.1338161896424
605.216,1520.4668557107034
607.831,1505.354954560326
610.445,1530.8975535391637
613.056,1642.5272464084342
615.666,1782.2002509029394
618.274,1998.824974982189
620.88,2210.0239164148443
623.484,2440.8479433155667
626.086,2645.0620032532775
628.686,2825.0974990260793
631.284,2930.1951406266685
633.881,2974.547797207744
636.476,2946.490968095021
639.068,2854.1218252288227
641.659,2627.5373032247153
644.249,2306.9293322913027
646.836,1938.584833052751
649.421,1556.361901847531
652.005,1222.92790078904
654.587,962.1880240167102
657.166,757.09481632808
659.745,573.7910251441731
662.321,430.7524524749015
664.895,338.31175926540664
667.468,251.42036498050084
670.038,190.93415671291405
672.607,147.70872210106518
675.174,123.12315367541487
677.739,89.98480558575511
680.303,85.57690747136667
682.864,79.22998785497384
685.424,83.89330665144325
687.982,101.08724868791569
690.538,88.3795347364894
693.092,56.86143254689341
695.645,10.481110736305254
698.195,-14.384912082736264
700.744,-41.312693412925
703.291,-24.164172793362013
705.836,-7.468098397060203
708.38,31.341898631096683
710.921,66.54636995963074
713.461,120.94959123644776
715.999,112.02243658815405
718.535,129.6166816907994
721.069,143.0126401739526
723.602,126.72870478667892
726.133,113.61660284922755
728.662,99.90903265709903
731.189,56.838728456545596
733.714,56.92419208673391
736.238,46.54113890762028
738.759,14.684419918310141
741.279,-17.555770410292098
743.798,-31.374829159992714
746.314,-31.92039427552345
748.829,-15.244709934615003
751.342,-28.16175706990316
753.853,-33.96153004459029
756.362,-33.505265709063224
758.869,-22.987341995872157
761.375,4.255200942000556
763.879,43.12361234390164
766.381,36.47171347983249
768.882,25.248751717347204
771.38,18.83273077893
773.877,22.839931475562025
776.372,42.22014672600562
778.866,86.73286895703905
781.357,104.423477503693
783.847,108.67085458090924
786.335,134.99690601711927
788.821,178.1141772259034
791.306,253.87823108241946
793.789,330.38288294267977
796.27,417.0554356628345
798.749,524.0376289041715
801.227,662.1856360571569
803.702,770.4033944988169
806.176,872.1664120405976
808.649,916.045573376221
811.119,898.9928512914444
813.588,848.6746369214429
816.055,819.6622128653289
818.521,756.4317501101941
820.984,660.6024001932542
823.446,559.7458159354192
825.906,441.8623388415267
828.365,393.76194840533844
830.821,390.921401890726
833.276,415.008040779524
835.729,388.3083591241493
838.181,327.87085761450226
840.631,259.4584214543984
843.079,218.83403157132852
845.525,206.094094873843
847.97,212.62082212798487
850.412,211.84412964324792
852.854,213.62258857758616
855.293,217.62437424242262
857.731,200.99392969337487
860.167,199.1614864638368
862.601,176.17639482237655
865.034,157.65950164917376
867.465,163.9460045029441
869.894,137.7521152116683
872.321,129.9845806061776
874.747,123.93115563469246
877.171,135.9272669535526
879.594,146.78458127984595
882.014,168.6481451726154
884.433,164.04400100453904
886.851,162.92680293360718
889.266,170.2036233509998
891.68,186.8768069480043
894.092,214.52015811626734
896.503,224.80274739567085
898.912,243.2508131603031
901.319,232.1525204472814
903.724,229.6055769284353
906.128,208.66008697722327
908.53,215.03283430708643
910.931,215.15489794311952
913.329,228.07641105090215
915.726,235.46655786055499
918.122,237.1849991622289
920.516,215.6152025635006
922.908,229.1406298896204
925.298,220.2399722028117
927.687,215.39190863109616
930.074,229.0751032923513
932.459,247.48248793265884
934.843,263.4260207551247
937.225,294.90811191536477
939.605,277.02638235032464
941.984,234.30699403567678
944.361,208.84750405274008
946.736,229.2692424649158
949.11,229.09826162270383
951.482,250.4796188020482
953.853,241.082135033158
956.222,234.81267773885975
958.589,217.9113957538948
960.954,231.9517162489842
963.318,213.22129403583904
965.68,209.19819896741137
968.041,191.36043667147487
970.4,192.2811835699208
972.757,159.15259332663481
975.113,132.8334128191741
977.467,120.70612191997179
979.819,71.62931137277474
982.17,45.55672733575193
984.519,31.68012544840849
986.866,36.33402966041376
989.212,53.233824393752
991.556,75.33289752985229
993.899,44.34645006337678
996.24,48.56102004172635
998.579,50.97733983787293
1000.92,64.64366961368023
1003.25,59.3700831641645
1005.59,30.442753761767563
1007.92,4.338240000620317
1010.25,4.199676402714431
1012.58,11.312964024075882
1014.91,33.01153293616244
1017.24,32.67634323329912
1019.56,13.497791941766081
1021.88,4.666191357458956
1024.2,11.181295002591014
1026.52,26.090395010975044
1028.84,69.01213426781305
1031.16,114.469842359003
1033.48,122.79630009188713
1035.79,131.13374211122027
1038.1,119.62433570562416
1040.41,103.6958977092695
1042.72,108.29999235594187
1045.03,133.05479103787002
1047.33,153.76888444550423
1049.64,129.96509470730098
1051.94,108.54714467235908
1054.24,100.46632719305717
1056.54,105.4834125029256
1058.84,101.8829365469046
1061.13,119.23510835921888
1063.43,91.96724125077162
1065.72,88.12566018702
1068.01,109.75665678489531
1070.3,135.0969681192464
1072.59,129.526160291186
1074.87,122.85234532976438
1077.16,126.8359933317438
1079.44,125.47564936326853
1081.72,186.05555512344154
1084.0,249.43136584599824
1086.28,286.9825338676387
1088.56,338.70754933922217
1090.84,379.7001333179078
1093.11,409.2920975259649
1095.38,455.38668030006284
1097.65,458.69664444531554
1099.92,415.6490417559994
1102.19,361.4804537267437
1104.46,314.3798513113459
1106.72,303.4885975387201
1108.98,310.8528310812337
1111.24,333.61394506113857
1113.5,361.0085896665271
1115.76,409.5115319101353
1118.02,457.8356582452968
1120.28,518.0272152771283
1122.53,546.2277171403884
1124.78,543.9120433535224
1127.03,492.65034619652124
1129.28,444.29852951734415
1131.53,376.331584681212
1133.77,303.1293074722696
1136.02,280.92868166192443
1138.26,306.4905482914637
1140.5,350.4329416213491
1142.74,446.80252031859163
1144.98,531.1698081679554
1147.22,556.5815776402883
1149.45,559.0370429846707
1151.69,527.4878628443666
1153.92,456.0286190632605
1156.15,394.1349145399088
1158.38,338.9014710815936
1160.61,305.3278463059976
1162.83,281.3660553047812
1165.06,266.5396208785876
1167.28,245.32452853395216
1169.5,206.81589576592387
1171.72,160.0136889597395
1173.94,117.39415457820746
1176.16,80.76696463480516
1178.37,41.89426692867937
1180.58,11.109735279647111
1182.8,-0.25285642728226776
1185.01,-26.621536387853666
1187.22,-25.757559720840845
1189.42,-8.041119050670432
1191.63,-11.661819903888045
1193.84,-10.52344464719431
1196.04,8.375092240726644
1198.24,3.177835255719401
1200.44,12.981306383652282
1202.64,45.83450068797856
1204.84,51.88173938035288
1207.03,69.1245718824207
1209.23,81.61224931618472
1211.42,90.72743608959627
1213.61,93.37668338691446
1215.8,112.65709313525622
1217.99,153.04679149495132
1220.18,178.50016425466265
1222.36,204.4002350836481
1224.55,201.41580568878817
1226.73,191.215738828756
1228.91,207.70705085200598
1231.09,219.89205185381206
1233.27,220.15405726188374
1235.44,194.54309942197915
1237.62,167.9664010882775
1239.79,196.90265843755742
1241.96,313.30680027385915
1244.13,439.7528424712368
1246.3,631.6243614641344
1248.47,771.5430629758498
1250.64,949.9402078898538
1252.8,1164.8661333592017
1254.96,1432.799773915946
1257.13,1689.8391349615026
1259.29,1979.367956733201
1261.44,2186.293806842269
1263.6,2328.0004585261004
1265.76,2372.490745091002
1267.91,2276.577033402555
1270.06,2086.024078328365
1272.22,1815.9299724189127
1274.37,1575.726143207436
1276.51,1396.320207652684
1278.66,1265.5245408673727
1280.81,1116.7705591323602
1282.95,1021.8230029108199
1285.09,888.0180293862213
1287.23,793.5013050003131
1289.37,761.8946694196752
1291.51,754.629466168943
1293.65,752.8989208830776
1295.78,831.8962338453521
1297.92,894.1479106205747
1300.05,957.704235545461
1302.18,1017.4249833142399
1304.31,1076.1698924690277
1306.44,1152.7986626997226
1308.57,1242.3138092867543
1310.69,1274.955898496215
1312.82,1323.1083067845166
1314.94,1351.9162657173206
1317.06,1410.1440021265735
1319.18,1471.1271163627794
1321.3,1508.6773414996492
1323.41,1486.1777787292385
1325.53,1411.820989899924
1327.64,1326.0851852924943
1329.75,1191.7818399676585
1331.87,1051.484262494509
1333.98,938.6228303456533
1336.08,834.1040348161496
1338.19,756.1676211805416
1340.3,666.3389669451285
1342.4,569.5243172430978
1344.5,484.86792499156036
1346.6,408.9901434295448
1348.7,338.3683757988383
1350.8,299.81326312007786
1352.9,240.99249101644637
1354.99,215.66888225166622
1357.09,212.79563212512357
1359.18,195.37344862890268
1361.27,180.83150212863075
1363.36,163.59885123479762
1365.45,164.58063057884237
1367.54,139.77709573209177
1369.62,151.5217157437528
1371.7,168.62402758366215
1373.79,181.79820487075358
1375.87,202.32972183962102
1377.95,204.55154111660386
1380.03,170.32030149587445
1382.1,151.06393428694992
1384.18,138.54356537649392
1386.25,110.9487506234409
1388.33,106.89747315889053
1390.4,71.38852163836737
1392.47,37.468154208376745
1394.54,27.13485771105161
1396.6,11.196487841182261
1398.67,-6.348777218079704
1400.74,-15.788623110592198
1402.8,-3.6013558208610448
1404.86,17.782198237083776
1406.92,48.93107603599174
1408.98,89.36656135114254
1411.04,109.13361768051186
1413.09,147.0389878316082
1415.15,214.9369125559199
1417.2,301.7291348976596
1419.25,375.1744283520261
1421.3,467.26955359489716
1423.35,528.3445009268037
1425.4,579.824399383577
1427.45,551.9438067993706
1429.49,506.98480939349815
1431.54,402.03893088107634
1433.58,323.57856539319596
1435.62,249.07602944470113
1437.66,220.5273758067442
1439.7,215.92858833170908
1441.74,233.13272915910193
1443.77,227.56422877857335
1445.81,228.8379379977132
1447.84,236.2829418146016
1449.87,243.60923043321486
1451.9,262.95532265978386
1453.93,286.6025559658135
1455.96,311.5465194082483
1457.98,366.3542008353468
1460.01,505.11637218780083
1462.03,634.7333081331785
1464.05,815.3433618432314
1466.07,1057.8943979140556
1468.09,1367.7628443338801
1470.11,1758.8965539746507
1472.13,2167.910047036007
1474.14,2539.370229679733
1476.16,2849.367826949922
1478.17,3015.9459585502827
1480.18,3088.0525241452524
1482.19,3005.2068743754044
1484.2,2740.7855294918977
1486.21,2399.022183705206
1488.21,1962.2458047719429
1490.22,1497.8806383435922
1492.22,1129.4462123152298
1494.22,839.2240078409238
1496.22,604.4479398729366
1498.22,438.39959960569195
1500.22,311.5511159673565
1502.22,198.51754092095052
1504.21,140.67590143212055
1506.21,134.59377524643673
1508.2,106.69596190478023
1510.19,87.4549632825483
1512.18,77.77194031932686
1514.17,33.929098320000776
1516.16,14.684929398717713
1518.14,15.369454922855539
1520.13,-1.972912995399838
1522.11,-2.4881290550893027
1524.09,-6.6077485129965225
1526.07,-28.715589501592603
1528.05,-12.242966775549121
1530.03,7.37893102030057
1532.01,7.861899159708628
1533.98,2.632144825617843
1535.96,-6.360189661145569
1537.93,-23.16483694651174
1539.9,-3.1171195097119835
1541.87,26.923953875450934
1543.84,49.90901783006939
1545.81,56.93167974627977
1547.78,87.0380396395883
1549.74,99.98859095358534
1551.7,115.87726422180117
1553.67,165.36951834861316
1555.63,220.84519379490962
1557.59,273.1604133828064
1559.55,338.0761497670287
1561.5,347.87726909676394
1563.46,342.9915746775134
1565.41,336.27551729961806
1567.37,316.2999055667751
1569.32,288.30228289123033
1571.27,247.09168544134695
1573.22,181.2391143748896
1575.17,140.1727699770713
1577.11,127.32090484621676
1579.06,122.49277231753308
1581.0,117.30719393449044
1582.95,111.09731739639324
1584.89,108.9582316488079
1586.83,102.88982006922356
1588.77,91.27294698605056
1590.7,67.9170727690414
1592.64,28.441202253046185
1594.58,-2.607071600137715
1596.51,-3.299190706579793
1598.44,45.69817370639589
