Raman Shift,Processed Intensity
331.095,163.05113750264127
333.909,89.69158453058935
336.721,53.84149164396695
339.531,53.00087512522168
342.339,106.19359334549335
345.145,148.03879161852456
347.949,181.7747280069343
350.751,172.3540276999256
353.55,139.4913183433796
356.348,107.71086536995927
359.144,136.3942073291919
361.937,176.73255312234505
364.729,240.86965542775215
367.518,269.71135079283295
370.306,292.1160521070419
373.091,317.84714583674395
375.874,361.1444368791299
378.656,382.9146410351864
381.435,359.2075917683778
384.212,269.83530410619323
386.988,161.41960997024898
389.761,68.15407922068471
392.532,-7.957868823252284
395.301,-28.817234815004213
398.068,-47.848470717258806
400.833,-24.094702411581693
403.596,-28.59866954167046
406.358,-43.54557511209168
409.117,-69.12022328662897
411.874,-68.98320778311654
414.629,-66.17567630860867
417.382,-13.786007262141993
420.133,-1.854589211156508
422.882,-8.088131435279593
425.629,41.80697644760539
428.374,106.2198760875699
431.117,207.11140352443226
433.858,339.87120902735523
436.597,399.3653531249174
439.334,407.88866453995706
442.069,418.83138383868436
444.802,392.15533088934126
447.533,375.3462627970307
450.262,396.5090889814155
452.989,413.6059433972746
455.714,455.599018659816
458.438,447.83149540809427
461.159,399.0751383350794
463.878,321.86360650345387
466.595,269.58766842331397
469.31,236.49517903463448
472.024,249.59581859449509
474.735,260.5658315643268
477.444,254.22419406856352
480.152,256.7706861152092
482.857,255.30967810211905
485.561,243.23106018042154
488.262,273.0197430465173
490.962,311.9699206388359
493.659,305.8517383031058
496.355,327.482722862394
499.048,359.01349840142893
501.74,410.26112109854466
504.43,483.7566997719023
507.118,582.1263497590544
509.804,600.8054801298454
512.488,656.0864142326423
515.17,740.2612483358125
517.85,830.2409007453889
520.528,883.5551133036934
523.204,967.8762624117671
525.878,960.9717414803699
528.551,968.2277719524195
531.221,994.6494048016166
533.89,1022.5748077453536
536.556,1023.7228857909531
539.221,1046.5266160676206
541.883,1024.5616207536368
544.544,990.8318828606934
547.203,961.3887953515759
549.86,950.188305495939
552.515,983.5671068451311
555.168,1036.6712121593996
557.819,1091.8845263351004
560.469,1150.5431336176098
563.116,1217.9352990999591
565.761,1288.349089269083
568.405,1376.0247544568329
571.047,1452.1071112909863
573.687,1493.4074489557825
576.324,1543.5940068810296
578.96,1590.6205476693062
581.594,1601.2025490707797
584.227,1619.4362531008755
586.857,1624.9415246817593
589.485,1551.1475674266844
592.112,1466.6262584719584
594.737,1360.7111975946104
597.359,1204.878661091982
599.98,1087.6523651851248
602.599,991.0796579936236
605.216,883.8743781770881
607.831,825.9882850052109
610.445,857.5158217611634
613.056,900.8845934307014
615.666,1029.7601301055538
618.274,1177.6649361011055
620.88,1334.2165866931214
623.484,1542.8420153306588
626.086,1735.8251341823266
628.686,1892.640168968237
631.284,2008.761184268158
633.881,2012.1858945439476
636.476,1945.6737608762865
639.068,1856.4602781775948
641.659,1656.2569766906513
644.249,1446.918090153894
646.836,1188.9167477762348
649.421,989.440213830921
652.005,764.4851272493993
654.587,598.2384555008912
657.166,434.98225799578677
659.745,325.76035425094597
662.321,212.94975395976098
664.895,201.4035156336513
667.468,141.68884333878532
670.038,116.3728024804268
672.607,86.45089273013218
675.174,72.72800190532644
677.739,46.532693182212824
680.303,30.098167662382366
682.864,7.705139054038682
685.424,-7.461001154927544
687.982,-36.54825350320971
690.538,-42.561793840130576
693.092,-45.31632882652093
695.645,-32.05512203362332
698.195,-21.164262719789804
700.744,18.827346234539164
703.291,40.771806513943375
705.836,63.75937366759854
708.38,59.73751308277542
710.921,63.46328929169249
713.461,74.78908861169202
715.999,119.75786559493872
718.535,143.69838947812013
721.069,179.51096682262505
723.602,163.95316415470916
726.133,139.30648298662663
728.662,91.09065388537101
731.189,52.06364482713934
733.714,-9.111663781548032
736.238,-2.057946939862177
738.759,-12.969140983923808
741.279,1.9609924201649847
743.798,-27.889697922923006
746.314,-25.19079443613282
748.829,-38.75454294460815
751.342,-3.107278166934975
753.853,17.415338711194636
756.362,17.334983251488666
758.869,-1.731240450999394
761.375,3.7387205894915496
763.879,21.88615051156239
766.381,38.804894487825095
768.882,57.20802193941381
771.38,62.6659183219258
773.877,60.987234054216515
776.372,72.5998334472024
778.866,90.69364839455784
781.357,79.50638920627398
783.847,98.4187792517505
786.335,129.95455150763655
788.821,165.7328260580589
791.306,222.23001140437464
793.789,290.1131343463485
796.27,354.430312720478
798.749,455.61075194783734
801.227,545.131408248586
803.702,603.4217470945755
806.176,636.244692138142
808.649,647.649002712335
811.119,641.7311751406587
813.588,631.6830583325354
816.055,573.2680408073397
818.521,503.15438057557185
820.984,451.486630258129
823.446,388.1713479198597
825.906,351.21042695074175
828.365,309.27252118515753
830.821,260.4549462116447
833.276,243.283675920733
835.729,256.5228628623154
838.181,256.1748347934763
840.631,243.1467578930101
843.079,197.34587140450094
845.525,172.0128175175014
847.97,116.29306648680813
850.412,90.33215127553694
852.854,100.79947362678331
855.293,96.84068156384456
857.731,107.79195165234569
860.167,116.65617602427392
862.601,79.15057797342979
865.034,66.04004183660027
867.465,85.51806192234926
869.894,104.06388191599581
872.321,128.25201523697342
874.747,116.5141463485661
877.171,87.32960349621817
879.594,84.70154573155651
882.014,87.58553088878716
884.433,90.69903594205925
886.851,102.80716783899788
889.266,104.24646957234609
891.68,91.25825006112018
894.092,134.51239022224263
896.503,146.53591094693184
898.912,136.0463029818493
901.319,128.14199966739943
903.724,145.20713539031067
906.128,141.4353516552692
908.53,176.54407934702294
910.931,178.15548765914946
913.329,176.41552826091765
915.726,162.42250327366673
918.122,183.1318237233868
920.516,178.26076799328985
922.908,162.6218117049525
925.298,138.21786236136722
927.687,150.62320827570784
930.074,155.03113416674978
932.459,160.5396319923998
934.843,174.91330225940828
937.225,169.96430295213804
939.605,176.50472703275818
941.984,182.82278946524866
944.361,197.9685380489268
946.736,163.37289758532143
949.11,141.1809997593209
951.482,113.87122730604779
953.853,121.87425817771827
956.222,107.85877637717658
958.589,107.63623041047958
960.954,106.68463935852742
963.318,108.33906561535696
965.68,111.17256381691641
968.041,105.7104631031666
970.4,88.52560176114639
972.757,53.381180915641835
975.113,40.27838012462689
977.467,-2.5436460729183636
979.819,-12.84586684728697
982.17,-19.05604115304959
984.519,-7.125860257954628
986.866,10.32619410296411
989.212,3.871989578589819
991.556,-7.964355781051836
993.899,6.198285691204319
996.24,42.979001369379375
998.579,59.0919780760255
1000.92,48.775071029584524
1003.25,28.075515648890132
1005.59,19.94516316718682
1007.92,22.95476386520363
1010.25,61.29396740752918
1012.58,77.24751566733516
1014.91,79.33810452650619
1017.24,73.42162662814508
1019.56,65.87765222431585
1021.88,47.75229097616898
1024.2,42.9486728016841
1026.52,56.36980967579757
1028.84,89.06145743052775
1031.16,105.87878707891014
1033.48,124.67686566274779
1035.79,125.02494662416416
1038.1,133.44456970097212
1040.41,148.1238512982245
1042.72,150.48891771691592
1045.03,146.48962409697128
1047.33,126.83765431261509
1049.64,130.9589065820344
1051.94,142.89826002941572
1054.24,166.60529362794068
1056.54,157.98190990467765
1058.84,156.45376816928547
1061.13,138.6369558379563
1063.43,145.4808502335427
1065.72,162.6014565761634
1068.01,185.04331740237717
1070.3,173.27951722245075
1072.59,158.64025860620222
1074.87,129.0747716021724
1077.16,126.48465172822557
1079.44,167.7238646288231
1081.72,203.69398882752216
1084.0,244.86802990805472
1086.28,290.3380442192083
1088.56,346.6722863892335
1090.84,424.67711874501447
1093.11,530.4922540645766
1095.38,568.3526649962546
1097.65,550.4933506207308
1099.92,479.2921982511564
1102.19,380.6509404713754
1104.46,291.1856359836645
1106.72,291.89334093266416
1108.98,303.77116118169374
1111.24,341.1019712557411
1113.5,396.59727614158123
1115.76,433.20673975457703
1118.02,472.97533245308546
1120.28,526.8528595052567
1122.53,534.1701562224878
1124.78,519.6867116643127
1127.03,498.1621018671033
1129.28,418.73694688229443
1131.53,375.07577257651724
1133.77,337.60511052697257
1136.02,325.98969315489217
1138.26,355.94198219234295
1140.5,388.2221733395081
1142.74,396.7334390172082
1144.98,454.14098064322775
1147.22,496.58631900388195
1149.45,522.2587274827197
1151.69,494.20476052732397
1153.92,417.5663535446911
1156.15,336.00939898708793
1158.38,269.3904176759929
1160.61,243.37561107843908
1162.83,211.6789612023913
1165.06,155.3479495397521
1167.28,120.66832362840591
1169.5,99.11648266188786
1171.72,51.978529765711755
1173.94,49.15980046418122
1176.16,29.375343528148505
1178.37,-1.9453124629349077
1180.58,7.913274107681673
1182.8,11.523891122757277
1185.01,-24.207132333093114
1187.22,-36.3732540477597
1189.42,-61.115331307431234
1191.63,-67.14542651127226
1193.84,-36.74680707881066
1196.04,-6.2501423767716915
1198.24,6.252196881629061
1200.44,35.62040678793255
1202.64,18.38151774362541
1204.84,12.967472130662372
1207.03,13.143681755437456
1209.23,9.866158597715184
1211.42,32.94817070072418
1213.61,61.726899413432875
1215.8,75.11105003323041
1217.99,111.2475134207757
1220.18,156.99755142437039
1222.36,153.12726801862595
1224.55,158.16474710978514
1226.73,133.4476665315335
1228.91,108.59948346937176
1231.09,99.62466750404178
1233.27,112.95631460733466
1235.44,117.0751897093296
1237.62,157.55734069420419
1239.79,200.88361715795622
1241.96,236.67776059468974
1244.13,291.51592315432504
1246.3,377.97428163841414
1248.47,451.1052229245163
1250.64,592.3421008191515
1252.8,726.2135167202778
1254.96,912.200457422628
1257.13,1122.974385303994
1259.29,1350.206757082946
1261.44,1520.0928282908324
1263.6,1622.4945053628246
1265.76,1600.5117691575354
1267.91,1508.8160032385342
1270.06,1341.316655489211
1272.22,1167.7326616323758
1274.37,1033.7352973213142
1276.51,889.2815064213
1278.66,774.9472292911114
1280.81,666.355969159797
1282.95,563.7978346939099
1285.09,484.1342968504614
1287.23,421.3219933489204
1289.37,389.7460569527366
1291.51,386.6010627984774
1293.65,374.6053090583032
1295.78,442.47700236435094
1297.92,520.7913956140605
1300.05,590.8855448231334
1302.18,679.2868755022869
1304.31,761.9036537959246
1306.44,811.6440290493751
1308.57,883.5112668523147
1310.69,946.365648748862
1312.82,1013.4958957571821
1314.94,1072.666782365287
1317.06,1145.8810362411214
1319.18,1195.1888569902708
1321.3,1190.830768246995
1323.41,1176.4757078605035
1325.53,1084.4591180812308
1327.64,958.1638928899697
1329.75,832.4965634222394
1331.87,720.6015786307457
1333.98,640.5279669002289
1336.08,557.8483786146921
1338.19,472.2781287246239
1340.3,388.1037631237564
1342.4,307.61162502581965
1344.5,239.13546896034586
1346.6,190.3897890541948
1348.7,154.27933778926672
1350.8,149.66102571259808
1352.9,104.82010686073909
1354.99,79.4701737079472
1357.09,35.65791401914021
1359.18,10.048820083804003
1361.27,27.736707473711704
1363.36,29.672285064059906
1365.45,20.04410705276132
1367.54,49.08809925468677
1369.62,46.7066122435067
1371.7,63.23033370171606
1373.79,77.0849676217772
1375.87,101.74363250431384
1377.95,145.6792595562972
1380.03,160.6979432701935
1382.1,139.89133962215078
1384.18,125.1604928416225
1386.25,85.07299551431879
1388.33,67.52967249468315
1390.4,62.52650291359805
1392.47,41.20225647180996
1394.54,-11.828155980931797
1396.6,-31.75937948578371
1398.67,-45.92892690828103
1400.74,-42.10287306446844
1402.8,-41.14250460761605
1404.86,-26.52811771116444
1406.92,-26.168534552329675
1408.98,-8.353481347704019
1411.04,32.81784032235146
1413.09,66.48436989133256
1415.15,99.78508902441217
1417.2,149.71616426288733
1419.25,246.03570871624333
1421.3,314.7399723256485
1423.35,364.0157226036356
1425.4,359.5259587071105
1427.45,333.1241969389373
1429.49,298.42589910665765
1431.54,251.3322818336087
1433.58,223.7922211081152
1435.62,178.32606159460624
1437.66,148.73990213518846
1439.7,133.3160717274227
1441.74,136.1464626449499
1443.77,112.9896730819346
1445.81,141.93767360702668
1447.84,134.8919974268474
1449.87,146.51612112567068
1451.9,175.99736921461954
1453.93,216.42786629992042
1455.96,236.37596544162716
1457.98,284.6957717504488
1460.01,332.24142788933887
1462.03,398.9623519560357
1464.05,529.9032372703662
1466.07,739.4897664472621
1468.09,969.2905159459615
1470.11,1253.3026701430254
1472.13,1548.2853544529655
1474.14,1835.3786827345994
1476.16,2084.0085189831098
1478.17,2259.457905688778
1480.18,2279.8670636242923
1482.19,2162.757201155855
1484.2,1943.5543235543018
1486.21,1642.7797089728776
1488.21,1305.3356225202497
1490.22,973.6005541430479
1492.22,704.9054088893565
1494.22,512.5335066960158
1496.22,401.86343931878355
1498.22,305.4166891672535
1500.22,226.09572433025596
1502.22,154.89828407744517
1504.21,109.96499769421894
1506.21,83.19843188806749
1508.2,63.07261438539422
1510.19,26.29970038547981
1512.18,-1.6938371760340942
1514.17,-6.338636411280504
1516.16,18.458508338741467
1518.14,36.60036305373296
1520.13,52.56116040688812
1522.11,37.767555621273914
1524.09,5.5033918500223535
1526.07,-8.185534443478446
1528.05,15.746625227940513
1530.03,1.441013504380635
1532.01,7.229308469952002
1533.98,-5.890081093426716
1535.96,-24.77582030612257
1537.93,-26.23888063341292
1539.9,-12.756820546054769
1541.87,-14.664259208451995
1543.84,2.22807570314626
1545.81,18.10953697907007
1547.78,35.217173933131335
1549.74,64.3595391594315
1551.7,92.39287624155622
1553.67,138.41159317605707
1555.63,187.70064055783723
1557.59,232.40217547982365
1559.55,267.22984448025863
1561.5,291.7544950614206
1563.46,295.1660776845372
1565.41,277.8450715742206
1567.37,241.7434343324271
1569.32,204.47983726670122
1571.27,183.29204357556318
1573.22,171.65595320056423
1575.17,178.47607624977513
1577.11,159.8950540403123
1579.06,141.72222775991827
1581.0,132.862207128539
1582.95,119.69582001228059
1584.89,105.93725251355477
1586.83,92.25309382313094
1588.77,67.11947631027874
1590.7,70.82207275577048
1592.64,78.21799834678586
1594.58,88.06914124325135
1596.51,76.73263600132077
1598.44,27.708479853997005
