Raman Shift,Processed Intensity
331.095,88.59957944003781
333.909,60.69718401026057
336.721,38.81000121788293
339.531,27.938039907388884
342.339,26.081326612225894
345.145,83.52562868502537
347.949,126.08055838018936
350.751,152.1748197936281
353.55,149.66574151677742
356.348,172.74404738587282
359.144,182.21957961216503
361.937,213.0927361978479
364.729,235.03067025675819
367.518,264.84348933507636
370.306,279.5318833034603
373.091,335.1442760587038
375.874,379.7768343682592
378.656,391.2401433814234
381.435,395.39254880718863
384.212,328.9496895682878
386.988,232.6749828361858
389.761,144.665347161309
392.532,81.73216369852253
395.301,19.63938028973689
398.068,-11.896479691561126
400.833,-29.015832305307868
403.596,-51.33507181938603
406.358,-51.89894408898954
409.117,-14.656732755940538
411.874,-10.843213623151314
414.629,-6.216758381759973
417.382,13.17875040938361
420.133,-9.605139810622859
422.882,3.864250412018464
425.629,59.59119803356771
428.374,149.5325179622696
431.117,260.54993257025626
433.858,373.2672099560268
436.597,485.16539744502916
439.334,544.2971027092708
442.069,592.5722034583773
444.802,592.3768904639683
447.533,585.2403296316616
450.262,567.0727526444957
452.989,571.8797380825363
455.714,549.7622068281908
458.438,534.106893662009
461.159,489.1577712394296
463.878,501.63509311514235
466.595,499.5449129579224
469.31,474.70288947976223
472.024,441.06761517452014
474.735,421.78823077085326
477.444,399.6806111137298
480.152,420.27497961736435
482.857,427.81590367053286
485.561,420.21467099426263
488.262,450.001665999529
490.962,473.6120794782719
493.659,499.24304686584037
496.355,508.3298341224854
499.048,534.1172617100915
501.74,580.2311285689061
504.43,657.5829694276104
507.118,718.8938597324263
509.804,831.9325062905245
512.488,944.6580998181821
515.17,1044.8393579651402
517.85,1130.1497588151492
520.528,1201.6913458150834
523.204,1253.661389846935
525.878,1302.8761941569242
528.551,1327.4853754751125
531.221,1326.733764182612
533.89,1302.0566378121557
536.556,1316.746383120077
539.221,1310.1429676820917
541.883,1310.2529829176788
544.544,1283.84487759063
547.203,1295.210857976282
549.86,1300.97640707637
552.515,1341.8621847862541
555.168,1353.3983090145507
557.819,1410.6862558503522
560.469,1513.2083787780957
563.116,1635.1612374162237
565.761,1712.6936881606039
568.405,1783.478308161305
571.047,1831.7590097755415
573.687,1930.6843693063347
576.324,2026.5457176459436
578.96,2065.1580880621323
581.594,2049.6697354130383
584.227,2021.5145125048793
586.857,1944.6023416877565
589.485,1897.8906388324108
592.112,1786.3843087355494
594.737,1667.8500262394746
597.359,1535.197184018355
599.98,1422.2397927454654
602.599,1333.6964764985032
605.216,1299.8571348315872
607.831,1245.0591286567728
610.445,1232.3539423160396
613.056,1245.5547980342412
615.666,1301.3795084672856
618.274,1457.450472107464
620.88,1723.3899067840098
623.484,1951.9627022112845
626.086,2197.0287963464752
628.686,2397.590789842541
631.284,2494.2701319297303
633.881,2503.0690205828028
636.476,2451.9894455454187
639.068,2309.2712789735474
641.659,2082.487508936041
644.249,1806.3061395818586
646.836,1503.728281783493
649.421,1201.7071961613387
652.005,926.2435265842582
654.587,723.5281527177581
657.166,526.8945663816976
659.745,421.39029552704596
662.321,327.49118535549724
664.895,273.1490127724087
667.468,215.36291036355215
670.038,167.84602846709004
672.607,105.9302924836652
675.174,82.47116018647966
677.739,41.752379031380315
680.303,26.200267276469276
682.864,30.38370938742719
685.424,38.82367967420532
687.982,41.612292572709066
690.538,33.2699513819548
693.092,23.888215273102105
695.645,2.606003828221219
698.195,1.7524716247030483
700.744,-0.5339242541604108
703.291,-2.4482611932921827
705.836,2.957059783978366
708.38,6.391381932520744
710.921,7.325812827252321
713.461,-8.101993387820585
715.999,48.72170879732221
718.535,96.12487248420712
721.069,135.53063090578735
723.602,160.40969853778324
726.133,139.3756293528786
728.662,46.946741741587175
731.189,33.16518629026223
733.714,-2.9268435837575453
736.238,-13.001377187466915
738.759,-9.063694012282667
741.279,-27.261827384609205
743.798,-41.07702049735599
746.314,-41.514182441456796
748.829,-50.05425173764297
751.342,-31.225611727755677
753.853,-22.55646262424716
756.362,-22.908151182727124
758.869,-25.951360646717603
761.375,-24.54706259717568
763.879,-32.27032594487264
766.381,-8.791268779915299
768.882,-7.160772126031134
771.38,-18.28666988532541
773.877,-39.933748306853886
776.372,-27.152316883763888
778.866,-8.611541155199575
781.357,23.49579187002155
783.847,68.69136543259265
786.335,98.6399009323668
788.821,151.57772583801398
791.306,229.64610350143857
793.789,323.3674201150602
796.27,418.02613357384325
798.749,541.0021032897089
801.227,615.2467771488082
803.702,694.7117594211732
806.176,756.3011881941784
808.649,793.8241128060008
811.119,769.2325855647896
813.588,712.7168963249751
816.055,605.8008070635819
818.521,546.1986912184507
820.984,484.62505397884297
823.446,448.3183382903271
825.906,400.5171118120461
828.365,334.84101577874526
830.821,272.2907614818437
833.276,249.48622198860267
835.729,214.80928576606948
838.181,191.64194840025766
840.631,164.50916622009527
843.079,144.17409087375427
845.525,156.6856848573575
847.97,154.37871799607728
850.412,187.397573449025
852.854,186.22005371415435
855.293,129.94309139505367
857.731,111.52084092012319
860.167,101.90753216651274
862.601,75.29556217929667
865.034,107.11549165255929
867.465,138.7503271247615
869.894,117.2498031741161
872.321,106.47323604253143
874.747,89.32761535479858
877.171,79.38664821872271
879.594,97.12885094430658
882.014,134.79468838198727
884.433,126.29133230848174
886.851,111.8593245745401
889.266,87.92971644317504
891.68,119.2669222135969
894.092,148.3496680832518
896.503,163.51384577176213
898.912,179.8572709067662
901.319,210.62063188595766
903.724,194.28272445340417
906.128,191.13187675206063
908.53,190.78975532865252
910.931,152.6399330433328
913.329,164.54217126504227
915.726,194.02289254306925
918.122,189.94184375480017
920.516,188.87304496775232
922.908,210.96192877779868
925.298,176.49676536167044
927.687,174.5277065770847
930.074,195.58106815810606
932.459,182.7545642914606
934.843,181.52682790714152
937.225,211.04312144520236
939.605,204.21057143207827
941.984,199.74578400929204
944.361,221.69865093834505
946.736,193.73806036751785
949.11,178.05665521771016
951.482,191.98987728257453
953.853,194.06358275721914
956.222,192.6607053859616
958.589,167.59268151483911
960.954,140.7184941917435
963.318,137.08752679035524
965.68,144.84432139598948
968.041,143.99048004858696
970.4,141.38466122379032
972.757,98.74257631402361
975.113,53.541748014332825
977.467,30.64055442251356
979.819,23.0877493297171
982.17,9.693887272958818
984.519,6.840843825725642
986.866,6.862766772827399
989.212,12.284171141041952
991.556,46.67708255676371
993.899,103.37532416970498
996.24,115.95070958994756
998.579,101.54637868214195
1000.92,80.40060955017498
1003.25,63.41824956946493
1005.59,48.885003562105794
1007.92,77.80076959105872
1010.25,89.49868904005825
1012.58,83.64514907447847
1014.91,80.90645176886096
1017.24,98.09167371063359
1019.56,79.15266846097438
1021.88,76.18406901566664
1024.2,66.18519502786944
1026.52,54.583864792782606
1028.84,45.950683422797056
1031.16,71.09428340358477
1033.48,107.68037467400859
1035.79,136.27936613459428
1038.1,131.84255858458368
1040.41,143.74976623041016
1042.72,142.23789057513545
1045.03,130.68663716502238
1047.33,144.61851805039896
1049.64,140.8893304369999
1051.94,133.59292105158897
1054.24,152.96595050758356
1056.54,166.34027671830313
1058.84,162.38105259592385
1061.13,172.03910946472388
1063.43,181.3128642838542
1065.72,219.58165544153303
1068.01,214.0819356921022
1070.3,213.33584604545536
1072.59,196.6274087040913
1074.87,184.28824380968535
1077.16,168.17376238014276
1079.44,202.13935924665293
1081.72,230.2308917050225
1084.0,283.44658673844515
1086.28,350.11799585931635
1088.56,424.10047376056787
1090.84,493.2969903003393
1093.11,564.8009901057026
1095.38,601.1344902716214
1097.65,567.6766542503906
1099.92,492.2352228839284
1102.19,406.7131835313137
1104.46,364.29924872013135
1106.72,336.27738241686666
1108.98,357.8839453449184
1111.24,376.0696022073728
1113.5,403.7850384335841
1115.76,439.9333435924266
1118.02,521.2747757579227
1120.28,564.9981925415316
1122.53,626.8639106958772
1124.78,614.0132323851287
1127.03,581.4446381220635
1129.28,509.06140827654986
1131.53,453.1954350602259
1133.77,372.60722498736163
1136.02,357.0573299071559
1138.26,339.2587304169854
1140.5,418.40064784708284
1142.74,477.6247371976001
1144.98,533.2155657899491
1147.22,565.9339490610064
1149.45,539.2550482620777
1151.69,475.22551577691706
1153.92,450.46349758258975
1156.15,406.9681595198724
1158.38,356.45302308745613
1160.61,313.6793012361577
1162.83,253.88447225836467
1165.06,197.49656796320141
1167.28,151.3722713755003
1169.5,134.46358586335054
1171.72,103.24640902755164
1173.94,70.81577325772878
1176.16,72.45727676464276
1178.37,62.55184794583397
1180.58,58.19479546555476
1182.8,35.48152500136803
1185.01,27.74563694312519
1187.22,4.177976472889895
1189.42,0.15996935914995447
1191.63,-10.783994629922972
1193.84,-29.177035015346746
1196.04,-25.351682450529097
1198.24,-4.7832103223745435
1200.44,21.910363621958822
1202.64,62.825415598163545
1204.84,69.05842500996027
1207.03,66.70597167236997
1209.23,74.05520922546475
1211.42,91.06005283384025
1213.61,124.48403355274513
1215.8,157.51934317040877
1217.99,189.50111714560853
1220.18,228.66933659285291
1222.36,222.54977788660995
1224.55,237.43020036077723
1226.73,236.88415305576405
1228.91,216.05668622748522
1231.09,208.14053904682896
1233.27,194.99518444198338
1235.44,205.48015965504965
1237.62,229.74077775103478
1239.79,291.9224105554142
1241.96,347.3133430202713
1244.13,447.5828656856613
1246.3,534.0193671409941
1248.47,671.5779502959294
1250.64,829.1185248417548
1252.8,1018.5486616175244
1254.96,1248.1093041190516
1257.13,1527.803337150763
1259.29,1771.6336792870802
1261.44,1977.0318515242666
1263.6,2079.9055935513243
1265.76,2059.4960038304152
1267.91,1972.8061082487131
1270.06,1812.2199049607293
1272.22,1611.9309330401686
1274.37,1403.2279839889268
1276.51,1192.2093846746484
1278.66,1016.8306136016188
1280.81,894.9042981340401
1282.95,812.4335450526396
1285.09,722.3738425398515
1287.23,630.9187716888077
1289.37,598.0714322980455
1291.51,604.6920591423957
1293.65,626.450400148645
1295.78,663.6352374283372
1297.92,696.9162892629563
1300.05,744.153731136737
1302.18,855.493431055178
1304.31,972.1288515302363
1306.44,1055.96771347027
1308.57,1131.1081838795196
1310.69,1226.0769683194846
1312.82,1335.8769271798299
1314.94,1444.0823109969085
1317.06,1512.2197100579954
1319.18,1546.6251944817154
1321.3,1518.4443114413266
1323.41,1455.8701776261
1325.53,1388.8101431312748
1327.64,1280.6953124908623
1329.75,1151.4329228533152
1331.87,1050.025388823859
1333.98,901.5702996877744
1336.08,766.2127975860622
1338.19,653.4312890244396
1340.3,546.037442096635
1342.4,448.93808846957245
1344.5,375.80188727332825
1346.6,299.24979851488933
1348.7,219.37888982524828
1350.8,184.04804796839653
1352.9,188.30654749317728
1354.99,197.48928605180936
1357.09,193.59773400412632
1359.18,181.29993164086318
1361.27,146.4066768831317
1363.36,170.82390345808358
1365.45,186.07648764600913
1367.54,198.97491217028733
1369.62,177.3295491349511
1371.7,156.8078001051142
1373.79,154.5531409493019
1375.87,187.99464287226078
1377.95,192.4183982096772
1380.03,195.68180336574437
1382.1,166.02307984597587
1384.18,146.1088905281092
1386.25,133.46290831397005
1388.33,103.22771811465714
1390.4,73.593385502405
1392.47,42.94031107672754
1394.54,-7.541724693252036
1396.6,-9.520230912183479
1398.67,-5.37714755184038
1400.74,-7.113606640838952
1402.8,32.60244833148499
1404.86,37.43626146193651
1406.92,29.52911983396507
1408.98,73.26025983501836
1411.04,106.58020204532477
1413.09,133.86789863248987
1415.15,196.74026169847093
1417.2,277.4807392456016
1419.25,369.896462571186
1421.3,460.2706317573386
1423.35,526.1720440179572
1425.4,512.1693839504712
1427.45,463.30741854948747
1429.49,419.9165255537657
1431.54,349.13650750748684
1433.58,253.059453440565
1435.62,210.30117197752975
1437.66,165.3345292083177
1439.7,172.15611989239096
1441.74,184.2386529485766
1443.77,192.10238456394313
1445.81,187.69607511221443
1447.84,200.44461273884394
1449.87,201.53473218419185
1451.9,206.3912097971704
1453.93,218.01020140603714
1455.96,252.7687706653769
1457.98,316.8058459745132
1460.01,413.02222501496954
1462.03,527.3186745260282
1464.05,677.3578396040946
1466.07,911.8975815734941
1468.09,1203.0290777620232
1470.11,1553.4625403241296
1472.13,1912.8605541116972
1474.14,2255.266652640089
1476.16,2553.2005607208366
1478.17,2718.658198999106
1480.18,2757.1593075387673
1482.19,2656.937926550334
1484.2,2409.5614485474616
1486.21,2052.0258609796488
1488.21,1632.374798388746
1490.22,1212.0804993273641
1492.22,896.6628585153778
1494.22,655.6894313773903
1496.22,496.9659147706634
1498.22,341.58377057019925
1500.22,216.5868968728646
1502.22,143.87639443960234
1504.21,104.543904566229
1506.21,85.2525660018448
1508.2,79.61797186724539
1510.19,64.01769800190709
1512.18,43.591307501444135
1514.17,41.2403552550702
1516.16,16.00934486401252
1518.14,4.419066512307836
1520.13,-8.390541352877108
1522.11,-4.041339864736301
1524.09,-5.774128056503969
1526.07,-3.5438772710092508
1528.05,-16.924489786360937
1530.03,-20.870700882364872
1532.01,-19.003790787419575
1533.98,11.53127304719169
1535.96,11.542024820226516
1537.93,0.4075444123516263
1539.9,22.364168084678568
1541.87,39.36262774871989
1543.84,72.02042837243971
1545.81,101.43136824344401
1547.78,87.35601161312752
1549.74,78.36454229319975
1551.7,128.408188680781
1553.67,145.5811249739761
1555.63,203.12046762553678
1557.59,255.45389084415024
1559.55,271.34248019096935
1561.5,307.8331099856641
1563.46,343.8298683315211
1565.41,339.5226249976911
1567.37,342.815599301435
1569.32,319.6606898951309
1571.27,261.05747121995046
1573.22,231.67223757858096
1575.17,189.45704720794834
1577.11,176.17352825670537
1579.06,170.05954190557486
1581.0,169.30536929722007
1582.95,179.5775175137228
1584.89,187.35204936359628
1586.83,183.7717226926045
1588.77,170.02693921839932
1590.7,126.07002669848112
1592.64,102.0914258600701
1594.58,81.68635352044976
1596.51,60.83098951683428
1598.44,35.52533030289783
