Raman Shift,Processed Intensity
331.095,68.41898730434605
333.909,56.60511223035701
336.721,23.13285719093801
339.531,-6.83110431766454
342.339,2.3322958123289936
345.145,81.09928903458785
347.949,143.42232459729075
350.751,162.77769542034184
353.55,169.4036401630492
356.348,174.1574929108674
359.144,191.03949952880293
361.937,242.85949115767835
364.729,259.76070056753224
367.518,268.93405470150947
370.306,281.47532436260735
373.091,318.6708453289957
375.874,398.9499061360143
378.656,439.0276120486333
381.435,395.19060617678724
384.212,277.58279059069264
386.988,131.25295219808277
389.761,20.20238862142378
392.532,2.5277721703946554
395.301,-3.0074147570790046
398.068,-24.115729988066505
400.833,-25.65243141168048
403.596,-15.948803788161513
406.358,8.23546422365689
409.117,5.617043071649277
411.874,5.674675942045269
414.629,-28.112725776634306
417.382,-49.027986415170744
420.133,-41.63947407481146
422.882,4.484611720287376
425.629,89.72861272261889
428.374,188.95320784771366
431.117,284.87635245714455
433.858,387.2637507468503
436.597,465.26218527832407
439.334,526.5899893669452
442.069,609.1084718512634
444.802,614.1076275765618
447.533,594.0680383546128
450.262,606.2799167805815
452.989,632.0335786213591
455.714,671.5718199658045
458.438,702.8518181845152
461.159,650.6879852705479
463.878,595.2757735610767
466.595,553.0488147924016
469.31,506.34558296447904
472.024,487.45700958638963
474.735,507.5788608265766
477.444,489.00220990117305
480.152,517.6372427956571
482.857,511.2513497007935
485.561,459.6595974009638
488.262,461.86758261486875
490.962,507.97619009813843
493.659,560.6577793173651
496.355,639.2514187431993
499.048,654.7152630005758
501.74,680.3408347808427
504.43,738.5625448491292
507.118,810.4338787183874
509.804,958.5321547520007
512.488,1069.720425123537
515.17,1158.2903291574535
517.85,1256.5335180983689
520.528,1339.2178417851082
523.204,1411.2540115152074
525.878,1505.7432152903848
528.551,1513.2628283000945
531.221,1495.1997424526971
533.89,1481.0360768590158
536.556,1482.2539359349548
539.221,1488.9544532183918
541.883,1518.5244542336823
544.544,1506.1126431657058
547.203,1472.6772181053384
549.86,1491.2239624853887
552.515,1522.949098421298
555.168,1581.2869019565992
557.819,1686.6716040226615
560.469,1734.013577112713
563.116,1799.032664813018
565.761,1909.401035143569
568.405,2039.5050815178383
571.047,2157.6358951310967
573.687,2234.608308777309
576.324,2238.9037501898324
578.96,2293.2892858583223
581.594,2298.246188655149
584.227,2328.350886414203
586.857,2322.8940057477853
589.485,2241.927987292078
592.112,2080.1242247621294
594.737,1957.344489721133
597.359,1795.688546825897
599.98,1647.256054786611
602.599,1533.7179911361136
605.216,1443.7452198563142
607.831,1358.9608685284193
610.445,1365.0355626260125
613.056,1452.9731359986113
615.666,1580.3011032599888
618.274,1770.4992274145911
620.88,1990.6185636744299
623.484,2255.18621756168
626.086,2533.5386744398697
628.686,2731.4884623783923
631.284,2853.4193864455965
633.881,2876.191286811395
636.476,2793.663844468926
639.068,2641.220386956211
641.659,2426.5774083635156
644.249,2098.7845655312026
646.836,1759.0818171047094
649.421,1430.6137054466917
652.005,1141.5245909301016
654.587,900.9110290884205
657.166,721.2979572896975
659.745,554.9244052201025
662.321,420.2196815579705
664.895,312.8509892192719
667.468,242.53294536498015
670.038,188.8847204560675
672.607,166.14432016564479
675.174,141.644772053005
677.739,137.33793128528077
680.303,112.17542921624909
682.864,88.82295529846033
685.424,43.041205662040284
687.982,9.923974550637467
690.538,-10.578039956923476
693.092,-0.514378015305283
695.645,17.684231512640963
698.195,32.682062210634285
700.744,39.23839072958981
703.291,37.58845169209735
705.836,20.633919788383082
708.38,17.942919653358786
710.921,50.559563336364135
713.461,80.00396609036352
715.999,144.1770259118257
718.535,182.21758403298873
721.069,179.7881568426801
723.602,180.0749535214327
726.133,164.40694129564872
728.662,121.68443450128461
731.189,98.2838741237374
733.714,58.81975019485344
736.238,38.8589051423337
738.759,30.06340856770339
741.279,39.09533678619164
743.798,45.045361890422555
746.314,25.051817004576606
748.829,-1.1754765566688548
751.342,-2.2123345101649647
753.853,-17.682096731069578
756.362,-14.969895332008946
758.869,-16.36549417081187
761.375,-34.44422538057597
763.879,-43.4479273994225
766.381,-45.33255130832413
768.882,-28.95862788702516
771.38,5.1468321728107185
773.877,29.36176658889235
776.372,46.397629699935806
778.866,62.39462734396784
781.357,65.15980887948899
783.847,79.64325444473297
786.335,101.03330983597198
788.821,147.80420233821087
791.306,226.8112756034925
793.789,338.1005102434847
796.27,465.0989968030299
798.749,608.4244563527363
801.227,711.9804753672779
803.702,812.7184072703726
806.176,866.3516549321325
808.649,876.4509055473741
811.119,867.158413132976
813.588,833.473709596662
816.055,773.634553901019
818.521,681.355024084668
820.984,598.6350378548577
823.446,524.8555874657823
825.906,466.25492697783875
828.365,425.59523570736474
830.821,412.54356739066134
833.276,354.5766088718233
835.729,326.50448640962213
838.181,278.37552436533224
840.631,223.23814674770847
843.079,205.71230256747458
845.525,211.5608911918439
847.97,222.02309246093546
850.412,222.05245870895806
852.854,212.03119726157092
855.293,177.1987386475389
857.731,167.36601909609817
860.167,171.34404874861457
862.601,174.0867655845168
865.034,177.35769887104925
867.465,165.11091832730426
869.894,139.63388805015984
872.321,144.88079663069448
874.747,133.32969679440976
877.171,110.50631170810948
879.594,118.03165081059205
882.014,126.38391135762959
884.433,137.08895139551305
886.851,164.29171511554978
889.266,168.99432487523063
891.68,176.6751256003431
894.092,204.76487204423256
896.503,241.1229160470607
898.912,245.46577474744254
901.319,262.7956987940952
903.724,235.44828817652433
906.128,215.42582234143583
908.53,201.49249507104105
910.931,213.1744112661395
913.329,225.56910753871534
915.726,263.3455489950047
918.122,254.45841173285362
920.516,246.19569867240807
922.908,244.4644506249033
925.298,230.17169545669503
927.687,199.98634963424092
930.074,194.33921500717634
932.459,209.5658327342444
934.843,242.09695625684526
937.225,282.55378617735096
939.605,281.70034799454515
941.984,279.25301269621787
944.361,252.7852554469864
946.736,235.34669999041034
949.11,207.32025828920223
951.482,200.70784159399682
953.853,209.27321436927332
956.222,222.0658006002236
958.589,195.32544248057775
960.954,176.91096862423638
963.318,150.87161941976092
965.68,178.73275809914776
968.041,183.9720579970749
970.4,180.7814040958615
972.757,139.25736599899756
975.113,99.40119471419985
977.467,59.166438484085575
979.819,38.79227290256358
982.17,7.613021507415397
984.519,26.29624780144968
986.866,19.890371083178707
989.212,37.443711654112576
991.556,60.052110127665856
993.899,66.71607258908807
996.24,64.95982051730289
998.579,71.11700737340561
1000.92,49.56881614155054
1003.25,28.31539020316677
1005.59,40.64250230641619
1007.92,52.835842583265276
1010.25,58.56197323322658
1012.58,52.773092730912595
1014.91,42.13560955739604
1017.24,24.98252545537798
1019.56,52.40867582722376
1021.88,46.175493942512276
1024.2,44.66339419321503
1026.52,47.53844106315455
1028.84,88.13330381174
1031.16,109.39963972913665
1033.48,154.38428691525223
1035.79,138.9911713444344
1038.1,130.83845202540851
1040.41,127.02042806597638
1042.72,135.6789695472371
1045.03,137.8130436359088
1047.33,157.8501454585471
1049.64,136.74153849957838
1051.94,127.20035214218615
1054.24,123.03491730443238
1056.54,115.29162588489999
1058.84,116.58826639881454
1061.13,120.87593104273492
1063.43,116.81997037829069
1065.72,146.22856706353332
1068.01,163.1479762509648
1070.3,180.43395646174872
1072.59,187.4184385551623
1074.87,192.00476612661623
1077.16,187.28674542948943
1079.44,209.02483815410437
1081.72,227.26521134956033
1084.0,269.95878734556345
1086.28,314.86600795997197
1088.56,394.2235034682483
1090.84,471.07742823957597
1093.11,539.2358439920208
1095.38,574.2687220953171
1097.65,536.9365173022234
1099.92,436.0473129084439
1102.19,361.4092040077953
1104.46,307.4969664616567
1106.72,303.2615830112759
1108.98,356.7016741519826
1111.24,408.5777861502545
1113.5,435.0790600131654
1115.76,470.3946623625927
1118.02,515.1423591665698
1120.28,564.8923275658792
1122.53,625.6909677006424
1124.78,619.9656669178594
1127.03,546.8581354075197
1129.28,453.08155136252685
1131.53,400.1586585195696
1133.77,352.32653036666557
1136.02,354.20323911260175
1138.26,363.50214370399635
1140.5,401.2223683185548
1142.74,447.64880466784643
1144.98,555.9235428715122
1147.22,583.8553975695729
1149.45,591.5389578442562
1151.69,552.9260180942065
1153.92,500.2541517658385
1156.15,425.2371898465981
1158.38,381.20808031060096
1160.61,304.6426999452194
1162.83,222.5884280824273
1165.06,160.85462509205604
1167.28,126.06025373218677
1169.5,90.96721478526251
1171.72,90.14701602753166
1173.94,90.74267929372695
1176.16,59.13540944650936
1178.37,42.03983477447855
1180.58,26.170675961609504
1182.8,-2.0429658956877574
1185.01,6.780488252297118
1187.22,-3.54871181245926
1189.42,-21.22021491326791
1191.63,-24.614041882748097
1193.84,-10.395821245667094
1196.04,-19.27869390099795
1198.24,-1.1661729284453486
1200.44,-0.8188140538304651
1202.64,2.1933974417338504
1204.84,33.01485016193578
1207.03,82.45668137419943
1209.23,106.13962821989435
1211.42,147.25592998115144
1213.61,176.33123034767596
1215.8,198.22457492166268
1217.99,212.79507538936105
1220.18,245.3780975021732
1222.36,251.88049667679388
1224.55,230.92347264297405
1226.73,203.6044717103332
1228.91,172.02099379708534
1231.09,154.69916136351776
1233.27,164.11752644071612
1235.44,185.80230623071748
1237.62,233.23214251618583
1239.79,286.17143249865785
1241.96,385.6703263034583
1244.13,488.0647244846127
1246.3,583.8334183869092
1248.47,719.836182888911
1250.64,903.6471072412073
1252.8,1112.2212592379947
1254.96,1395.1803970077085
1257.13,1676.051061756038
1259.29,1943.5026705089335
1261.44,2185.0617993318106
1263.6,2320.302657024949
1265.76,2326.2280350093492
1267.91,2193.745495307848
1270.06,1978.905463288112
1272.22,1754.5202727866022
1274.37,1551.8308302801497
1276.51,1361.5066123908691
1278.66,1184.6456633910707
1280.81,1019.6317355653082
1282.95,869.1819057629077
1285.09,781.3941919504873
1287.23,691.8904078597184
1289.37,665.9113985874765
1291.51,631.650371434077
1293.65,668.4433695986618
1295.78,716.6264125412513
1297.92,791.7259696781257
1300.05,845.3161007438689
1302.18,982.9232152010359
1304.31,1058.9308316498145
1306.44,1198.0081467614955
1308.57,1310.348128021472
1310.69,1415.6198921865266
1312.82,1500.063940884961
1314.94,1613.2540628834122
1317.06,1661.0973315917436
1319.18,1712.5483882822386
1321.3,1732.657058642118
1323.41,1722.7112074213042
1325.53,1632.1414978420862
1327.64,1509.8547224373515
1329.75,1348.94808626977
1331.87,1166.0425377700171
1333.98,994.1399090988252
1336.08,858.4324374613961
1338.19,710.2551435646878
1340.3,596.7524957889686
1342.4,518.0688838831907
1344.5,443.82480694607784
1346.6,363.0692518834012
1348.7,328.51778615097373
1350.8,277.028745735729
1352.9,231.03180408917933
1354.99,181.28987439420598
1357.09,155.5181546889953
1359.18,160.33650632431272
1361.27,178.5551657540991
1363.36,176.9366468022672
1365.45,182.3385953104398
1367.54,146.66616759521457
1369.62,140.8244089054274
1371.7,158.0992033079783
1373.79,173.5382235736679
1375.87,186.52235725350283
1377.95,201.7180851359658
1380.03,197.93462160904573
1382.1,180.40962645084073
1384.18,168.76158328683277
1386.25,138.89455899953464
1388.33,81.23629647147436
1390.4,46.78583113769628
1392.47,39.92301230017392
1394.54,27.02754825173497
1396.6,29.383770500188803
1398.67,-3.3907883482756915
1400.74,-27.44062337735545
1402.8,-37.24367355943923
1404.86,-25.039881186413595
1406.92,14.406912206142351
1408.98,45.285160808273304
1411.04,75.78323524270468
1413.09,121.42275905683482
1415.15,180.58242140519633
1417.2,264.1170278271609
1419.25,386.40512245321224
1421.3,479.25375306836577
1423.35,539.2794266517697
1425.4,538.527160154408
1427.45,502.80381699108307
1429.49,435.67811019906867
1431.54,362.14727226341824
1433.58,282.1608677994209
1435.62,240.28746337790358
1437.66,237.23844020769207
1439.7,230.82037824663212
1441.74,227.7445831697537
1443.77,201.24613714695283
1445.81,192.0362829540136
1447.84,193.39766522647847
1449.87,212.47004790400115
1451.9,207.34555548422327
1453.93,246.11629522902558
1455.96,297.0648365136401
1457.98,390.75945208052644
1460.01,472.863645007533
1462.03,609.6123423427325
1464.05,787.3833268344883
1466.07,1034.078192471046
1468.09,1334.550919067746
1470.11,1708.5126373304165
1472.13,2101.2459177282913
1474.14,2493.5571546050237
1476.16,2869.4432360039827
1478.17,3093.1391658745147
1480.18,3135.737114849615
1482.19,3022.9959472140963
1484.2,2730.0555097775004
1486.21,2278.1985397946373
1488.21,1803.6601919337393
1490.22,1361.5804223874832
1492.22,994.3849444125688
1494.22,742.3090410121629
1496.22,560.3023299992967
1498.22,422.6478147745397
1500.22,301.1999827227346
1502.22,229.0990940859117
1504.21,148.62832797906458
1506.21,98.97569031068929
1508.2,64.3292550366566
1510.19,26.210500652176506
1512.18,-5.430448554324357
1514.17,-3.4529145806618544
1516.16,-27.097091123680457
1518.14,-17.126897563472085
1520.13,-4.258547233307354
1522.11,-7.589118486368534
1524.09,-7.358460832017045
1526.07,-6.568243929203163
1528.05,-1.9343399132114882
1530.03,-8.791586674786004
1532.01,-1.2366463773473697
1533.98,10.91961221626866
1535.96,1.247349578623016
1537.93,0.31680077629243897
1539.9,12.364939876111293
1541.87,5.438334827608514
1543.84,20.01219282162924
1545.81,35.13321517277109
1547.78,35.51483315419364
1549.74,60.01339621338843
1551.7,100.10436018794417
1553.67,151.9775231403637
1555.63,202.67988024049941
1557.59,270.7346691241805
1559.55,314.95089144230883
1561.5,346.04235821948214
1563.46,390.19911616499803
1565.41,391.3731596981454
1567.37,348.8974763068311
1569.32,287.7241395252495
1571.27,222.8528781020334
1573.22,176.75964516839895
1575.17,170.44423502534778
1577.11,174.85885231181192
1579.06,155.52715736327855
1581.0,140.40140680850823
1582.95,140.71959416625555
1584.89,146.672114251513
1586.83,150.68747520080092
1588.77,145.76562954507835
1590.7,121.62082909217065
1592.64,144.9673369520542
1594.58,158.66228241928502
1596.51,128.61042061733247
1598.44,22.645082619098503
