Raman Shift,Processed Intensity
331.095,46.59519580677306
333.909,-27.18715568627158
336.721,-43.69520247361061
339.531,-22.095606562708326
342.339,0.9211698335652727
345.145,69.52182133709721
347.949,95.27782311134297
350.751,73.80829266337832
353.55,88.208565931679
356.348,64.28829718341422
359.144,66.66670176889102
361.937,92.67732268552436
364.729,118.03470190371081
367.518,128.97724216890265
370.306,151.45768785129485
373.091,215.8097962717061
375.874,293.03405664652246
378.656,326.5595995088129
381.435,317.2918204151724
384.212,235.945717938273
386.988,129.42685070703237
389.761,82.35515158964472
392.532,48.49350378136569
395.301,48.89060260659335
398.068,15.73810303522987
400.833,20.89443386572566
403.596,17.741945241444228
406.358,-4.813085116193179
409.117,-11.626157851049356
411.874,-2.9335894006394483
414.629,-31.066788064608318
417.382,-47.73796001630353
420.133,-41.42105375570236
422.882,-16.9231847955557
425.629,60.94869491159807
428.374,169.86397888685497
431.117,283.8731571941739
433.858,327.2173362224562
436.597,400.518710848562
439.334,429.9234175527222
442.069,427.8158161053643
444.802,451.62800934918596
447.533,446.83983917168734
450.262,456.83602533486055
452.989,502.2871138286828
455.714,511.8637585579495
458.438,506.85576493387
461.159,511.1720858466165
463.878,445.10272239978076
466.595,414.31871988292505
469.31,352.5864494584089
472.024,302.1485565148905
474.735,316.6763375922528
477.444,337.84116492557996
480.152,352.74305384627996
482.857,360.52970637367844
485.561,333.0631738542311
488.262,360.58651960074667
490.962,420.1523862935078
493.659,466.5277538575938
496.355,536.3367925782873
499.048,537.346573359333
501.74,506.4194446478732
504.43,573.9892188831855
507.118,625.0135494216165
509.804,658.9263074615155
512.488,710.63757801578
515.17,776.152703503461
517.85,837.2389463889758
520.528,943.7111994403772
523.204,1001.9557912257201
525.878,1055.0257201808504
528.551,1068.0692220105316
531.221,1099.1392894705168
533.89,1129.9079540543826
536.556,1152.8091391089288
539.221,1125.1815129495772
541.883,1121.5541991186365
544.544,1077.122962834038
547.203,1026.845445057122
549.86,1019.6316346556569
552.515,1030.0581500906883
555.168,1077.7968068176765
557.819,1145.0908037352424
560.469,1216.2785286815429
563.116,1270.3649829782585
565.761,1339.3551107364874
568.405,1373.20617578169
571.047,1428.589662388154
573.687,1480.9865093467952
576.324,1539.687105937724
578.96,1572.934145045666
581.594,1583.779761989676
584.227,1566.1807685909325
586.857,1499.7129348596004
589.485,1444.2376516340582
592.112,1394.854307505855
594.737,1308.9955228875128
597.359,1185.9509555089112
599.98,1072.0577725803264
602.599,962.5577896221553
605.216,920.2165140565335
607.831,898.5612364180115
610.445,910.0715025166055
613.056,920.8457760770343
615.666,1001.9347680446358
618.274,1118.6747658912745
620.88,1282.4971533974485
623.484,1422.5474542439165
626.086,1607.2567565557029
628.686,1738.2940898270617
631.284,1843.7092780369176
633.881,1885.6948403833599
636.476,1885.919320589563
639.068,1735.8606162097117
641.659,1535.7583555539586
644.249,1326.3281793753063
646.836,1071.8093558898067
649.421,880.9171577015322
652.005,768.509524441828
654.587,587.7299158847586
657.166,439.435879348272
659.745,356.86571233345694
662.321,256.35274421142367
664.895,180.42057029113676
667.468,162.21161922058218
670.038,111.72524419745014
672.607,91.00819513220176
675.174,71.86890033493819
677.739,43.78222439275896
680.303,20.175178428069557
682.864,40.56977321403065
685.424,36.202067289254956
687.982,36.83169345359147
690.538,24.45615128854979
693.092,-0.4034680772142565
695.645,7.440389341456466
698.195,26.55604276757913
700.744,2.1783075712346545
703.291,7.875179338221642
705.836,41.40499412918007
708.38,55.09739848891422
710.921,79.71051073022454
713.461,110.90712983677895
715.999,126.58808722313506
718.535,176.36845563760926
721.069,188.48232949373096
723.602,164.06855758263328
726.133,121.36123769021606
728.662,71.07068740478189
731.189,32.383462543728456
733.714,-1.1328625150076732
736.238,-45.29158116816507
738.759,-55.66778854142058
741.279,-57.74122020555615
743.798,-33.4676671461807
746.314,-3.1361110887683026
748.829,-5.463961366855074
751.342,17.641038129603203
753.853,24.74747343444733
756.362,21.185972604575
758.869,3.0492035334896173
761.375,23.33472890770372
763.879,28.94500402028325
766.381,49.115946012967015
768.882,35.94074121351878
771.38,41.2269858064119
773.877,15.734778884468597
776.372,24.129101214783077
778.866,36.932194004639314
781.357,51.47593766743012
783.847,45.806611540958784
786.335,87.82774884383116
788.821,140.87156306042561
791.306,185.74656480204567
793.789,237.35660723950195
796.27,324.1770743928346
798.749,386.1596408496107
801.227,445.684650530839
803.702,510.5611145045027
806.176,556.8362326086208
808.649,584.4620579314437
811.119,594.8669231964136
813.588,548.6697242899804
816.055,484.1561085513199
818.521,429.2784725858646
820.984,370.08453150739797
823.446,318.3363643706293
825.906,273.74850722281144
828.365,248.0831890124964
830.821,236.57890083162783
833.276,218.7599175385776
835.729,214.2934384288169
838.181,171.0372040960474
840.631,166.13473234096546
843.079,163.63436360383594
845.525,141.39402068279105
847.97,116.74787321402846
850.412,119.83966881868082
852.854,109.7179690115936
855.293,129.33614701486567
857.731,127.31429033329277
860.167,118.93919856789626
862.601,88.87866694374952
865.034,66.89576983779762
867.465,58.84885859238693
869.894,79.16774980498349
872.321,108.56800885598614
874.747,138.28904296034807
877.171,148.80838469538594
879.594,126.12740410001607
882.014,101.3903541073305
884.433,109.93198740573371
886.851,110.65850663342826
889.266,120.85708600146563
891.68,129.38634529775072
894.092,125.72396674819947
896.503,131.20478806835808
898.912,159.54460980074782
901.319,169.6020978902966
903.724,199.99782911691545
906.128,206.25714605188136
908.53,185.61967868089118
910.931,163.03934221759596
913.329,163.47004920284485
915.726,177.96094541345542
918.122,204.6564076757386
920.516,211.55794644093226
922.908,183.85753693206334
925.298,174.27095029080192
927.687,170.94251329575468
930.074,178.9689156997888
932.459,181.54206518641627
934.843,191.6157518499797
937.225,188.71516981869945
939.605,184.46072459200855
941.984,177.75850704455092
944.361,170.18124362065805
946.736,178.87305605263236
949.11,169.88279250760297
951.482,161.64021587724324
953.853,149.67028730557672
956.222,142.83125924060323
958.589,158.3622922954412
960.954,178.8358340142306
963.318,165.01475954280568
965.68,165.09046468031624
968.041,154.77810178798813
970.4,126.69752998359832
972.757,104.1352177169008
975.113,82.04424058314748
977.467,63.282374374704204
979.819,66.42161670409268
982.17,54.84342291275334
984.519,12.262513408374616
986.866,15.488776240321158
989.212,11.522503008392277
991.556,30.07819748873999
993.899,62.10838587019589
996.24,75.23219010350886
998.579,102.54485363153572
1000.92,122.42726711943351
1003.25,114.73644656580018
1005.59,77.75791617572509
1007.92,34.96761504336291
1010.25,0.03189907260207292
1012.58,44.28373337391804
1014.91,48.43697989933116
1017.24,67.20544698549224
1019.56,69.54098651581262
1021.88,50.157305368319385
1024.2,39.81568162540202
1026.52,89.08687125975962
1028.84,96.39872910605663
1031.16,138.1314488802011
1033.48,159.37946986528868
1035.79,136.28481216897399
1038.1,130.17993579036465
1040.41,157.206790163111
1042.72,170.22157798419767
1045.03,201.0328523760802
1047.33,188.4491378583425
1049.64,183.46940846221332
1051.94,172.0926134641304
1054.24,158.31767930978322
1056.54,161.52446391910507
1058.84,139.33090146745553
1061.13,134.25967097632451
1063.43,165.21438871356236
1065.72,174.24151487932363
1068.01,187.05416505391509
1070.3,180.27020735992573
1072.59,164.60274057673996
1074.87,166.00295320743498
1077.16,194.18393492662244
1079.44,205.3349642187775
1081.72,244.6929388736985
1084.0,282.54237791055607
1086.28,323.2154235019241
1088.56,363.32993813591975
1090.84,463.2180779688092
1093.11,534.9262947490565
1095.38,562.1200996461241
1097.65,557.7031127935682
1099.92,478.721827117849
1102.19,386.603705500469
1104.46,349.53813508296867
1106.72,333.3811910957411
1108.98,322.3223054487398
1111.24,346.88426865551855
1113.5,393.399422233467
1115.76,442.2953749135627
1118.02,505.4283378977527
1120.28,532.0831267829922
1122.53,526.1160206281506
1124.78,526.4785734018606
1127.03,502.3604730494237
1129.28,451.76097198828325
1131.53,408.6317461749236
1133.77,335.92451607654016
1136.02,302.972000976039
1138.26,326.72601613417214
1140.5,345.4717604278651
1142.74,382.54210398854525
1144.98,403.7461615547527
1147.22,438.60738963427434
1149.45,468.935016999606
1151.69,486.0145228024703
1153.92,437.8933527835686
1156.15,354.1428259585284
1158.38,261.9057555895604
1160.61,226.3726415856852
1162.83,180.2102438553443
1165.06,146.18063184948483
1167.28,90.66499600941256
1169.5,43.66364969083179
1171.72,43.65317394504268
1173.94,56.68165753822814
1176.16,51.130603637408285
1178.37,39.14350316306013
1180.58,4.197265284588184
1182.8,-6.802542560398479
1185.01,-8.855026075379783
1187.22,-14.10205699810217
1189.42,-18.68541431837525
1191.63,-12.080116899864151
1193.84,-22.380138559797388
1196.04,2.2730176792183556
1198.24,2.214124994222402
1200.44,17.063749973104677
1202.64,28.252055777186797
1204.84,51.92355791696377
1207.03,24.270453186030636
1209.23,52.72309145214717
1211.42,51.33092363878609
1213.61,85.76249977964153
1215.8,90.68641945409831
1217.99,125.00942507984155
1220.18,126.20973330070683
1222.36,175.24179494596478
1224.55,174.86962641817354
1226.73,180.57156965246304
1228.91,133.54029017105313
1231.09,110.63515609015462
1233.27,106.28699807924522
1235.44,118.83144074891788
1237.62,154.79461499111267
1239.79,174.79791793838876
1241.96,202.6532491136786
1244.13,232.79157991337183
1246.3,306.40580880469065
1248.47,420.35552128496784
1250.64,569.4527022218742
1252.8,701.6522100984123
1254.96,881.4803464960037
1257.13,1032.9396160537647
1259.29,1210.699200713496
1261.44,1361.4282911075304
1263.6,1467.415132232299
1265.76,1470.8051167409403
1267.91,1417.8388782359148
1270.06,1277.8046702758993
1272.22,1123.181221573161
1274.37,963.2567816671258
1276.51,826.3672142169921
1278.66,698.6102807705424
1280.81,599.0837340567516
1282.95,529.2186493736517
1285.09,466.2556131190365
1287.23,433.3399589402254
1289.37,385.09319436001056
1291.51,389.7082369264165
1293.65,402.90179321960295
1295.78,469.29530928733584
1297.92,523.4149686995086
1300.05,566.3583572693235
1302.18,593.1277944411522
1304.31,632.0112837260067
1306.44,659.8206059941649
1308.57,747.8436984820721
1310.69,831.0827480849675
1312.82,907.301808459028
1314.94,971.6934647425608
1317.06,1029.069307801004
1319.18,1047.4789799005007
1321.3,1075.4482680005133
1323.41,1061.1695779988238
1325.53,997.2162185003419
1327.64,884.8281131573387
1329.75,774.4356082477798
1331.87,642.8499469203166
1333.98,554.7870767726188
1336.08,496.4390764773243
1338.19,432.6170109794209
1340.3,372.2747390745751
1342.4,303.223197177934
1344.5,243.22563547388086
1346.6,210.80713978008612
1348.7,179.6355819829771
1350.8,157.1882847589318
1352.9,138.03773391451568
1354.99,120.42300501243744
1357.09,115.82118999749696
1359.18,130.04263334634334
1361.27,143.2309301219973
1363.36,141.91054307599097
1365.45,127.74870546479974
1367.54,130.88875243769576
1369.62,129.23583337698892
1371.7,126.79024328588139
1373.79,159.79027798584116
1375.87,180.90270836160448
1377.95,186.6513498442623
1380.03,188.36944141816275
1382.1,171.67583415162449
1384.18,113.99879877526655
1386.25,104.33792849842916
1388.33,83.12127992082719
1390.4,83.34822822992646
1392.47,84.49422716021672
1394.54,72.12985466677719
1396.6,14.39700145597567
1398.67,3.485059516169713
1400.74,-17.273841732542905
1402.8,-1.2619786646498596
1404.86,6.423966572373729
1406.92,28.49671356704016
1408.98,26.95457196334064
1411.04,54.462392388973285
1413.09,73.1134726948992
1415.15,128.0962288694468
1417.2,202.36086595241795
1419.25,267.6193822825255
1421.3,325.4408118400688
1423.35,341.01313325628666
1425.4,320.09565501317775
1427.45,294.1618768338021
1429.49,257.3518748820993
1431.54,191.85325839128654
1433.58,162.75831676844996
1435.62,132.39735717531948
1437.66,120.5768040138123
1439.7,126.3411079353848
1441.74,123.11560723134176
1443.77,115.56367493742209
1445.81,140.96767546220235
1447.84,139.94325454882915
1449.87,144.7250578081837
1451.9,159.69054449013856
1453.93,173.31237268338737
1455.96,203.77745118194116
1457.98,272.9393246849502
1460.01,330.98484471082315
1462.03,423.10084051133595
1464.05,517.4265042714653
1466.07,650.7676810711275
1468.09,830.5968731326263
1470.11,1062.4818154966777
1472.13,1347.4188136031928
1474.14,1632.2136999196798
1476.16,1862.3866000934536
1478.17,1988.3147943419415
1480.18,1978.7089121763256
1482.19,1839.755793791844
1484.2,1642.880399077148
1486.21,1375.5553356712783
1488.21,1117.158006068255
1490.22,866.2087071026294
1492.22,664.2277770540773
1494.22,483.9260760853317
1496.22,335.5859428705769
1498.22,232.77548455718465
1500.22,161.0152476798321
1502.22,118.30203193175998
1504.21,82.48984679318278
1506.21,56.67086815969401
1508.2,27.127823542097985
1510.19,36.57209155195733
1512.18,39.857991863334064
1514.17,52.220884698337386
1516.16,18.42003221743289
1518.14,6.262412290705242
1520.13,-28.254420111833724
1522.11,-27.704233434695652
1524.09,-9.660686718038278
1526.07,10.493147757349789
1528.05,17.564782613923626
1530.03,35.40945537366656
1532.01,41.263458930564866
1533.98,51.172710118315536
1535.96,40.42131827804519
1537.93,28.817296683163704
1539.9,22.025893011840026
1541.87,35.90291981947553
1543.84,54.78046596355671
1545.81,58.371655647556736
1547.78,57.05635984578498
1549.74,81.69071725204594
1551.7,131.13094094258622
1553.67,166.61426789618736
1555.63,194.5208608952105
1557.59,205.99285328377618
1559.55,196.45815563071096
1561.5,208.4399766782044
1563.46,228.93777286190107
1565.41,222.66534068813417
1567.37,204.1936710159191
1569.32,197.80808905323443
1571.27,175.1749181628295
1573.22,162.7700484299396
1575.17,146.4503623728517
1577.11,123.26325589156795
1579.06,106.87520683551406
1581.0,109.09558166649003
1582.95,133.6861564073331
1584.89,147.69444711438973
1586.83,147.40608796903575
1588.77,137.01149508348317
1590.7,148.17729221134687
1592.64,128.04630788678242
1594.58,121.59471542075721
1596.51,93.72726813542249
1598.44,28.61062983657507
