Raman Shift,Processed Intensity
331.095,47.53148924858033
333.909,-23.38417048987867
336.721,-20.21469706781363
339.531,22.539914259089073
342.339,46.26063010470989
345.145,79.04271703014774
347.949,79.9814605737215
350.751,56.41026523336723
353.55,56.23399254427068
356.348,99.88134677555672
359.144,120.5905939603058
361.937,175.40956663986208
364.729,224.81471622718436
367.518,212.04445108449454
370.306,242.86104602949626
373.091,243.07445660350595
375.874,256.4470857205347
378.656,313.21759793541287
381.435,338.24378133097025
384.212,277.85969511950134
386.988,170.35186486326347
389.761,61.62595388546788
392.532,-11.74561293778288
395.301,-16.14269205222854
398.068,-11.754559338265608
400.833,4.753426763014886
403.596,5.0017318437217
406.358,1.1823603919547168
409.117,-14.084000278634903
411.874,-26.271787948466226
414.629,-39.5219923295972
417.382,-26.0707264044122
420.133,-5.011134334346934
422.882,31.754219286776333
425.629,61.08476635578063
428.374,127.88763727691094
431.117,229.7366999459514
433.858,328.4916053262932
436.597,382.2025473107119
439.334,454.34835591647834
442.069,431.7412571471291
444.802,426.2887757113831
447.533,442.13659012300286
450.262,453.5732925625716
452.989,460.5065773107035
455.714,508.0822863240919
458.438,501.73202624013584
461.159,483.9350710958447
463.878,409.075503141984
466.595,356.5850679429391
469.31,329.4669818575235
472.024,333.4864061864564
474.735,335.55139751031857
477.444,346.28433421799036
480.152,338.0219144636435
482.857,357.24372555231866
485.561,381.3341466588263
488.262,433.9156801180752
490.962,437.7537112868372
493.659,460.1850779293318
496.355,460.2133062694661
499.048,476.4609899002194
501.74,519.8364544073038
504.43,603.1051838976014
507.118,671.1279141942628
509.804,745.1463450794217
512.488,776.6879001559678
515.17,868.9466771855041
517.85,933.4024936643968
520.528,1017.868503828402
523.204,1086.4911966096543
525.878,1101.1789650222458
528.551,1123.602104119213
531.221,1127.668999425728
533.89,1113.0499344199065
536.556,1117.5104218231377
539.221,1128.9588206046965
541.883,1102.3510958435063
544.544,1100.9289119232358
547.203,1077.600582870235
549.86,1100.6077369771633
552.515,1128.3824576171196
555.168,1170.4996621529904
557.819,1210.1532903706147
560.469,1256.2039214833699
563.116,1311.2740101843765
565.761,1382.3193131748908
568.405,1448.4860299784282
571.047,1517.2060389929675
573.687,1569.6730859241152
576.324,1637.2237341230161
578.96,1657.9087911147558
581.594,1683.1123541743664
584.227,1678.5041892361824
586.857,1656.0397288508052
589.485,1553.3410225230264
592.112,1454.6491156211805
594.737,1336.4907140007836
597.359,1250.011515294841
599.98,1181.7857306803407
602.599,1157.0541780733083
605.216,1072.9147562762496
607.831,995.465300077969
610.445,947.3750067819656
613.056,978.8368151157783
615.666,1079.4245460451011
618.274,1227.7119483497895
620.88,1364.6060299141573
623.484,1538.442293779177
626.086,1676.8894980042
628.686,1823.6163202905896
631.284,1899.577070224398
633.881,1912.6307348523724
636.476,1834.0647861627313
639.068,1751.2618457087824
641.659,1583.7473016135127
644.249,1390.998830336072
646.836,1163.5416327239673
649.421,984.4722414938406
652.005,782.8394715693894
654.587,598.1682275621388
657.166,454.03093029983665
659.745,339.0951338310324
662.321,251.5044757629862
664.895,254.2596275995802
667.468,226.36114984113829
670.038,178.8571089890097
672.607,151.65259931205128
675.174,105.84307413692113
677.739,83.09529618598799
680.303,88.5520974390547
682.864,74.2609485188882
685.424,77.459670933893
687.982,65.3383397969751
690.538,32.467853211068814
693.092,52.60945403561891
695.645,27.238537367353274
698.195,15.639890063067014
700.744,18.621977881464318
703.291,9.802664074226414
705.836,-3.4860227199283145
708.38,9.373548050063164
710.921,7.570332133748707
713.461,66.24557147920996
715.999,115.82613716445212
718.535,147.54834930500783
721.069,153.79132077106078
723.602,120.69601519028447
726.133,80.16525733163826
728.662,40.72088634630745
731.189,0.8370994848392002
733.714,-23.392870852389933
736.238,-14.20912768374501
738.759,-2.327956205386272
741.279,0.2010413123671242
743.798,-0.48123841456072114
746.314,21.76613066211121
748.829,10.03649141199503
751.342,23.70894339596225
753.853,13.543587497974386
756.362,-14.175610395468993
758.869,-7.688431906358346
761.375,-18.71078058096782
763.879,-41.76800868660257
766.381,-39.95681543691535
768.882,-39.56428807436805
771.38,-18.35361384204998
773.877,1.7216326128282162
776.372,23.327011359242988
778.866,39.08054882648048
781.357,55.7432123054009
783.847,39.45700349732715
786.335,38.45924253912199
788.821,40.70161393303124
791.306,98.13587914319533
793.789,178.99958919215942
796.27,297.6256067811928
798.749,384.82305698203754
801.227,442.5916112619893
803.702,504.21672388993284
806.176,550.7934397709441
808.649,574.6073451380435
811.119,562.515518243938
813.588,510.61319433848485
816.055,431.2337639794864
818.521,366.377342772063
820.984,320.23457920326155
823.446,269.85331961952534
825.906,207.471939870823
828.365,158.37648647859078
830.821,139.80543685129305
833.276,153.99731664284172
835.729,189.09545996815314
838.181,185.81467438060963
840.631,179.91742965905132
843.079,136.45195135667063
845.525,81.08555244514628
847.97,57.77129829210935
850.412,38.12895735289203
852.854,40.206904243234476
855.293,58.33926090723253
857.731,60.71732349957438
860.167,46.81813212492352
862.601,71.21399295825177
865.034,68.57247655565197
867.465,66.84689235562064
869.894,52.13342984701558
872.321,48.81401402272468
874.747,48.79439892858181
877.171,66.26607073608056
879.594,67.99196033889757
882.014,70.925489282753
884.433,63.40104426669495
886.851,83.41968973962412
889.266,98.50630906825063
891.68,97.85245999076005
894.092,119.45923007048577
896.503,124.56580643529333
898.912,118.12566456458444
901.319,152.6160904096373
903.724,147.60960727585007
906.128,130.86921222879437
908.53,149.39599345264514
910.931,125.81008094195568
913.329,125.11254957437495
915.726,142.0187507548021
918.122,135.05354882144138
920.516,140.12274792805192
922.908,149.70356654523903
925.298,152.98749291413105
927.687,176.07075954767197
930.074,176.09719868429875
932.459,167.4487167892371
934.843,175.41195953198712
937.225,148.13069104952865
939.605,156.32007797142114
941.984,171.55240201633887
944.361,184.39991544574468
946.736,167.05388699375817
949.11,156.84840970178607
951.482,136.26039922934297
953.853,127.67149692677867
956.222,127.36806814610213
958.589,134.87453388514064
960.954,103.57241671741076
963.318,83.55748196008471
965.68,78.83021217528562
968.041,75.81961500471925
970.4,81.81179290906448
972.757,84.47375100260501
975.113,61.758157268811146
977.467,50.0938170616389
979.819,32.57614760682827
982.17,29.252890598442946
984.519,32.1241105096924
986.866,20.23743099899366
989.212,25.449937982697747
991.556,71.99960651734045
993.899,92.3624440146998
996.24,93.10963345685013
998.579,75.09800994455213
1000.92,29.08910867421241
1003.25,15.177736724369652
1005.59,30.077687699324088
1007.92,46.31221827753302
1010.25,38.97595489133005
1012.58,48.11584802570019
1014.91,63.016888421808744
1017.24,68.10687089958788
1019.56,61.242110561267964
1021.88,55.32649232824497
1024.2,44.692425239854174
1026.52,46.196082466424514
1028.84,72.31264132233855
1031.16,84.42199946956134
1033.48,127.85639588308095
1035.79,160.66231753063153
1038.1,188.55288224289393
1040.41,189.71736444084786
1042.72,202.2021494345413
1045.03,184.9107353409213
1047.33,184.07992547784625
1049.64,159.66078266286422
1051.94,146.31863113103987
1054.24,153.8140108337334
1056.54,182.14553649929258
1058.84,200.02609002706936
1061.13,217.64472716715431
1063.43,228.85715562868427
1065.72,234.8524036643396
1068.01,227.62901246436036
1070.3,211.28075236008613
1072.59,219.56805331321289
1074.87,239.3465782621845
1077.16,255.4719869447781
1079.44,267.99041400640704
1081.72,249.28132806079861
1084.0,243.9146764649663
1086.28,301.365172951324
1088.56,380.25039478360804
1090.84,473.94983229376226
1093.11,546.8906050854805
1095.38,569.5474639520426
1097.65,537.2999356512914
1099.92,476.0513724425182
1102.19,421.5622873376333
1104.46,372.4027369713908
1106.72,337.2856568525592
1108.98,346.1144823293869
1111.24,361.03076955506367
1113.5,389.7951497865183
1115.76,440.97780749273466
1118.02,490.9108632249756
1120.28,531.5455183917629
1122.53,568.8806286052829
1124.78,578.6769913135165
1127.03,546.7906810514069
1129.28,478.55400373964994
1131.53,426.6326414596683
1133.77,347.7875591333486
1136.02,292.4464350123062
1138.26,271.5608054528566
1140.5,296.5584477862358
1142.74,344.72433461737614
1144.98,426.29587383798594
1147.22,479.796243877714
1149.45,515.6058241934127
1151.69,488.43838766316617
1153.92,457.72205488507166
1156.15,394.74215323794147
1158.38,318.6412187991359
1160.61,242.3237601671733
1162.83,198.59911752242374
1165.06,145.80051216399602
1167.28,130.166000808533
1169.5,126.74323941281318
1171.72,112.05615175826438
1173.94,83.91445517833199
1176.16,68.69937676204086
1178.37,50.69698860517178
1180.58,36.193447823344286
1182.8,56.95118894605184
1185.01,69.87559250117647
1187.22,52.3959393137859
1189.42,21.798745757311963
1191.63,-0.2008057571754307
1193.84,-36.83981724408113
1196.04,-25.926718578974715
1198.24,-9.793644289877875
1200.44,5.798804165455749
1202.64,11.375840627978278
1204.84,55.89134676282333
1207.03,83.58501094469693
1209.23,116.0299445880014
1211.42,150.2755365722021
1213.61,176.13316481004404
1215.8,170.60476495862918
1217.99,176.8352086543107
1220.18,172.7313484142494
1222.36,164.62868158559127
1224.55,156.05325238988348
1226.73,159.10260158653364
1228.91,148.20766851722306
1231.09,129.37088362651116
1233.27,115.92807050624833
1235.44,135.78653841617688
1237.62,172.37746051882095
1239.79,227.2749187810416
1241.96,299.1006631613027
1244.13,363.4288707969331
1246.3,442.64328614377587
1248.47,538.0800754015511
1250.64,647.7421095106502
1252.8,785.8703900060643
1254.96,958.1345224903666
1257.13,1143.5374758209728
1259.29,1334.4631984402554
1261.44,1453.3432823247124
1263.6,1517.4188650293731
1265.76,1538.169198398867
1267.91,1457.1211696594464
1270.06,1330.8016796538598
1272.22,1182.9757353619382
1274.37,998.0750186116641
1276.51,864.7693119330945
1278.66,766.918876793244
1280.81,664.1458794500145
1282.95,621.4058168061199
1285.09,555.1779898820666
1287.23,490.41788205103444
1289.37,445.6047753690002
1291.51,415.17031928581196
1293.65,428.9747184038804
1295.78,524.6400630940179
1297.92,578.4074696350926
1300.05,629.518029877486
1302.18,677.927094239888
1304.31,711.5423642299008
1306.44,775.5572230598825
1308.57,866.3554948342137
1310.69,913.7971561175234
1312.82,953.6469046457664
1314.94,1010.0503470849224
1317.06,1053.8673296468403
1319.18,1109.0528877527004
1321.3,1142.7048623631413
1323.41,1121.540087736968
1325.53,1090.6086744279494
1327.64,1019.7701970435326
1329.75,879.3127391464079
1331.87,740.5719381560764
1333.98,637.6928873932723
1336.08,562.0110857434379
1338.19,520.6714825582837
1340.3,467.9618082716479
1342.4,365.8363812058201
1344.5,293.01134294930466
1346.6,234.25036992505648
1348.7,201.98371829204802
1350.8,186.0225069420776
1352.9,169.98728621085957
1354.99,155.5937494462646
1357.09,159.41463505274714
1359.18,141.2606761548243
1361.27,131.08535978436294
1363.36,122.27063844881673
1365.45,113.62692741374713
1367.54,110.05976865201092
1369.62,118.5698281262878
1371.7,127.1576549763588
1373.79,142.68082165878036
1375.87,151.23487361035882
1377.95,165.62951700686563
1380.03,174.5314731884298
1382.1,176.84542832301167
1384.18,142.6664116413167
1386.25,111.37503081455975
1388.33,78.11365971318196
1390.4,66.97691187985652
1392.47,70.86878066915574
1394.54,83.12168414913049
1396.6,64.25836714574325
1398.67,39.75380328729261
1400.74,14.844716096463344
1402.8,-2.0418522985789878
1404.86,-5.955206461445414
1406.92,-11.516232750073868
1408.98,10.60641296737117
1411.04,28.50583120119495
1413.09,65.41783197067343
1415.15,99.24474622424145
1417.2,141.9840020845918
1419.25,200.72812966520382
1421.3,275.2361944583006
1423.35,304.88618310375955
1425.4,300.53215106279026
1427.45,241.78994172017883
1429.49,189.94195310558484
1431.54,156.27047604340873
1433.58,143.2957942074206
1435.62,129.72856988966896
1437.66,119.75556310272896
1439.7,99.56344592004325
1441.74,109.81499776864416
1443.77,110.41101500758577
1445.81,103.63317288733379
1447.84,101.76307798534003
1449.87,123.22513016543053
1451.9,151.68176548957376
1453.93,212.93822293916946
1455.96,248.27588256490708
1457.98,281.69036554139393
1460.01,329.08201517415773
1462.03,424.92256838284334
1464.05,532.017065279643
1466.07,699.7895682715352
1468.09,900.8069764006254
1470.11,1149.7314111130527
1472.13,1420.1773639326511
1474.14,1697.0926536584293
1476.16,1893.329859752521
1478.17,2040.5510890614644
1480.18,2071.1327425374902
1482.19,1962.308377197901
1484.2,1753.1210918939746
1486.21,1460.9949606989169
1488.21,1149.1159901053377
1490.22,889.2892666989242
1492.22,659.4627714987748
1494.22,482.8702419167755
1496.22,346.5073670503141
1498.22,234.60798297500332
1500.22,163.73931565644307
1502.22,126.9924619572248
1504.21,94.0300135010782
1506.21,69.8955852989177
1508.2,62.63286818442066
1510.19,44.52372886864555
1512.18,30.992976661324974
1514.17,20.70360638263287
1516.16,13.652041274950307
1518.14,-0.5461478948973308
1520.13,43.05804769517317
1522.11,42.93755592950447
1524.09,22.755895183167695
1526.07,-3.4899637733819873
1528.05,-14.99340253630794
1530.03,-26.423864592308746
1532.01,7.930291946677244
1533.98,-12.600107579151427
1535.96,-16.82695915468048
1537.93,-10.895356295674674
1539.9,15.002122908091224
1541.87,27.95874602122103
1543.84,39.44886012023949
1545.81,36.89931612732789
1547.78,54.92755981072378
1549.74,76.67496088035819
1551.7,93.0449039882551
1553.67,113.36945115750063
1555.63,128.12362325883487
1557.59,174.4492052967637
1559.55,220.15474217186102
1561.5,259.14410587164
1563.46,260.9403007566673
1565.41,247.0187926561996
1567.37,204.23607605906318
1569.32,180.06776511404973
1571.27,168.4181132017427
1573.22,164.23905631586422
1575.17,177.57782787319138
1577.11,162.57695447585752
1579.06,133.42663262603105
1581.0,118.41234353583468
1582.95,106.20056317535636
1584.89,93.64828184447333
1586.83,97.70776183991029
1588.77,68.3312951223013
1590.7,48.70929431658715
1592.64,42.12743133145523
1594.58,40.20472835973601
1596.51,41.03641078355895
1598.44,42.45580769855496
