Raman Shift,Processed Intensity
331.095,73.85399630848315
333.909,29.859183782517903
336.721,33.16279742874485
339.531,65.93151129405942
342.339,99.18915704296433
345.145,149.50720752829693
347.949,196.83811750481527
350.751,190.27723577134566
353.55,223.01519350342642
356.348,258.67124496689576
359.144,290.2932748981493
361.937,329.54828207487344
364.729,351.7700057439188
367.518,358.1017901444229
370.306,388.78230617378676
373.091,460.288415910803
375.874,503.620894281637
378.656,508.3044364401062
381.435,480.05433181460876
384.212,380.63361434554054
386.988,255.32926034175534
389.761,176.95219586082476
392.532,102.78968504170189
395.301,93.79581367546007
398.068,56.25816325224605
400.833,11.178770722511672
403.596,-21.678245075090672
406.358,-52.64381889057586
409.117,-59.572501967406424
411.874,-29.175789252863524
414.629,-50.92688147137369
417.382,-14.822597416785356
420.133,-2.28814687620752
422.882,5.727613789776569
425.629,30.847400454603303
428.374,115.45595785046908
431.117,236.12861213195265
433.858,391.9169699835288
436.597,507.58701080336823
439.334,581.4762265061795
442.069,592.4459994212862
444.802,554.9292182859485
447.533,548.0255132862958
450.262,539.8345863363556
452.989,583.5990651666134
455.714,587.1330716982861
458.438,569.2507904175895
461.159,508.1950367500126
463.878,438.82773019649176
466.595,420.72512937434294
469.31,449.7968765820083
472.024,418.19075664951606
474.735,432.62602721751864
477.444,448.25055854014045
480.152,424.5932113830654
482.857,459.1352625406698
485.561,478.8342113055346
488.262,461.3618716522451
490.962,504.9138929926212
493.659,561.209757121434
496.355,609.445156114502
499.048,676.8634178458337
501.74,671.993598171438
504.43,697.9361921607456
507.118,787.5059881851798
509.804,938.8511124829124
512.488,1079.3101689617301
515.17,1205.2217599542696
517.85,1243.7816260208779
520.528,1325.3283571810362
523.204,1395.3910089066912
525.878,1460.2605276393965
528.551,1505.2278429741077
531.221,1519.8219598429882
533.89,1534.6670983182553
536.556,1565.958881034076
539.221,1563.797663465606
541.883,1537.8551975413661
544.544,1539.3270095413295
547.203,1531.1704922807235
549.86,1541.7239496747811
552.515,1569.6589746368318
555.168,1545.647112690665
557.819,1563.1217636781234
560.469,1625.4210358476544
563.116,1724.5020285142896
565.761,1834.3694004339086
568.405,1947.361081034645
571.047,2009.6720768863888
573.687,2078.402087694093
576.324,2150.9840746720492
578.96,2246.184257489587
581.594,2307.4830635977287
584.227,2272.3132204129956
586.857,2172.297847501186
589.485,2070.0123582849887
592.112,1998.365409370629
594.737,1938.4084213030883
597.359,1871.3831945594256
599.98,1785.6742874468569
602.599,1663.951870191313
605.216,1578.1717218831468
607.831,1570.099036946634
610.445,1582.3084220856808
613.056,1629.1362741819044
615.666,1735.9188724784271
618.274,1899.7066612398553
620.88,2141.4071038408474
623.484,2453.0703939975415
626.086,2747.4132622370707
628.686,2963.0094490337547
631.284,3102.6230350881337
633.881,3137.637009701252
636.476,3098.9580296251224
639.068,2924.968796960813
641.659,2672.0994846755893
644.249,2338.256304977178
646.836,2004.1072205451924
649.421,1620.3200367149334
652.005,1267.7528746135836
654.587,947.1684538202048
657.166,747.2817083590598
659.745,608.6169265024719
662.321,500.69822390700665
664.895,426.3828738925167
667.468,354.14701867356007
670.038,310.0856663051113
672.607,262.436497152074
675.174,225.19890845403734
677.739,172.32448746146156
680.303,139.09796076233488
682.864,128.47052456121946
685.424,89.25031781543385
687.982,31.340514418857765
690.538,7.6917011000196
693.092,-7.7457356798722685
695.645,-7.021600321166261
698.195,17.290312671145784
700.744,2.5684185493996665
703.291,32.23858900338564
705.836,52.05987689840231
708.38,72.88643177116728
710.921,111.61989483427851
713.461,103.82846064734304
715.999,117.79451021667956
718.535,112.51462504740266
721.069,102.22341071931532
723.602,115.86970141517713
726.133,152.73562159183393
728.662,110.00802860371823
731.189,91.2070981835036
733.714,38.472052779905425
736.238,-1.2483481997674062
738.759,-8.529127670863545
741.279,25.43568508545195
743.798,3.404497045700282
746.314,6.80245121045391
748.829,-6.373797438825022
751.342,-16.27035360199079
753.853,-57.41416284623301
756.362,-56.95109279209646
758.869,-44.550680966168784
761.375,-24.787079155158153
763.879,-9.520003710997116
766.381,7.914785795275748
768.882,-0.5326111279773613
771.38,2.5166187864629137
773.877,32.48904772032938
776.372,55.52567097313977
778.866,91.38666640356223
781.357,89.26091577554507
783.847,112.00409753302256
786.335,127.18630338413732
788.821,154.47298821879895
791.306,201.24401526432575
793.789,245.64127266966852
796.27,335.5210519943903
798.749,455.69214098336033
801.227,618.2015353890674
803.702,786.0487222225079
806.176,890.2332963373965
808.649,936.9930532048584
811.119,919.0420816881201
813.588,841.2374282457836
816.055,769.3409992303277
818.521,674.8767012818539
820.984,573.3685341027817
823.446,536.1024927563535
825.906,461.5551366318132
828.365,413.91739650481804
830.821,374.9993339788066
833.276,314.99204378351305
835.729,246.94384178776
838.181,231.6174053932168
840.631,231.48977107100382
843.079,214.22852237449342
845.525,194.977501761633
847.97,176.45204622679012
850.412,154.081841980224
852.854,158.58235055610703
855.293,169.71671111102614
857.731,173.01002367486535
860.167,156.74934668739934
862.601,113.31702786822598
865.034,84.42879699144987
867.465,65.51471580323641
869.894,49.90965174887833
872.321,49.900894557009906
874.747,42.394820442863875
877.171,45.393080121049934
879.594,72.7068820564391
882.014,132.6712757150376
884.433,159.47848243391627
886.851,171.89217867209027
889.266,163.2474935471082
891.68,162.68910160973837
894.092,152.21883942817794
896.503,173.79094121987555
898.912,161.4548935309822
901.319,172.26019467770084
903.724,172.25635228287183
906.128,188.25478557446058
908.53,174.49548958881314
910.931,185.69465175485902
913.329,163.33036371641083
915.726,172.0711902973212
918.122,171.82378608568615
920.516,193.11384535137904
922.908,206.75276624930484
925.298,223.4566959750323
927.687,204.51319496804172
930.074,228.20980587687745
932.459,221.21500347667643
934.843,233.0067636343224
937.225,226.5392275116933
939.605,236.90936576891136
941.984,241.6426903866386
944.361,266.8361093455187
946.736,232.34840035323714
949.11,213.75258933348596
951.482,197.00261462920935
953.853,210.95713406299456
956.222,225.37952247365183
958.589,228.84263115755266
960.954,187.2525949290157
963.318,162.75359156164632
965.68,169.96593456300934
968.041,160.74797547311346
970.4,172.43419663908253
972.757,169.3113992279259
975.113,124.09489123930234
977.467,77.78562789924399
979.819,36.86068538721611
982.17,-1.3457892463534336
984.519,3.643133742227292
986.866,22.256688136022603
989.212,32.44783772375558
991.556,31.883750264991704
993.899,48.8029403642131
996.24,71.72955520203504
998.579,82.04480312356782
1000.92,95.32028698868044
1003.25,79.46086133178414
1005.59,27.46653714067361
1007.92,34.90867234963844
1010.25,27.215686142107188
1012.58,11.387344681866125
1014.91,15.137618272836335
1017.24,31.275633756961724
1019.56,38.08662806142593
1021.88,80.04623659403433
1024.2,103.01097211477918
1026.52,97.59917979788634
1028.84,83.95294467481244
1031.16,91.64285622010311
1033.48,100.04896341344147
1035.79,131.31315837312286
1038.1,170.33917903714973
1040.41,179.55451660622475
1042.72,191.3389896534136
1045.03,217.16760394808762
1047.33,201.18198370843947
1049.64,195.9046599968574
1051.94,181.14383530578016
1054.24,157.4219576673563
1056.54,155.88048523930183
1058.84,146.13703184312817
1061.13,96.85679821666008
1063.43,109.80019374274025
1065.72,136.4895057969884
1068.01,172.87556909556542
1070.3,209.81395885245456
1072.59,205.01737441294244
1074.87,184.6270705061379
1077.16,178.7842884974889
1079.44,184.82073526035265
1081.72,220.25858585708875
1084.0,262.0009624106315
1086.28,321.5224129760595
1088.56,403.3927237455
1090.84,484.1816836339865
1093.11,565.7448012462644
1095.38,618.3185456531232
1097.65,570.7108252629707
1099.92,487.7295619314982
1102.19,409.7541222142015
1104.46,361.3543676665231
1106.72,346.2430384773238
1108.98,389.7995656737903
1111.24,431.0700738025316
1113.5,452.6245264678171
1115.76,483.4138718698209
1118.02,525.8176645333406
1120.28,570.6440679889026
1122.53,602.6536669776679
1124.78,626.8928034658629
1127.03,578.7888174211132
1129.28,510.10243044591834
1131.53,446.9277484587499
1133.77,385.31131199419156
1136.02,333.0616226935656
1138.26,369.8920031288835
1140.5,425.2301232934715
1142.74,490.8370509021122
1144.98,569.4739207387943
1147.22,633.1400325758993
1149.45,653.0728538552812
1151.69,640.7480223693524
1153.92,599.8793489421655
1156.15,504.08548677716635
1158.38,422.128029376375
1160.61,344.3400846500517
1162.83,287.19770616921505
1165.06,220.89132441816946
1167.28,192.84955899940383
1169.5,137.92969750516477
1171.72,139.08436486521668
1173.94,109.83771650413132
1176.16,94.14258387952395
1178.37,70.95190573457944
1180.58,25.456826017238427
1182.8,-23.675208200611678
1185.01,-26.58615832776377
1187.22,-16.370248715451226
1189.42,-10.31206175735224
1191.63,8.637268889419602
1193.84,-10.09232714368136
1196.04,-6.070814909193132
1198.24,-7.915677891247469
1200.44,13.279504783667335
1202.64,33.32600429606464
1204.84,57.70183961010616
1207.03,59.218438240872274
1209.23,97.63968134671586
1211.42,114.25332977398966
1213.61,128.68054533987015
1215.8,158.06636449613234
1217.99,162.22255294530578
1220.18,188.7228412092204
1222.36,226.18863638802486
1224.55,235.19378153825255
1226.73,211.26455314612485
1228.91,194.16537288657537
1231.09,154.42261462035776
1233.27,178.65793520068428
1235.44,221.54065289890468
1237.62,242.21631630637648
1239.79,274.44955895062503
1241.96,354.48123962578484
1244.13,455.3141541516179
1246.3,604.1892233229996
1248.47,798.4426332403609
1250.64,979.1248804020347
1252.8,1234.6198167966118
1254.96,1511.0732188048082
1257.13,1806.7261180061028
1259.29,2100.486227223471
1261.44,2315.880318949075
1263.6,2425.33993710328
1265.76,2426.106156412727
1267.91,2274.705770359826
1270.06,2100.9036696084445
1272.22,1867.4171251915027
1274.37,1634.249119317608
1276.51,1446.7359618919895
1278.66,1243.928240370762
1280.81,1082.2098648532788
1282.95,970.3456846030667
1285.09,855.5767236163729
1287.23,786.715416190721
1289.37,746.6694139220344
1291.51,740.1558688922355
1293.65,789.8442882854201
1295.78,859.8327223373644
1297.92,974.0763332374067
1300.05,1068.5302497446205
1302.18,1103.7209932325618
1304.31,1147.0798084959215
1306.44,1175.037899319087
1308.57,1233.2169021399445
1310.69,1332.3812644755853
1312.82,1436.2001471575345
1314.94,1513.295040852694
1317.06,1584.715954012855
1319.18,1628.8461722527845
1321.3,1633.3070177283075
1323.41,1601.6721323239212
1325.53,1533.3246179832595
1327.64,1406.5046532300398
1329.75,1279.9761573080668
1331.87,1139.7886924164545
1333.98,990.1346040400999
1336.08,859.1585422325288
1338.19,755.671744803512
1340.3,623.9615586019127
1342.4,541.9342941318755
1344.5,465.1152230261423
1346.6,371.6009564717606
1348.7,285.39277601673894
1350.8,216.96805961479777
1352.9,199.18504100345262
1354.99,189.18756908209616
1357.09,203.357486337703
1359.18,165.45748346100618
1361.27,132.72633491505894
1363.36,123.16461069427942
1365.45,140.82038808348352
1367.54,139.50353484550033
1369.62,148.49999240877742
1371.7,138.6670114359431
1373.79,130.6712445352232
1375.87,151.17921992423862
1377.95,166.85733890332403
1380.03,185.4671114240923
1382.1,164.72229641989452
1384.18,161.38413737438032
1386.25,107.16612169957352
1388.33,65.11493059014265
1390.4,27.80091268719616
1392.47,27.794272027790612
1394.54,39.33173218491402
1396.6,11.649869992564163
1398.67,6.69940455407459
1400.74,-14.188128794792647
1402.8,-42.347988998165874
1404.86,-24.68698193448722
1406.92,16.316547270144383
1408.98,19.80319323658705
1411.04,102.86582372551993
1413.09,155.54958137513768
1415.15,202.37569697721847
1417.2,274.3891122769994
1419.25,374.9680075349622
1421.3,489.5857100409944
1423.35,565.7630788190331
1425.4,577.1637464745602
1427.45,524.0226943754312
1429.49,422.62244688032774
1431.54,336.10259890053817
1433.58,275.60267679507706
1435.62,223.92880878960614
1437.66,201.6013477763147
1439.7,201.37868458998628
1441.74,180.40010890311623
1443.77,165.4239082162635
1445.81,183.87499065793236
1447.84,191.1782220701582
1449.87,197.3298583321971
1451.9,195.84993006516424
1453.93,215.25843686048484
1455.96,233.1705891273882
1457.98,319.01109755945095
1460.01,429.2522721249495
1462.03,569.1759305810253
1464.05,767.2543546068962
1466.07,1044.1979126037327
1468.09,1385.2407777326252
1470.11,1773.188550714456
1472.13,2187.6563588202416
1474.14,2579.926002480531
1476.16,2941.945959037659
1478.17,3146.04567221228
1480.18,3218.6498415698998
1482.19,3079.4212834159907
1484.2,2779.689505976806
1486.21,2369.3078560087724
1488.21,1923.7487606459872
1490.22,1483.4370644857995
1492.22,1144.5595571505896
1494.22,836.1602151352583
1496.22,598.8068722261532
1498.22,430.73408039617016
1500.22,292.27168498558785
1502.22,194.46387607337533
1504.21,160.6882398484936
1506.21,102.70338140977287
1508.2,69.12511899436208
1510.19,54.85505915855447
1512.18,49.69964814909031
1514.17,32.56065184589443
1516.16,36.29230237147408
1518.14,29.65368279555628
1520.13,42.21349279210631
1522.11,22.445290486829208
1524.09,11.0132104951374
1526.07,-7.704222801790138
1528.05,-31.709329599990724
1530.03,-23.62336615856225
1532.01,2.218240081519525
1533.98,7.527794898065849
1535.96,12.827239233570708
1537.93,7.829098760151055
1539.9,-5.134947507893685
1541.87,8.743072827051265
1543.84,33.7474227299042
1545.81,58.82912858698501
1547.78,86.12978639345215
1549.74,113.64822508359248
1551.7,119.90716986111033
1553.67,145.5722864818017
1555.63,173.88074934575138
1557.59,219.87933339905362
1559.55,264.3767917498203
1561.5,330.3248047127656
1563.46,357.9608336156948
1565.41,364.2843079393281
1567.37,337.8185267428346
1569.32,300.42017913698965
1571.27,246.89838856685355
1573.22,202.44328090397994
1575.17,155.57836206242587
1577.11,129.06527656714184
1579.06,117.61808993189584
1581.0,120.18899960861881
1582.95,135.2064268891345
1584.89,128.2892992830807
1586.83,124.62799956249137
1588.77,121.31769575876683
1590.7,113.02500449297031
1592.64,102.51179716327078
1594.58,88.56376803714011
1596.51,66.46662139117211
1598.44,33.38702055565864
