Raman Shift,Processed Intensity
331.095,103.82121809523787
333.909,-42.934160476190556
336.721,-61.56422333333322
339.531,-8.293053809523762
342.339,43.60715047619052
345.145,63.48384428571427
347.949,18.996077142857118
350.751,-18.814595714285716
353.55,-31.905197714285727
356.348,-40.04014961904762
359.144,-0.6491487619047529
361.937,-7.874295142857152
364.729,2.905849333333375
367.518,32.600388000000066
370.306,120.45315085714304
373.091,224.42423809523834
375.874,366.4756285714288
378.656,394.42800000000017
381.435,361.1036095238096
384.212,249.2314190476191
386.988,152.01789047619053
389.761,65.67142857142862
392.532,37.83077142857145
395.301,26.42179714285717
398.068,22.943404285714305
400.833,33.229565714285734
403.596,20.25864333333334
406.358,19.05828000000001
409.117,10.086251904761903
411.874,-10.483789523809545
414.629,-39.619489047619055
417.382,-23.47727333333332
420.133,8.216217619047665
422.882,48.117136190476245
425.629,120.45446333333342
428.374,183.1729990476192
431.117,251.26609523809543
433.858,283.25252380952395
436.597,297.5093809523811
439.334,259.7956190476192
442.069,236.72904761904772
444.802,223.35680952380966
447.533,211.3454761904763
450.262,204.41123809523828
452.989,226.50871428571446
455.714,236.73604761904778
458.438,251.76433333333347
461.159,242.21728571428582
463.878,185.43361904761912
466.595,163.03895238095248
469.31,144.51580952380957
472.024,113.8718333333334
474.735,118.01966666666674
477.444,137.301261904762
480.152,139.677761904762
482.857,162.39688095238103
485.561,162.6108095238096
488.262,159.52052380952392
490.962,215.5170285714287
493.659,235.80184761904772
496.355,184.95711428571437
499.048,158.04203809523818
501.74,123.11533333333342
504.43,89.56957142857152
507.118,156.46360952380965
509.804,205.95224761904774
512.488,217.7136190476192
515.17,251.14076190476203
517.85,268.43576190476205
520.528,244.89604761904778
523.204,227.91428571428582
525.878,210.88309523809534
528.551,177.19455238095247
531.221,140.09843809523815
533.89,107.93903809523817
536.556,116.44169523809532
539.221,125.61731428571437
541.883,141.42870476190484
544.544,154.9340095238096
547.203,158.42883809523818
549.86,138.8278095238096
552.515,135.6645238095239
555.168,136.28119047619055
557.819,129.30590476190486
560.469,143.0809047619049
563.116,166.85214285714295
565.761,201.9609523809525
568.405,230.22457142857155
571.047,222.7924761904763
573.687,194.52904761904773
576.324,177.1072857142858
578.96,148.4852380952382
581.594,196.43023809523825
584.227,225.28085714285726
586.857,227.99409523809538
589.485,227.66947619047633
592.112,203.69171428571437
594.737,158.20685714285725
597.359,160.7890000000001
599.98,152.01214285714298
602.599,160.68800000000013
605.216,171.67519047619055
607.831,166.59390476190487
610.445,151.7305714285715
613.056,135.41823809523817
615.666,139.89480952380964
618.274,139.49319047619056
620.88,176.45052380952393
623.484,186.14638095238104
626.086,208.86471428571446
628.686,259.0788571428573
631.284,318.59595238095255
633.881,346.60342857142876
636.476,367.04995238095256
639.068,333.2176666666669
641.659,308.388142857143
644.249,278.4139047619049
646.836,255.29069523809537
649.421,212.4418238095239
652.005,144.62360000000007
654.587,85.49724761904767
657.166,63.00923333333337
659.745,31.72514761904765
662.321,34.49611904761908
664.895,54.8395047619048
667.468,51.7012761904762
670.038,18.360647619047622
672.607,23.811034285714292
675.174,-1.1922823809523733
677.739,12.439306666666713
680.303,53.98492523809527
682.864,69.62843047619052
685.424,59.55375095238099
687.982,62.75435142857145
690.538,28.033274285714295
693.092,18.241224761904775
695.645,16.752816190476203
698.195,15.704605714285737
700.744,28.852293333333357
703.291,28.380226666666672
705.836,22.09189523809525
708.38,22.6956561904762
710.921,15.661889523809535
713.461,3.461131428571443
715.999,28.516191428571464
718.535,45.012240952381006
721.069,79.22972285714292
723.602,102.02053238095243
726.133,115.85589523809529
728.662,97.58796666666672
731.189,88.59271904761908
733.714,76.62759523809527
736.238,46.54524761904763
738.759,28.15085714285718
741.279,38.63082380952384
743.798,52.695342857142904
746.314,57.34059523809527
748.829,64.84864285714288
751.342,46.93021904761908
753.853,61.48697619047625
756.362,74.70606190476197
758.869,84.53682857142861
761.375,67.73840952380955
763.879,45.831914285714305
766.381,27.719576190476218
768.882,28.875490476190507
771.38,57.67810000000006
773.877,97.22061904761912
776.372,110.5966190476191
778.866,118.7567095238096
781.357,129.50885238095245
783.847,115.80400476190482
786.335,95.35498095238098
788.821,65.39872380952383
791.306,55.60117619047625
793.789,73.91358095238104
796.27,115.19247142857152
798.749,141.72300476190483
801.227,157.98110476190487
803.702,155.25204761904774
806.176,192.345142857143
808.649,222.9270000000001
811.119,242.33114285714302
813.588,243.3674285714287
816.055,232.3694761904763
818.521,220.52814285714297
820.984,207.367761904762
823.446,218.69879047619065
825.906,199.28393333333347
828.365,160.50515238095247
830.821,130.79216190476197
833.276,115.28881904761911
835.729,111.61569523809534
838.181,168.25031428571435
840.631,184.0516190476191
843.079,171.68771428571438
845.525,163.6845714285715
847.97,143.80527619047626
850.412,116.90932380952388
852.854,121.522520952381
855.293,90.12354
857.731,55.52400380952385
860.167,43.536060000000035
862.601,46.019003809523845
865.034,55.45182952380957
867.465,60.31335571428573
869.894,52.36825523809527
872.321,46.85752714285718
874.747,52.593631428571484
877.171,77.62718238095246
879.594,103.81839904761911
882.014,107.59906190476198
884.433,124.305761904762
886.851,139.7509238095239
889.266,138.41447142857152
891.68,155.39468571428583
894.092,164.64738095238107
896.503,178.31909523809537
898.912,204.6039047619049
901.319,211.6000000000001
903.724,212.64480952380964
906.128,186.07461904761917
908.53,194.36928571428587
910.931,194.8183333333334
913.329,188.66342857142865
915.726,180.33642857142866
918.122,192.17448571428582
920.516,156.80003333333346
922.908,154.5498952380953
925.298,123.95160476190482
927.687,94.10396190476197
930.074,111.05768095238103
932.459,135.91158095238103
934.843,131.24051428571437
937.225,120.71435238095242
939.605,94.146080952381
941.984,64.15811428571433
944.361,56.56284761904766
946.736,58.12546666666671
949.11,73.80133333333339
951.482,91.21258152380958
953.853,76.79073009523812
956.222,71.25280780952384
958.589,55.12538609523813
960.954,59.22089352380959
963.318,72.7321110476191
965.68,101.85192914285719
968.041,102.01142380952388
970.4,117.64131428571433
972.757,92.83907380952382
975.113,70.13074866666668
977.467,21.708512714285728
979.819,18.002623523809547
982.17,15.776778238095256
984.519,8.2228982857143
986.866,37.77107033333338
989.212,53.42241104761908
991.556,64.74948000000006
993.899,86.65797000000005
996.24,113.38702666666674
998.579,117.65130000000008
1000.92,126.02309047619053
1003.25,111.31224761904768
1005.59,96.3286571428572
1007.92,60.88207142857148
1010.25,69.44880000000006
1012.58,80.74270000000004
1014.91,92.81187619047627
1017.24,121.3700333333334
1019.56,136.17880000000008
1021.88,123.04727619047625
1024.2,104.02232857142863
1026.52,88.10308571428578
1028.84,95.86083333333342
1031.16,122.48476190476202
1033.48,173.83130000000014
1035.79,226.13743809523825
1038.1,262.4019047619049
1040.41,308.24238095238115
1042.72,333.7053809523811
1045.03,331.40852380952396
1047.33,314.1599523809526
1049.64,282.29152380952394
1051.94,242.99228571428583
1054.24,211.2603809523811
1056.54,199.760761904762
1058.84,173.9678571428572
1061.13,154.7367142857144
1063.43,156.44661904761915
1065.72,169.04819047619057
1068.01,192.68200000000013
1070.3,233.4414285714287
1072.59,221.51457142857157
1074.87,204.28000000000011
1077.16,177.0216666666668
1079.44,189.92771428571444
1081.72,247.9482380952383
1084.0,312.8431904761907
1086.28,377.8479523809527
1088.56,479.81742857142893
1090.84,572.9871904761909
1093.11,681.212047619048
1095.38,702.489285714286
1097.65,646.7218095238098
1099.92,559.8116190476193
1102.19,471.9943809523812
1104.46,419.79133333333357
1106.72,400.91452380952404
1108.98,373.93247619047645
1111.24,402.74771428571455
1113.5,456.02442857142887
1115.76,499.23614285714314
1118.02,574.9046190476193
1120.28,575.1699523809526
1122.53,543.3629047619052
1124.78,526.6714285714288
1127.03,478.28380952380985
1129.28,416.62638095238117
1131.53,380.98252380952397
1133.77,321.4449047619049
1136.02,279.77290476190495
1138.26,248.34519047619065
1140.5,238.58823809523824
1142.74,252.35695238095258
1144.98,279.6968571428573
1147.22,296.0343333333335
1149.45,295.795761904762
1151.69,276.88371428571446
1153.92,281.6773809523811
1156.15,259.88895238095256
1158.38,232.32638095238104
1160.61,201.9875238095239
1162.83,156.87071904761913
1165.06,110.59298095238101
1167.28,108.91488095238101
1169.5,88.739580952381
1171.72,74.11322857142864
1173.94,95.3674952380953
1176.16,104.21542380952386
1178.37,75.84614761904767
1180.58,86.83020476190481
1182.8,83.2137666666667
1185.01,59.662519047619085
1187.22,58.22310952380956
1189.42,66.98991904761908
1191.63,82.48613333333338
1193.84,77.04450952380957
1196.04,68.71188095238098
1198.24,44.3450904761905
1200.44,58.41985619047625
1202.64,53.936208571428615
1204.84,74.4657647619048
1207.03,70.81802952380957
1209.23,73.61243142857148
1211.42,85.8494514285715
1213.61,90.67239238095239
1215.8,38.65366952380953
1217.99,24.889443809523847
1220.18,32.333101904761946
1222.36,60.0812152380953
1224.55,81.94466952380954
1226.73,77.54405523809527
1228.91,50.69053333333338
1231.09,53.576319047619094
1233.27,47.679452380952426
1235.44,70.66859047619053
1237.62,84.87896666666673
1239.79,106.69385238095244
1241.96,112.35353333333337
1244.13,107.90777142857148
1246.3,118.12084285714296
1248.47,168.85264761904776
1250.64,192.39130000000014
1252.8,251.73932380952397
1254.96,293.0421904761906
1257.13,295.5404285714288
1259.29,323.33238095238113
1261.44,338.3257619047621
1263.6,313.8093809523811
1265.76,302.92857142857156
1267.91,290.3532380952382
1270.06,271.60971428571446
1272.22,268.4636190476192
1274.37,252.29847619047635
1276.51,246.30842857142872
1278.66,215.11528571428585
1280.81,200.10357142857157
1282.95,197.08561904761916
1285.09,184.969761904762
1287.23,170.1402380952382
1289.37,159.21942857142867
1291.51,172.30557142857154
1293.65,186.35445714285726
1295.78,177.60731428571438
1297.92,166.44834285714293
1300.05,131.21473333333338
1302.18,121.19491428571442
1304.31,178.20212380952393
1306.44,209.00121904761914
1308.57,220.9765238095239
1310.69,229.98861904761915
1312.82,191.32619047619062
1314.94,196.80200000000016
1317.06,231.89547619047633
1319.18,253.0383333333335
1321.3,273.23352380952394
1323.41,301.10361904761925
1325.53,329.5080476190479
1327.64,375.0695714285717
1329.75,426.98114285714314
1331.87,448.0553333333335
1333.98,413.6283333333335
1336.08,382.75061904761924
1338.19,350.61528571428596
1340.3,297.93928571428586
1342.4,284.86795238095254
1344.5,235.40361904761915
1346.6,192.50157142857157
1348.7,188.4498571428573
1350.8,193.6794000000001
1352.9,165.43025714285724
1354.99,167.51413333333343
1357.09,127.45669523809532
1359.18,128.26008571428582
1361.27,157.78354285714298
1363.36,198.88549523809536
1365.45,211.99647619047633
1367.54,226.45119047619056
1369.62,210.67961904761918
1371.7,222.96909523809538
1373.79,242.08252380952396
1375.87,272.49733333333353
1377.95,280.07161904761927
1380.03,288.0440476190478
1382.1,258.9869523809525
1384.18,235.09128571428585
1386.25,218.88138095238108
1388.33,198.7388095238096
1390.4,178.75878095238107
1392.47,160.60780476190482
1394.54,135.14306666666675
1396.6,109.17362380952386
1398.67,79.65177619047623
1400.74,50.62447619047623
1402.8,63.09092857142862
1404.86,75.85989047619054
1406.92,105.5968333333334
1408.98,108.2529285714286
1411.04,87.30295238095243
1413.09,70.31700000000005
1415.15,78.15040000000008
1417.2,109.42037142857154
1419.25,157.36308571428583
1421.3,178.5478000000001
1423.35,171.78200000000007
1425.4,154.34909523809534
1427.45,133.15147619047627
1429.49,140.23409523809536
1431.54,162.5467142857144
1433.58,162.22923809523817
1435.62,131.89819047619054
1437.66,135.69319047619055
1439.7,147.2782380952382
1441.74,165.84085714285723
1443.77,182.66309523809534
1445.81,184.26585714285724
1447.84,156.78857142857154
1449.87,166.0852380952382
1451.9,163.485761904762
1453.93,154.60566666666676
1455.96,159.25090476190485
1457.98,168.37052380952395
1460.01,181.72285714285732
1462.03,213.3999047619049
1464.05,246.11214285714303
1466.07,285.90338095238116
1468.09,341.4368571428574
1470.11,388.6135714285717
1472.13,422.0489523809526
1474.14,425.54909523809545
1476.16,397.44380952380976
1478.17,369.8247619047621
1480.18,344.45019047619064
1482.19,321.2215714285716
1484.2,281.13517142857154
1486.21,217.56869523809533
1488.21,155.47086666666675
1490.22,112.17189047619055
1492.22,92.62067142857151
1494.22,83.57612857142861
1496.22,88.7969647619048
1498.22,65.13716952380955
1500.22,52.26022952380956
1502.22,61.87759714285721
1504.21,77.74829142857149
1506.21,110.06023142857151
1508.2,137.62009809523815
1510.19,96.94913333333335
1512.18,47.8544904761905
1514.17,41.952609523809556
1516.16,31.09868095238101
1518.14,78.6718314285715
1520.13,78.14609095238097
1522.11,74.85281047619053
1524.09,82.79074238095244
1526.07,91.1960628571429
1528.05,97.59145285714293
1530.03,119.07087428571434
1532.01,111.06163809523817
1533.98,105.46734761904767
1535.96,107.38256190476197
1537.93,87.75888571428577
1539.9,84.5003333333334
1541.87,92.08287619047627
1543.84,144.74403809523818
1545.81,163.34046666666677
1547.78,176.5863238095239
1549.74,175.76719047619056
1551.7,154.7400952380953
1553.67,124.21966666666677
1555.63,147.92009523809537
1557.59,164.3654761904763
1559.55,167.27090476190486
1561.5,178.30323809523819
1563.46,195.41542857142866
1565.41,197.2269047619049
1567.37,207.73823809523822
1569.32,221.90285714285727
1571.27,212.38828571428581
1573.22,198.52871428571441
1575.17,195.46795238095245
1577.11,185.492761904762
1579.06,177.1280000000001
1581.0,173.660761904762
1582.95,175.1399523809525
1584.89,182.18552380952391
1586.83,190.46576190476205
1588.77,212.98185714285725
1590.7,214.40180952380962
1592.64,226.10809523809536
1594.58,229.72147619047615
1596.51,218.83861904761906
1598.44,185.62769047619076
