Raman Shift,Processed Intensity
331.095,27.605478333333345
333.909,-20.320394285714407
336.721,-36.204854285714354
339.531,-32.77192666666667
342.339,-23.603507142857165
345.145,-23.256686666666667
347.949,-17.642885238095243
350.751,-6.766668571428566
353.55,-5.4876761904762095
356.348,-10.996739333333334
359.144,-16.14930052380952
361.937,-6.036820095238089
364.729,-2.986812333333301
367.518,38.10399419047627
370.306,122.67395661904777
373.091,236.87751304761926
375.874,362.25232380952406
378.656,414.0043523809526
381.435,373.8652380952383
384.212,286.18762666666674
386.988,177.51626476190478
389.761,76.82598666666671
392.532,55.5698828571429
395.301,26.726239047619075
398.068,26.75119619047622
400.833,28.197765238095243
403.596,23.573020000000028
406.358,38.956894761904806
409.117,66.3356104761905
411.874,43.79215285714286
414.629,25.45849333333333
417.382,7.896652380952404
420.133,21.098400000000055
422.882,65.91402380952388
425.629,113.9573476190477
428.374,148.22384285714298
431.117,211.2819809523811
433.858,277.08180952380974
436.597,295.33652380952395
439.334,271.47480952380965
442.069,233.5454285714287
444.802,184.88328571428585
447.533,180.34833333333347
450.262,241.46742857142874
452.989,273.9116190476192
455.714,312.7337142857145
458.438,326.0820000000001
461.159,279.819761904762
463.878,216.19194285714298
466.595,168.30082380952388
469.31,123.01131428571438
472.024,126.760461904762
474.735,143.6521238095239
477.444,165.55268095238105
480.152,199.9000380952382
482.857,183.13238095238103
485.561,187.16461904761917
488.262,189.67378095238104
490.962,155.38466190476197
493.659,153.59379047619058
496.355,143.5974476190477
499.048,121.40682857142868
501.74,118.27102857142864
504.43,132.24895238095246
507.118,116.39939523809534
509.804,166.4479904761906
512.488,179.5965714285715
515.17,222.66604761904776
517.85,227.19128571428584
520.528,230.8974666666668
523.204,187.65287142857153
525.878,164.56364761904769
528.551,125.78353809523816
531.221,113.7995333333334
533.89,113.66956666666675
536.556,125.30851428571434
539.221,85.48860476190481
541.883,82.17198095238102
544.544,88.51104285714291
547.203,85.0390952380953
549.86,84.90788095238099
552.515,98.93580952380958
555.168,101.70287619047627
557.819,129.45543809523818
560.469,161.486961904762
563.116,153.37642857142865
565.761,152.70247619047632
568.405,148.37676190476202
571.047,170.7392380952382
573.687,203.60526666666678
576.324,194.31400476190484
578.96,154.48962857142865
581.594,154.56585238095246
584.227,130.11853333333343
586.857,135.48529047619058
589.485,163.76455238095247
592.112,183.34076190476205
594.737,173.1215000000001
597.359,179.06185714285724
599.98,180.9730238095239
602.599,170.99961904761915
605.216,159.52354761904772
607.831,173.6881238095239
610.445,134.3033238095239
613.056,108.7024952380953
615.666,101.21808571428578
618.274,106.42095238095246
620.88,130.7859523809525
623.484,171.83465714285728
626.086,190.94605714285728
628.686,239.45095238095257
631.284,270.15566666666683
633.881,331.0570952380955
636.476,390.62752380952406
639.068,375.9581904761906
641.659,329.9973809523811
644.249,265.597380952381
646.836,193.37226666666677
649.421,156.26895238095247
652.005,123.51979047619054
654.587,106.83362476190484
657.166,93.01384380952385
659.745,57.00636380952385
662.321,52.80484190476192
664.895,49.68834952380955
667.468,29.36441047619051
670.038,45.159677142857156
672.607,40.20988095238097
675.174,36.31758095238099
677.739,55.42826190476197
680.303,95.29677619047627
682.864,126.6300933333334
685.424,116.326140952381
687.982,95.1875723809524
690.538,38.58857809523809
693.092,-4.715403809523803
695.645,-9.397552380952362
698.195,6.297520476190483
700.744,1.6020314285714403
703.291,17.272031904761903
705.836,6.49236666666668
708.38,23.97195000000004
710.921,39.372305714285744
713.461,73.06932285714291
715.999,66.8679142857143
718.535,80.19213809523815
721.069,74.60901428571432
723.602,86.20967142857147
726.133,72.89490952380957
728.662,80.66080952380956
731.189,63.83723809523814
733.714,83.27792380952386
736.238,72.93195285714289
738.759,53.1772242857143
741.279,33.77273666666668
743.798,17.33475666666668
746.314,15.527355714285743
748.829,27.20523857142859
751.342,45.032888571428614
753.853,54.29383333333338
756.362,86.46218571428578
758.869,93.77436190476195
761.375,96.6096190476191
763.879,96.72840476190481
766.381,75.12940000000003
768.882,78.9064714285715
771.38,89.77271904761909
773.877,81.53680952380958
776.372,82.81690000000005
778.866,76.18373333333335
781.357,62.35110000000007
783.847,83.2231714285715
786.335,108.22831428571436
788.821,119.55673333333341
791.306,131.92226666666676
793.789,152.2774285714287
796.27,167.14638095238107
798.749,172.81480952380963
801.227,190.80723809523818
803.702,178.79066666666677
806.176,205.95557142857157
808.649,224.5886666666668
811.119,220.9285238095239
813.588,227.6426285714287
816.055,194.2082476190477
818.521,164.1500666666668
820.984,180.7070380952382
823.446,162.21398095238104
825.906,144.00511428571437
828.365,147.3198857142858
830.821,103.49299047619054
833.276,96.00197142857152
835.729,102.80072380952387
838.181,128.6050095238096
840.631,151.27357142857153
843.079,186.3795238095239
845.525,194.01971428571437
847.97,174.0531476190477
850.412,130.33883809523817
852.854,108.87829047619054
855.293,88.24507619047625
857.731,88.96497619047625
860.167,94.08733809523812
862.601,67.13814761904764
865.034,50.024166666666694
867.465,35.842547619047636
869.894,45.73847142857148
872.321,44.47578571428575
874.747,81.00895238095245
877.171,96.24484761904769
879.594,117.66201904761914
882.014,141.73886666666678
884.433,166.09639047619058
886.851,155.2129523809525
889.266,173.85266666666675
891.68,190.6366666666668
894.092,206.4245714285716
896.503,233.79019047619062
898.912,224.87804761904772
901.319,202.45261904761915
903.724,180.1824761904763
906.128,185.21257142857155
908.53,189.44976190476203
910.931,214.13457142857155
913.329,212.2212857142858
915.726,208.42642857142872
918.122,194.56104761904774
920.516,170.6749523809525
922.908,154.72242857142868
925.298,160.08657142857152
927.687,156.10278095238107
930.074,145.2012571428572
932.459,122.3359428571429
934.843,113.17529523809532
937.225,106.76869047619054
939.605,106.54639047619054
941.984,93.55772571428574
944.361,48.89935666666667
946.736,28.144051428571476
949.11,59.912164380952426
951.482,59.39575319047622
953.853,58.78659828571431
956.222,66.84760442857147
958.589,69.81806066666675
960.954,102.69917319047629
963.318,139.44385914285724
965.68,160.9106761904763
968.041,159.43366666666674
970.4,150.87059047619056
972.757,129.6984238095239
975.113,122.68018095238102
977.467,111.81577619047627
979.819,98.48721428571434
982.17,112.98064285714294
984.519,100.67742380952386
986.866,95.86365714285724
989.212,117.254261904762
991.556,158.80160000000012
993.899,162.5533904761906
996.24,217.6053904761906
998.579,244.29095238095255
1000.92,270.0389047619049
1003.25,267.2301523809525
1005.59,233.1504666666668
1007.92,160.5614857142858
1010.25,105.46343809523816
1012.58,85.9514857142858
1014.91,103.97772380952391
1017.24,145.1611523809525
1019.56,165.3585142857144
1021.88,190.56958095238107
1024.2,187.4132380952382
1026.52,191.9844285714287
1028.84,195.330142857143
1031.16,220.8790952380954
1033.48,238.43971428571444
1035.79,277.9167142857144
1038.1,296.690523809524
1040.41,322.71309523809543
1042.72,344.8406666666669
1045.03,358.35900000000015
1047.33,337.8383333333335
1049.64,316.51652380952396
1051.94,294.2501904761907
1054.24,277.89590476190494
1056.54,272.3573333333335
1058.84,271.3962857142858
1061.13,254.96395238095255
1063.43,236.2024285714287
1065.72,234.2066666666668
1068.01,233.54733333333346
1070.3,239.17571428571443
1072.59,241.94852380952398
1074.87,263.5316190476192
1077.16,270.44785714285734
1079.44,300.45861904761927
1081.72,330.65852380952407
1084.0,372.7605238095241
1086.28,409.24019047619083
1088.56,521.0493809523813
1090.84,648.9966666666671
1093.11,755.1764761904766
1095.38,763.7789523809527
1097.65,704.9931428571432
1099.92,589.2947619047623
1102.19,498.7307619047622
1104.46,465.8239047619051
1106.72,442.24019047619083
1108.98,431.7408571428574
1111.24,463.61085714285747
1113.5,519.8019523809527
1115.76,556.6466190476194
1118.02,604.9060000000004
1120.28,603.1985238095242
1122.53,577.1900952380955
1124.78,584.4519047619051
1127.03,568.1259523809526
1129.28,497.4018095238098
1131.53,445.56461904761926
1133.77,413.9471904761907
1136.02,368.8348095238098
1138.26,352.2748095238097
1140.5,314.7429523809525
1142.74,291.52390476190493
1144.98,284.04571428571444
1147.22,311.4035714285716
1149.45,322.3113809523811
1151.69,296.1496666666668
1153.92,245.68023809523822
1156.15,206.33090476190483
1158.38,165.52985714285725
1160.61,150.75340000000008
1162.83,142.8110095238096
1165.06,121.36905714285719
1167.28,91.42760476190479
1169.5,45.03400476190479
1171.72,41.66417619047626
1173.94,83.74692857142867
1176.16,125.7585380952382
1178.37,149.84200476190483
1180.58,162.66393428571436
1182.8,115.93898714285717
1185.01,64.66726380952383
1187.22,16.611132857142863
1189.42,13.294698095238132
1191.63,25.194516666666715
1193.84,52.26327904761909
1196.04,86.69191428571433
1198.24,86.52879238095241
1200.44,77.20288095238101
1202.64,76.7627428571429
1204.84,79.06609523809527
1207.03,56.0660666666667
1209.23,60.810771428571464
1211.42,46.253561904761945
1213.61,46.87116666666669
1215.8,50.66461523809527
1217.99,51.729920000000014
1220.18,37.78221619047622
1222.36,58.869943809523846
1224.55,51.51776333333336
1226.73,58.48843333333338
1228.91,68.83039666666669
1231.09,51.115965714285764
1233.27,67.34579000000006
1235.44,89.99709714285717
1237.62,85.40404761904767
1239.79,85.13893333333337
1241.96,57.91680476190479
1244.13,45.26240000000006
1246.3,81.12850952380958
1248.47,120.23038095238104
1250.64,150.5214857142858
1252.8,175.28825714285725
1254.96,161.7220000000001
1257.13,167.2519523809525
1259.29,192.49776190476206
1261.44,223.0793809523811
1263.6,221.6167142857144
1265.76,228.9674761904763
1267.91,222.27561904761916
1270.06,228.92252380952397
1272.22,235.43280952380962
1274.37,225.3312380952382
1276.51,176.61833333333342
1278.66,162.19957142857155
1280.81,164.2190000000001
1282.95,193.53390476190492
1285.09,217.43066666666678
1287.23,205.1959523809525
1289.37,175.83042857142868
1291.51,180.43009523809533
1293.65,166.5670000000001
1295.78,178.09858095238104
1297.92,167.88291428571438
1300.05,129.73030476190485
1302.18,119.26046666666677
1304.31,149.474161904762
1306.44,176.99072380952398
1308.57,214.6678190476192
1310.69,225.1729047619049
1312.82,228.8874285714287
1314.94,218.95495238095253
1317.06,232.32847619047635
1319.18,276.5799523809526
1321.3,317.70966666666686
1323.41,350.38523809523826
1325.53,357.1782857142859
1327.64,351.80376190476215
1329.75,364.4529047619051
1331.87,425.3165714285717
1333.98,471.1571428571432
1336.08,486.40371428571456
1338.19,460.1516190476193
1340.3,418.4967619047621
1342.4,354.5827619047621
1344.5,312.40966666666685
1346.6,284.1210952380954
1348.7,273.3838571428573
1350.8,288.1508571428573
1352.9,284.23204761904776
1354.99,267.10419047619064
1357.09,257.48147619047637
1359.18,247.45980952380967
1361.27,258.5631904761907
1363.36,281.5538095238097
1365.45,287.0512380952383
1367.54,313.24652380952404
1369.62,328.90138095238115
1371.7,347.44504761904784
1373.79,359.3059523809526
1375.87,374.4366190476193
1377.95,362.1709523809526
1380.03,357.65228571428594
1382.1,335.5946666666669
1384.18,338.47485714285733
1386.25,313.7688571428573
1388.33,298.0007142857144
1390.4,247.45661904761917
1392.47,233.51771428571442
1394.54,208.61238095238107
1396.6,183.45519047619058
1398.67,169.3314761904763
1400.74,162.38433333333344
1402.8,135.3282857142858
1404.86,163.25890476190486
1406.92,174.22380952380962
1408.98,174.17528571428582
1411.04,190.30371428571442
1413.09,173.18033333333346
1415.15,180.28147619047633
1417.2,196.79776190476204
1419.25,220.39557142857157
1421.3,218.40804761904775
1423.35,206.26409523809534
1425.4,189.05861904761917
1427.45,188.8391904761906
1429.49,205.60571428571444
1431.54,212.8340000000001
1433.58,215.04771428571445
1435.62,205.15138095238106
1437.66,199.90685714285723
1439.7,175.17066666666676
1441.74,172.6098571428572
1443.77,150.79519047619058
1445.81,172.8694761904763
1447.84,168.87971428571436
1449.87,180.49252380952393
1451.9,191.7550476190477
1453.93,196.85766666666677
1455.96,182.70433333333344
1457.98,181.91380952380962
1460.01,161.39052380952393
1462.03,173.37223809523823
1464.05,207.23933333333352
1466.07,249.70585714285733
1468.09,285.580523809524
1470.11,311.9580000000002
1472.13,321.40933333333356
1474.14,314.8387142857145
1476.16,316.7217142857145
1478.17,316.24861904761923
1480.18,287.989761904762
1482.19,251.08761904761914
1484.2,218.1125238095239
1486.21,184.49280952380963
1488.21,159.32293904761914
1490.22,121.55457952380956
1492.22,76.4724828571429
1494.22,47.17141095238099
1496.22,36.26931142857147
1498.22,62.28955571428577
1500.22,81.46918190476194
1502.22,72.23597142857146
1504.21,70.25571523809526
1506.21,48.622848571428584
1508.2,18.95556714285715
1510.19,5.6339666666666695
1512.18,6.800053809523824
1514.17,7.357795238095259
1516.16,29.973014761904793
1518.14,46.64497714285717
1520.13,54.08720571428574
1522.11,50.298933333333366
1524.09,50.660380952380976
1526.07,50.78986952380956
1528.05,42.115250476190496
1530.03,47.064443809523844
1532.01,44.06535904761906
1533.98,34.879243809523835
1535.96,39.505483809523845
1537.93,48.18154571428573
1539.9,33.3830428571429
1541.87,55.68063809523814
1543.84,65.59775714285719
1545.81,74.13383333333338
1547.78,92.24081904761908
1549.74,96.01324761904766
1551.7,98.21266190476199
1553.67,113.12389523809532
1555.63,131.93717142857153
1557.59,144.3662857142858
1559.55,155.69682857142865
1561.5,143.4995095238096
1563.46,123.67883809523815
1565.41,103.2340333333334
1567.37,100.87919047619054
1569.32,101.47102380952389
1571.27,123.86629523809532
1573.22,130.16008571428577
1575.17,137.2088476190477
1577.11,113.0599428571429
1579.06,89.2847428571429
1581.0,88.83532380952387
1582.95,85.23484285714291
1584.89,101.2452380952382
1586.83,138.81812857142867
1588.77,152.66786666666678
1590.7,168.98462380952392
1592.64,177.19707619047628
1594.58,149.97135000000043
1596.51,143.0691142857151
1598.44,187.32341904762058
