Raman Shift,Processed Intensity
331.095,59.27655912211594
333.909,94.16592585860144
336.721,111.42093245149499
339.531,117.87491816132797
342.339,127.81361505539235
345.145,114.61801107782503
347.949,147.19292740537503
350.751,135.44321485080172
353.55,127.32137883770292
356.348,136.77996628011215
359.144,157.24776198590098
361.937,189.9631279173209
364.729,211.35496149916798
367.518,240.2807967841004
370.306,302.93157228461314
373.091,398.069732138355
375.874,478.2197082258258
378.656,521.3345927642699
381.435,445.462810901563
384.212,328.9862218815306
386.988,205.47726782831433
389.761,89.69897967358338
392.532,29.985935464711474
395.301,0.625218672945266
398.068,3.142138406351478
400.833,8.871663908468236
403.596,-2.9939504032463446
406.358,-16.928968151912613
409.117,-20.264639990193245
411.874,-15.855863371528358
414.629,-11.128796466872245
417.382,-24.176093251852308
420.133,-52.13785453152059
422.882,-49.72543726064805
425.629,-3.126218796360263
428.374,70.56782360270427
431.117,146.02676592680882
433.858,173.44462833922762
436.597,153.63459943368798
439.334,148.21949858704738
442.069,142.29842878815907
444.802,109.58961994292576
447.533,86.43041503649965
450.262,77.34868486691448
452.989,81.63424277871854
455.714,105.76740225374897
458.438,146.60943926382606
461.159,159.593054623439
463.878,114.6747411043375
466.595,62.334769597743616
469.31,34.67241337180758
472.024,-3.022637194750587
474.735,21.729711549572585
477.444,55.552327134774714
480.152,75.73464982522864
482.857,74.56601752279539
485.561,96.38327638421015
488.262,86.04696286704711
490.962,76.27462863282426
493.659,54.83130830725486
496.355,47.91046343097196
499.048,59.32445021978128
501.74,77.31404043056818
504.43,110.45318517344094
507.118,147.7918739619845
509.804,204.90375566825878
512.488,275.1718547159071
515.17,311.02666822564015
517.85,333.1842631607328
520.528,385.8367544248913
523.204,385.366592483942
525.878,418.29894622560187
528.551,426.0636096287858
531.221,410.2330989091006
533.89,428.9988449024322
536.556,449.02833782948574
539.221,443.3222720603253
541.883,472.7383575455674
544.544,465.8484645809249
547.203,460.129101905065
549.86,485.2947519403424
552.515,469.05977746209555
555.168,463.6622330298437
557.819,480.5781526089604
560.469,503.9977419542529
563.116,500.77776146973656
565.761,510.917718592209
568.405,491.1789173176794
571.047,430.17969820398594
573.687,402.10972599246816
576.324,409.77761056296595
578.96,404.22995646025356
581.594,401.27517432523564
584.227,405.43586375470886
586.857,376.8535771135257
589.485,385.1935833467405
592.112,390.6448698870022
594.737,366.3010969428924
597.359,355.54155178725296
599.98,383.4597220931487
602.599,413.482345460292
605.216,508.464649417675
607.831,569.1189247595257
610.445,605.728813166982
613.056,622.1969281631032
615.666,663.3781903535942
618.274,693.7941150484853
620.88,737.6804332171378
623.484,754.1775695861165
626.086,814.3306445465769
628.686,857.4704284426043
631.284,917.5466768119386
633.881,985.5567037219303
636.476,1019.5453836769279
639.068,1001.3670582875734
641.659,973.2569667496095
644.249,866.1645810845944
646.836,756.1821794758612
649.421,623.830562461605
652.005,511.7733405565509
654.587,389.15026949266394
657.166,287.72010926939083
659.745,200.19395939437618
662.321,177.18764174322814
664.895,133.50741675260997
667.468,116.19760437524701
670.038,75.44534789207
672.607,32.53299677198811
675.174,15.600013341174417
677.739,29.738212785695396
680.303,44.087006450739864
682.864,69.64293246811712
685.424,63.783475108301445
687.982,37.505169846765966
690.538,-7.385910617308127
693.092,-23.226527485180213
695.645,-23.448646982694754
698.195,0.9443782144721808
700.744,26.092101253891087
703.291,7.515080392330219
705.836,-13.408926382619939
708.38,-9.397338159494666
710.921,2.02296809428708
713.461,19.087089611725787
715.999,20.173052738818114
718.535,10.99229186311959
721.069,10.8753664375472
723.602,39.81958276608066
726.133,66.29852165297802
728.662,53.02394809238967
731.189,23.279149529407732
733.714,4.157036025871776
736.238,-12.916045288104215
738.759,5.105408999294923
741.279,13.552730592183707
743.798,-4.099773633799941
746.314,-13.091960466554383
748.829,-21.425465383051687
751.342,-10.577984654373495
753.853,-11.931844498062446
756.362,1.8450466131253052
758.869,20.60872076204464
761.375,40.024862665233286
763.879,74.99737889384096
766.381,63.47791947551559
768.882,29.703970924857913
771.38,29.484568321497136
773.877,41.05743595959416
776.372,47.04136609258376
778.866,55.912407201728
781.357,38.62290940752473
783.847,31.22056988112172
786.335,43.372240160490264
788.821,69.4591620380238
791.306,78.29125106718448
793.789,96.44042768819963
796.27,104.24061502042173
798.749,136.69249855945282
801.227,181.70161920759983
803.702,228.98313297099594
806.176,266.728475418628
808.649,292.7958356651768
811.119,285.7101541633765
813.588,296.7107395439982
816.055,319.0845997415497
818.521,312.3092969295019
820.984,278.6719929317044
823.446,198.26944701475054
825.906,156.05563272796076
828.365,134.79411664813483
830.821,136.39138950525717
833.276,147.84924492724213
835.729,152.55049151802064
838.181,134.97323636418832
840.631,119.21469235118525
843.079,108.22927119375936
845.525,89.54286694262032
847.97,89.77666330061629
850.412,90.36141712937979
852.854,79.91840862265144
855.293,72.78324862245358
857.731,73.24397164955258
860.167,61.92198607678233
862.601,50.200643349983466
865.034,33.4633310184679
867.465,14.188708622629292
869.894,15.522134057744552
872.321,11.608994699675577
874.747,20.308990911529236
877.171,36.29137193126098
879.594,29.082552711665585
882.014,20.01849266512818
884.433,1.53040774170654
886.851,-12.28380320707356
889.266,5.864248887961821
891.68,30.977250783657155
894.092,43.7245645637347
896.503,83.01365348396462
898.912,118.94246019828074
901.319,137.22797546109018
903.724,138.8729020676751
906.128,111.59422355650076
908.53,84.10891576866788
910.931,80.13394412164212
913.329,85.57673707347044
915.726,83.67804053937402
918.122,86.34524849882223
920.516,92.15240026927745
922.908,116.3877968275624
925.298,112.62542665503202
927.687,82.15353443990261
930.074,61.974618350998526
932.459,52.47209397817505
934.843,46.6007677965506
937.225,74.45826301168904
939.605,82.38025492859083
941.984,68.27380155878063
944.361,84.61734089405991
946.736,72.12735484693098
949.11,48.66312842911543
951.482,48.13150893007605
953.853,69.48690319077787
956.222,73.68365582983165
958.589,88.86652270773288
960.954,80.41828724824654
963.318,65.81690056930893
965.68,38.49262161392517
968.041,44.16134775725959
970.4,43.77699303277609
972.757,57.53148540599864
975.113,61.616668810188685
977.467,43.557633753451455
979.819,5.022238402034191
982.17,-14.655084622093682
984.519,-22.949521443652884
986.866,-16.145879138836563
989.212,5.80426763787591
991.556,30.90161802181069
993.899,48.38485124155477
996.24,40.921095431744334
998.579,54.17735193986937
1000.92,62.91572915687948
1003.25,70.7553430144635
1005.59,85.5532651013732
1007.92,57.30928030355494
1010.25,39.02302539666903
1012.58,26.693984781460813
1014.91,23.46434336199377
1017.24,59.99993857946356
1019.56,70.29978660229312
1021.88,61.02942045025975
1024.2,94.66375192814735
1026.52,88.72517165463182
1028.84,85.54545861498264
1031.16,91.26578495185095
1033.48,75.12243504177832
1035.79,82.30395314312841
1038.1,97.85591009163909
1040.41,137.91900332930663
1042.72,147.39572836184198
1045.03,152.37895497802788
1047.33,135.05669394526808
1049.64,141.52162560989882
1051.94,126.62824754512008
1054.24,164.99287934178506
1056.54,169.8984293039539
1058.84,191.86582781110928
1061.13,142.9397463946625
1063.43,149.54574538588804
1065.72,145.10932632576623
1068.01,172.48450818434253
1070.3,187.62049881818803
1072.59,186.22836642785956
1074.87,166.54294911059378
1077.16,177.51333584157373
1079.44,196.37429983614106
1081.72,254.07487476915662
1084.0,301.7545500419808
1086.28,339.64803747802466
1088.56,393.84718087544707
1090.84,479.3485798455695
1093.11,564.2440707941382
1095.38,579.5302555216458
1097.65,530.7275536331656
1099.92,459.78496923390503
1102.19,374.98485762475525
1104.46,349.4667396168893
1106.72,334.465401560642
1108.98,310.83470966011373
1111.24,329.47618619253035
1113.5,389.4818714418959
1115.76,447.6581380135942
1118.02,474.5256956251767
1120.28,466.89102446858374
1122.53,453.22733238188766
1124.78,427.48408344960717
1127.03,414.2298599363578
1129.28,390.65236707764143
1131.53,334.08224739445086
1133.77,281.23118072215675
1136.02,249.81093662034732
1138.26,226.58099821123847
1140.5,266.63428125618
1142.74,301.0638056131161
1144.98,301.343652408327
1147.22,303.2813497796019
1149.45,309.49406814321765
1151.69,316.789577365681
1153.92,330.8329182211835
1156.15,315.47974051572214
1158.38,277.0620221636027
1160.61,250.95950254965396
1162.83,243.74254446287182
1165.06,239.02928174434624
1167.28,214.29514788756865
1169.5,168.01573797207197
1171.72,125.66681345421716
1173.94,90.91478314845153
1176.16,90.33099373237724
1178.37,80.05840120420044
1180.58,62.8591947211321
1182.8,32.733849009221785
1185.01,15.444938677950176
1187.22,-10.197142703269947
1189.42,-23.238939719065
1191.63,-30.202976390036838
1193.84,-40.32584613162385
1196.04,-21.08201845417352
1198.24,-0.279077458123993
1200.44,6.132749589635068
1202.64,4.965347168699509
1204.84,-11.778724086749662
1207.03,-26.049090926788494
1209.23,-7.033287660611904
1211.42,-5.871048991335556
1213.61,9.631394369524514
1215.8,25.572733641341983
1217.99,4.623237398268202
1220.18,6.7390270224987034
1222.36,12.590637871831632
1224.55,21.324914256154443
1226.73,38.326905106007416
1228.91,62.3627133063344
1231.09,54.86520432499492
1233.27,60.553048174607966
1235.44,57.33547566010998
1237.62,76.69322510250254
1239.79,91.72615572926497
1241.96,92.01038487428923
1244.13,87.74113946352782
1246.3,126.39941702445412
1248.47,183.7995990764698
1250.64,253.37515975941574
1252.8,333.0358030335067
1254.96,393.16745702212506
1257.13,479.1560778784283
1259.29,587.768596509095
1261.44,674.7719605361701
1263.6,734.2664619731922
1265.76,747.5904934727503
1267.91,741.5110188597591
1270.06,722.366424617112
1272.22,662.1141332761008
1274.37,582.9972644258812
1276.51,520.830343341991
1278.66,437.80881913867347
1280.81,379.032868635491
1282.95,334.4121526048855
1285.09,309.04676249593535
1287.23,291.51292906286335
1289.37,294.52968337450443
1291.51,309.62551782377136
1293.65,315.70980904188013
1295.78,300.3585265268664
1297.92,299.19517936733996
1300.05,298.60509629956687
1302.18,278.116372431218
1304.31,302.1141492984491
1306.44,323.50727587536744
1308.57,315.0140172025449
1310.69,294.97157253934165
1312.82,272.90749827813124
1314.94,249.8254165728165
1317.06,252.06215253877053
1319.18,259.71630002420443
1321.3,277.8863111910616
1323.41,291.7657289530548
1325.53,316.6431813184613
1327.64,359.0452328757797
1329.75,385.49828389843765
1331.87,372.05237421140123
1333.98,373.8049870577854
1336.08,347.09151963213594
1338.19,315.81861075656207
1340.3,286.4165161759174
1342.4,242.4581505196461
1344.5,190.1352721207695
1346.6,168.1632392634358
1348.7,122.44767119238554
1350.8,70.98920436050071
1352.9,49.55015343826517
1354.99,40.79736279941153
1357.09,40.54029610180851
1359.18,44.20722110644556
1361.27,23.70235096425654
1363.36,16.21537051506948
1365.45,38.50715306274128
1367.54,56.433574814010626
1369.62,63.08837861178176
1371.7,87.08889866737286
1373.79,95.43321386420462
1375.87,143.26206296623172
1377.95,174.28742649305536
1380.03,147.0782514521677
1382.1,108.06046178548854
1384.18,90.1836354825698
1386.25,73.49244359856084
1388.33,88.07904165311606
1390.4,84.22593721978569
1392.47,65.26314322969006
1394.54,34.66342651328819
1396.6,1.994699199297429
1398.67,-5.508542267344183
1400.74,-7.326159059897236
1402.8,-23.271406934216657
1404.86,-22.34806901165848
1406.92,-9.131398859320598
1408.98,-25.38716131876049
1411.04,18.023609972751046
1413.09,47.906520762235914
1415.15,64.06715018880845
1417.2,67.31105329284583
1419.25,85.15804923944438
1421.3,79.27079525615795
1423.35,109.12145580883293
1425.4,116.22980034886677
1427.45,110.44892010809303
1429.49,89.1080877508034
1431.54,79.29847416862799
1433.58,64.06362718017658
1435.62,93.875664516396
1437.66,99.54003823450148
1439.7,91.29077532238557
1441.74,82.12381354112154
1443.77,79.8446229817539
1445.81,56.25868476494725
1447.84,81.12387450253868
1449.87,85.29332194956532
1451.9,90.04874684677452
1453.93,108.00522333456115
1455.96,137.6826110335744
1457.98,161.31508136342177
1460.01,195.94635814709
1462.03,228.28686297726858
1464.05,264.7613367731467
1466.07,334.31836609911534
1468.09,449.1446713882269
1470.11,586.188918975188
1472.13,716.2093426531551
1474.14,838.4880318972002
1476.16,957.5452200877776
1478.17,1057.6154774960955
1480.18,1129.7905709361544
1482.19,1136.9718472263112
1484.2,1077.87023569846
1486.21,968.4824411834034
1488.21,844.8528512819289
1490.22,686.6925864930402
1492.22,530.4271217707517
1494.22,385.43438427136607
1496.22,278.18761300550796
1498.22,185.68393277588007
1500.22,136.3967376388216
1502.22,85.56140769920626
1504.21,61.984835429143686
1506.21,46.09304722477964
1508.2,53.31215829642929
1510.19,24.59218470156975
1512.18,-3.2120017650238424
1514.17,-28.578766300188818
1516.16,-34.98637278535034
1518.14,-24.34155057569069
1520.13,9.687173727314985
1522.11,34.859950226428964
1524.09,49.365600883652405
1526.07,46.29780614049764
1528.05,41.60748201444039
1530.03,36.81706195728452
1532.01,32.78239776113992
1533.98,34.54989855964163
1535.96,31.689860305356888
1537.93,-3.179728562333821
1539.9,1.2734756935042242
1541.87,20.715215870480506
1543.84,35.19224868958372
1545.81,56.703769312575105
1547.78,58.487123645349584
1549.74,60.30352064129852
1551.7,98.43803031895482
1553.67,125.7472008272598
1555.63,135.23048503463383
1557.59,145.8873814037638
1559.55,136.86028915210568
1561.5,147.43450626952517
1563.46,155.9906084883271
1565.41,159.8615901580422
1567.37,154.71381464402384
1569.32,129.49939329747122
1571.27,105.93237394926268
1573.22,105.44111987997667
1575.17,108.83497450420191
1577.11,100.82806891198538
1579.06,101.70598655313938
1581.0,77.94480887392706
1582.95,82.25873238232566
1584.89,109.9810190466128
1586.83,113.73066097967262
1588.77,102.936187980446
1590.7,90.93090364681052
1592.64,67.04812148846054
1594.58,65.64497246835481
1596.51,54.626212544163764
1598.44,19.82517306685645
