Raman Shift,Processed Intensity
331.095,100.47116267348474
333.909,48.15421338130682
336.721,37.24537162403067
339.531,52.911314113158824
342.339,80.05683288795308
345.145,91.06294059836864
347.949,129.64402340702054
350.751,117.22880341496148
353.55,137.81749156366095
356.348,137.4579881560253
359.144,147.62684528218688
361.937,184.27689591195576
364.729,249.5515496539383
367.518,292.3562313718121
370.306,332.21553408630234
373.091,379.4637052105086
375.874,439.5303708804654
378.656,447.1310221904664
381.435,429.1717871426781
384.212,365.797059739602
386.988,268.770462409871
389.761,183.66533224356817
392.532,133.43615960850593
395.301,62.70431248078148
398.068,1.9961417277240798
400.833,-12.30462789487001
403.596,-28.575935316933283
406.358,-9.481182432972219
409.117,-26.87398701753773
411.874,-19.56008147355533
414.629,-40.01159350072703
417.382,-55.36704385295798
420.133,-85.57420326618785
422.882,-29.675810784060104
425.629,-14.142917137517998
428.374,82.36319081364582
431.117,136.2290624972793
433.858,150.65096409411717
436.597,164.30152090778438
439.334,178.80588354432984
442.069,132.59884647270974
444.802,105.35339515670148
447.533,59.885443663020396
450.262,37.249048459896585
452.989,91.45066983469951
455.714,155.6396237877616
458.438,178.4890138895853
461.159,186.90999647138597
463.878,149.00414105372784
466.595,101.92055267992373
469.31,72.5225180589623
472.024,47.149389803664235
474.735,36.94989924028732
477.444,66.07261207525607
480.152,69.95162702895414
482.857,116.25894501455241
485.561,137.80922600446775
488.262,126.5121720723173
490.962,120.18205329201601
493.659,118.25199554163692
496.355,116.86922068821787
499.048,124.2760010582947
501.74,134.85728057508823
504.43,170.99781970521917
507.118,212.5107689768547
509.804,282.5900520216592
512.488,359.5246533786549
515.17,361.12719201236814
517.85,390.92439959287503
520.528,434.6333130615626
523.204,462.54222910164845
525.878,503.74880146585065
528.551,539.5409954469019
531.221,545.6828042528373
533.89,543.6999653822763
536.556,536.5466293806548
539.221,513.272028596462
541.883,489.0680983184229
544.544,465.31709791269304
547.203,496.2106605314716
549.86,511.89265234542063
552.515,534.078222252273
555.168,557.38713729973
557.819,581.3437847750147
560.469,565.615269532535
563.116,568.7733208453556
565.761,547.7704849709539
568.405,518.1782224788867
571.047,502.56786272131785
573.687,531.2248916368758
576.324,526.5775252687904
578.96,512.7205213782736
581.594,458.41518153409106
584.227,402.3750674878456
586.857,358.69457469211966
589.485,366.9917915329074
592.112,374.45612046681117
594.737,397.99113725346297
597.359,418.1669739974823
599.98,453.0298450475634
602.599,504.10204908604373
605.216,548.7153045518071
607.831,605.0583707774754
610.445,629.9865738885032
613.056,676.1170469879971
615.666,743.9239703415196
618.274,801.9290496571466
620.88,864.1777086512298
623.484,912.8581387570166
626.086,933.3013012142301
628.686,977.0285482062659
631.284,1035.6563868545359
633.881,1070.2774336889947
636.476,1091.2223214996243
639.068,1071.5358919022074
641.659,1016.5010069517098
644.249,902.7814083747248
646.836,783.2312434685741
649.421,660.6093529051818
652.005,521.2459394873267
654.587,423.1854273810891
657.166,335.567416586392
659.745,239.48382788373056
662.321,158.69319063805415
664.895,125.38254965025862
667.468,87.21508629439995
670.038,92.42535870252141
672.607,84.05739909233807
675.174,45.869477761596045
677.739,15.476962320524308
680.303,9.971367400476538
682.864,-3.8415433777759063
685.424,13.796346178917702
687.982,5.738371366518095
690.538,-7.447856816095737
693.092,6.710034929637004
695.645,-1.3631877481134325
698.195,-6.576070917394645
700.744,-5.265699546759151
703.291,-7.102448640263901
705.836,5.6719316113794775
708.38,40.67289680224212
710.921,23.087402835312332
713.461,3.5310581645385355
715.999,-16.285200153605274
718.535,-23.697954218072482
721.069,-31.805581256954156
723.602,11.722230630227386
726.133,22.215916661923075
728.662,33.291751968829885
731.189,23.613758664364923
733.714,15.179422438936854
736.238,-23.346971798159302
738.759,-19.253385229228797
741.279,0.9342628946671994
743.798,18.642571377608192
746.314,8.012559827993528
748.829,19.185380931530744
751.342,-15.221491085299249
753.853,-14.019024372731792
756.362,-0.6847267085368003
758.869,8.351638203539778
761.375,26.04138205438494
763.879,47.954985154888845
766.381,31.139237280358884
768.882,24.879140419702026
771.38,17.840763905552876
773.877,-1.6430433127418382
776.372,-5.001226110420021
778.866,-3.138810914321766
781.357,13.039282760569904
783.847,68.24728791744315
786.335,120.7233499696822
788.821,137.18190568051477
791.306,135.09939543599762
793.789,103.28568980370756
796.27,108.45551609144559
798.749,145.79988490593587
801.227,172.65275480676564
803.702,215.91960172223048
806.176,277.88694074612204
808.649,309.1747050773786
811.119,331.1171963883028
813.588,338.4773685261182
816.055,314.9706350240467
818.521,288.4077242314338
820.984,259.12324872959016
823.446,215.30903665239202
825.906,154.87127253070457
828.365,147.7638286129852
830.821,142.65492951923102
833.276,139.78429308540308
835.729,136.2964616840352
838.181,123.0027049734233
840.631,102.71435121823788
843.079,95.90945194346978
845.525,72.25658944551833
847.97,71.80535096994709
850.412,83.12918384161753
852.854,73.56348869006956
855.293,57.824665055848754
857.731,32.53391890159719
860.167,5.3601177421885495
862.601,30.924550536770994
865.034,45.324735199860925
867.465,64.99155944577137
869.894,69.83213591875187
872.321,33.46789541836392
874.747,-5.813034160856432
877.171,1.801313015024789
879.594,-3.4961184362359745
882.014,28.963830383932418
884.433,53.85033958047484
886.851,49.165940848117316
889.266,41.34175261667406
891.68,47.856524720162724
894.092,51.617587827829766
896.503,47.913231446599184
898.912,67.9365104949461
901.319,88.35667092439212
903.724,105.7000991505115
906.128,134.11222386489908
908.53,134.35751308523072
910.931,101.96232834818852
913.329,73.31015985475938
915.726,42.02257590125237
918.122,36.53064850078931
920.516,74.64637900480648
922.908,89.99126658169257
925.298,101.85344812399853
927.687,74.14007625088652
930.074,59.66303064390945
932.459,46.091296049462244
934.843,54.046197424085676
937.225,58.482349365488744
939.605,56.64003411499857
941.984,70.80710336953393
944.361,58.12849914119397
946.736,62.79672699779894
949.11,45.67090073200393
951.482,32.94340607802451
953.853,13.473231095028723
956.222,28.309772741007464
958.589,15.883310113310927
960.954,63.62404911775684
963.318,80.8668814234552
965.68,110.08947675096124
968.041,116.48370849376693
970.4,87.66993648264338
972.757,63.506527845230266
975.113,38.28033024657407
977.467,20.80190703442554
979.819,14.262677146439728
982.17,11.33015025546797
984.519,-7.613980942288208
986.866,14.954729184847565
989.212,24.370145497641033
991.556,72.77555092711964
993.899,73.79031348754552
996.24,63.55750567033874
998.579,47.26771431418979
1000.92,32.06380285612204
1003.25,24.088530725416376
1005.59,33.29407749943584
1007.92,31.013471821362373
1010.25,9.246308445456634
1012.58,6.89684623470589
1014.91,-21.08313193677077
1017.24,-12.265744050835792
1019.56,-5.175575962339963
1021.88,10.80555887325454
1024.2,-9.704236853952352
1026.52,-3.848848720808519
1028.84,-3.772244352534244
1031.16,34.19105082450437
1033.48,77.75404885677995
1035.79,101.48682271488588
1038.1,135.86412840651428
1040.41,152.64636042276834
1042.72,152.64145956543302
1045.03,131.5620588694801
1047.33,90.54929619223981
1049.64,79.45853156448447
1051.94,92.66887406530986
1054.24,100.03556583988438
1056.54,103.6995089743341
1058.84,100.03964951349099
1061.13,103.10155195483026
1063.43,131.31168802812135
1065.72,168.0012492846015
1068.01,203.5966263528178
1070.3,189.52417390875326
1072.59,177.21021374119027
1074.87,186.79532353135914
1077.16,187.37243515639602
1079.44,203.5582663261339
1081.72,242.39808555323157
1084.0,262.17523902806784
1086.28,297.9349632079177
1088.56,389.1034355013678
1090.84,493.3449201908288
1093.11,572.5141524502837
1095.38,621.9896747439948
1097.65,591.0547922728215
1099.92,508.13567127768897
1102.19,443.56324686686025
1104.46,410.85894036702393
1106.72,388.92513857913923
1108.98,362.616625415234
1111.24,348.69296591615466
1113.5,363.1042236026474
1115.76,416.22905877881794
1118.02,462.35092207368643
1120.28,511.41996226846186
1122.53,487.43398174285903
1124.78,458.43843954046406
1127.03,405.4788353864801
1129.28,359.600712753092
1131.53,313.9925190676822
1133.77,267.65227544485947
1136.02,223.57805594229967
1138.26,197.48227634039722
1140.5,197.3631257790571
1142.74,214.69504601353697
1144.98,248.6192106702847
1147.22,251.2292425980222
1149.45,274.5235978854912
1151.69,304.691283212529
1153.92,331.6832874868571
1156.15,321.4982991951606
1158.38,303.1827094684504
1160.61,243.35442467123607
1162.83,217.9171551811728
1165.06,204.86994226394677
1167.28,185.11668494816126
1169.5,152.84709547164562
1171.72,143.87003568014848
1173.94,105.99447247364856
1176.16,98.79138563360539
1178.37,59.593770888320705
1180.58,32.21092869257336
1182.8,19.404657769168125
1185.01,14.889258174287988
1187.22,17.90296293427855
1189.42,2.684133541258234
1191.63,-25.05254304380378
1193.84,-37.639855581129495
1196.04,-21.696155180708047
1198.24,-13.744396969636227
1200.44,0.2640522827618952
1202.64,7.949413768425302
1204.84,-8.639362340489242
1207.03,-13.738884416808105
1209.23,-14.918939422405174
1211.42,-6.415828140768099
1213.61,7.200964811882841
1215.8,42.266861307470435
1217.99,45.49837459461651
1220.18,54.755009214412894
1222.36,50.61068472571833
1224.55,53.258492763784716
1226.73,42.60593028936091
1228.91,63.132037599699515
1231.09,67.55406014909408
1233.27,68.30363417893795
1235.44,85.81249615730553
1237.62,95.70295412329278
1239.79,99.16883522183593
1241.96,140.7850046670976
1244.13,151.74545613442274
1246.3,185.19664024752842
1248.47,249.61841211332012
1250.64,322.39545504717944
1252.8,413.00775191729963
1254.96,504.36391363187795
1257.13,558.5154600072569
1259.29,659.2758625408289
1261.44,758.4110157553741
1263.6,847.4963752100598
1265.76,886.8217145590609
1267.91,872.5815968959012
1270.06,800.922988954926
1272.22,752.5643038842172
1274.37,702.2715868756477
1276.51,628.5251769853999
1278.66,549.6149403830689
1280.81,455.7831226483722
1282.95,388.84339154406075
1285.09,351.9903559792947
1287.23,339.08527544921685
1289.37,326.3227218554739
1291.51,358.9924794219837
1293.65,352.38430175355484
1295.78,415.3593355611713
1297.92,458.9691634348958
1300.05,464.21770375962774
1302.18,445.632634440386
1304.31,432.59872138949686
1306.44,378.9768612994974
1308.57,381.96121965413295
1310.69,390.12684492983203
1312.82,364.3344256543312
1314.94,346.5398093700553
1317.06,354.22256921654775
1319.18,342.5764752748041
1321.3,367.509489721132
1323.41,400.07233340957737
1325.53,399.88705245435244
1327.64,415.0517752884532
1329.75,418.6168982937061
1331.87,405.10889047843784
1333.98,398.57790767894767
1336.08,360.45493057051044
1338.19,340.3136645831364
1340.3,318.0133921982781
1342.4,284.07992048364054
1344.5,262.8484333898932
1346.6,209.74920119023795
1348.7,139.59328991998495
1350.8,81.62017557802346
1352.9,36.25964404258343
1354.99,-7.201547108240675
1357.09,10.094612271647748
1359.18,37.10119325467963
1361.27,82.72346876376491
1363.36,105.72367459777934
1365.45,120.57815516054256
1367.54,99.42974728503987
1369.62,111.89730691478212
1371.7,104.31380721374285
1373.79,122.72634143820142
1375.87,160.038982951452
1377.95,176.7746928575557
1380.03,206.4086562065254
1382.1,187.32066581855702
1384.18,144.03322039396835
1386.25,91.21152738504657
1388.33,52.85398205836759
1390.4,25.530265604738815
1392.47,36.28610991580672
1394.54,18.83377664638556
1396.6,13.933015041328872
1398.67,-11.323218332834585
1400.74,3.205533482023384
1402.8,8.183427086838037
1404.86,6.3221358379578305
1406.92,-23.809618424553264
1408.98,-31.405104240301853
1411.04,-23.610047316021337
1413.09,7.477376356019704
1415.15,17.711305932216874
1417.2,47.6124824655094
1419.25,48.03491736790738
1421.3,117.16589598963651
1423.35,166.14502881733824
1425.4,173.11187410083744
1427.45,158.39641762276733
1429.49,148.94764770629354
1431.54,101.57165403235672
1433.58,98.40782169501313
1435.62,84.11931097106049
1437.66,58.51210851823248
1439.7,42.72550714481804
1441.74,26.279728436426012
1443.77,-0.6859784267728628
1445.81,-4.603809281378744
1447.84,42.9987890745731
1449.87,65.26102715261459
1451.9,120.79829962037184
1453.93,154.79742643380018
1455.96,178.30237015989542
1457.98,206.11900091845246
1460.01,222.2436708476323
1462.03,246.10131237905648
1464.05,308.545441274807
1466.07,370.1438739501432
1468.09,458.1787305104983
1470.11,593.2178663599145
1472.13,700.9720180951781
1474.14,862.5805208285294
1476.16,1030.897025510373
1478.17,1149.1085495853233
1480.18,1211.9735752673025
1482.19,1241.155385909871
1484.2,1172.60302142418
1486.21,1061.979852744537
1488.21,914.9492991511161
1490.22,717.1748313069534
1492.22,532.2723552473203
1494.22,363.90545351195533
1496.22,246.4996738963407
1498.22,183.3377705839382
1500.22,143.4168500403198
1502.22,131.8293264311137
1504.21,101.47721037328256
1506.21,50.881635781642444
1508.2,3.849529572522897
1510.19,-12.050194823048969
1512.18,-0.10568204140145099
1514.17,31.252154354192044
1516.16,32.06868167833454
1518.14,8.341740774746086
1520.13,-37.97835180869356
1522.11,-20.036420692519414
1524.09,-0.7867143663927436
1526.07,15.911855704248183
1528.05,12.248092939023081
1530.03,-3.5891065764456016
1532.01,-10.363138214345327
1533.98,14.305547344214801
1535.96,21.177537035438718
1537.93,29.013499656559816
1539.9,26.812277728603704
1541.87,15.572788882962413
1543.84,10.532117724152613
1545.81,25.355988644965237
1547.78,44.376857689231656
1549.74,71.78438642143124
1551.7,111.10163008201357
1553.67,115.5659876474806
1555.63,128.12919950951982
1557.59,152.36210705889744
1559.55,159.93084084078282
1561.5,162.54919918626092
1563.46,154.5976935105141
1565.41,147.07592694433083
1567.37,152.84068725133375
1569.32,162.8916587928211
1571.27,155.9428487783316
1573.22,140.27972780191612
1575.17,128.71160847364877
1577.11,122.76211928923613
1579.06,136.62158326152075
1581.0,128.52796798056488
1582.95,114.43354995944696
1584.89,90.76681707529224
1586.83,69.33722815316628
1588.77,44.38282969281909
1590.7,63.71311069067269
1592.64,68.99471460465747
1594.58,91.5847703666725
1596.51,85.2689852998119
1598.44,23.214023749867238
