Raman Shift,Processed Intensity
331.095,15.913574999999767
333.909,-38.599335714285814
336.721,-35.53779285714292
339.531,-3.2806714285714103
342.339,15.435690476190482
345.145,14.018234285714277
347.949,5.041826857142841
350.751,-17.48919528571429
353.55,-11.236069142857119
356.348,1.9980624285714312
359.144,6.458851809523821
361.937,17.67847995238099
364.729,52.904814000000066
367.518,75.76781428571438
370.306,172.66020952380967
373.091,247.3094571428573
375.874,338.0154761904764
378.656,371.50784761904777
381.435,314.5176333333334
384.212,197.7770571428572
386.988,117.59073333333335
389.761,24.64579523809527
392.532,14.82092380952383
395.301,15.234365142857147
398.068,7.243754666666679
400.833,13.779514095238095
403.596,-6.988488952380987
406.358,-40.74613257142858
409.117,-36.2254958095238
411.874,-5.823964380952355
414.629,5.538692380952389
417.382,38.705848571428604
420.133,33.56998666666669
422.882,60.548719047619144
425.629,106.1560000000001
428.374,165.8115047619049
431.117,202.50794761904777
433.858,260.4292571428573
436.597,253.42709523809535
439.334,226.0690000000001
442.069,196.8275238095239
444.802,173.8906666666668
447.533,170.2566666666668
450.262,196.92461904761916
452.989,212.37076190476202
455.714,227.92952380952397
458.438,236.60204761904777
461.159,195.34300000000007
463.878,147.39302857142863
466.595,92.56488571428577
469.31,83.38660952380961
472.024,92.52916666666673
474.735,109.52130476190484
477.444,123.41583333333341
480.152,135.93318095238104
482.857,130.5081476190477
485.561,127.05210000000004
488.262,102.8575714285715
490.962,106.88421428571438
493.659,123.94900000000007
496.355,129.9168428571429
499.048,127.74841428571433
501.74,115.07078095238103
504.43,84.84470476190482
507.118,81.98344761904768
509.804,90.6385333333334
512.488,112.34239047619057
515.17,173.91345238095252
517.85,213.7888571428572
520.528,213.35863809523818
523.204,184.86975714285717
525.878,141.04518095238103
528.551,114.56043333333342
531.221,113.56718095238102
533.89,138.69263333333345
536.556,149.4218238095239
539.221,133.81089523809533
541.883,139.58210000000008
544.544,134.2673952380953
547.203,107.16037619047628
549.86,122.83999523809531
552.515,124.21890476190484
555.168,106.11392857142866
557.819,131.62733333333344
560.469,162.62314285714297
563.116,176.774142857143
565.761,200.5629523809525
568.405,205.42446666666675
571.047,150.88796666666676
573.687,131.86374285714294
576.324,135.59531904761914
578.96,147.51560000000012
581.594,187.39110952380963
584.227,200.65494285714294
586.857,169.35814285714295
589.485,150.17114285714294
592.112,120.28766666666675
594.737,111.09122857142864
597.359,110.48915714285721
599.98,108.57907619047626
602.599,109.64808095238104
605.216,125.74550476190484
607.831,138.11068095238105
610.445,147.31580000000008
613.056,156.12309523809532
615.666,146.34242857142866
618.274,134.02095238095248
620.88,122.25309523809531
623.484,123.56242857142865
626.086,136.51880952380964
628.686,172.12100000000015
631.284,204.5098571428573
633.881,246.0166190476192
636.476,260.21019047619063
639.068,274.9454761904763
641.659,261.98128571428583
644.249,228.79067619047635
646.836,171.51262857142865
649.421,142.8104952380953
652.005,84.25164761904766
654.587,60.40360952380956
657.166,45.643138095238115
659.745,44.39416954285716
662.321,28.937909971428592
664.895,26.507972323809526
667.468,23.575523266666707
670.038,45.897577085714325
672.607,65.37389568571433
675.174,66.57073620952384
677.739,93.53076571428576
680.303,83.01045619047623
682.864,75.76648857142861
685.424,63.079239047619055
687.982,47.94340285714288
690.538,22.68699428571433
693.092,37.685884761904774
695.645,39.3632142857143
698.195,27.618619047619053
700.744,14.399323809523812
703.291,-5.918752380952393
705.836,1.849961904761921
708.38,-2.442173809523798
710.921,25.29547142857146
713.461,37.86794523809526
715.999,66.88988095238099
718.535,68.16670238095242
721.069,72.9801047619048
723.602,62.32619047619052
726.133,68.43934285714289
728.662,54.79215142857146
731.189,41.61922523809525
733.714,46.77434095238098
736.238,36.34968428571432
738.759,41.10416952380957
741.279,68.13018238095242
743.798,75.80592285714289
746.314,65.74788095238101
748.829,72.52486666666671
751.342,70.18235238095242
753.853,61.52767142857148
756.362,97.03502857142864
758.869,108.03576190476196
761.375,106.33762952380957
763.879,70.79612714285716
766.381,36.5526542857143
768.882,13.129601428571467
771.38,28.192473333333368
773.877,50.311498571428615
776.372,61.866620000000026
778.866,70.09503809523814
781.357,55.42460476190479
783.847,62.85446190476195
786.335,53.098557142857175
788.821,55.63264761904765
791.306,54.408852380952425
793.789,71.56959047619053
796.27,68.54349523809532
798.749,121.99688571428581
801.227,160.69229523809534
803.702,186.96302857142868
806.176,175.2855714285715
808.649,192.7552380952382
811.119,178.9440000000001
813.588,203.7572000000001
816.055,189.76710476190482
818.521,157.9264952380953
820.984,113.09327619047627
823.446,129.17335238095248
825.906,132.83424761904772
828.365,161.60077142857153
830.821,152.85474285714295
833.276,126.21640952380959
835.729,117.73454285714293
838.181,114.8869714285715
840.631,109.24628571428579
843.079,95.8612952380953
845.525,84.87630000000004
847.97,64.19765714285718
850.412,64.92213333333338
852.854,74.9082571428572
855.293,90.77690476190482
857.731,76.95830952380956
860.167,67.64468571428574
862.601,52.74253333333336
865.034,47.53935238095242
867.465,47.655776190476224
869.894,63.1415047619048
872.321,68.18882857142862
874.747,74.3234333333334
877.171,90.16632857142864
879.594,124.86220952380958
882.014,116.46076190476198
884.433,110.01151428571436
886.851,93.23081904761912
889.266,105.16817142857153
891.68,127.54018095238105
894.092,171.34851428571437
896.503,174.50009523809533
898.912,171.99671428571438
901.319,158.03109523809533
903.724,160.03380952380962
906.128,148.0070952380953
908.53,158.33342857142867
910.931,159.1578571428572
913.329,160.434761904762
915.726,158.49928571428578
918.122,137.82966666666672
920.516,138.52315238095247
922.908,131.15296190476195
925.298,122.34001904761912
927.687,119.13418095238103
930.074,135.82251428571436
932.459,123.0258857142858
934.843,153.41271428571437
937.225,135.65137619047624
939.605,114.79105714285723
941.984,88.1194571428572
944.361,95.4473428571429
946.736,70.49070000000005
949.11,80.06049523809529
951.482,70.25343809523812
953.853,54.547095238095274
956.222,58.84760476190482
958.589,69.96547142857148
960.954,98.28294285714293
963.318,117.89650000000006
965.68,118.997580952381
968.041,110.87295714285722
970.4,126.19039047619053
972.757,102.52203809523816
975.113,113.48763333333338
977.467,68.61178095238097
979.819,44.03782380952384
982.17,31.385400000000033
984.519,48.559785714285766
986.866,52.75183333333338
989.212,104.67612380952389
991.556,115.04724285714295
993.899,143.38930476190487
996.24,147.51209047619054
998.579,128.03473809523817
1000.92,93.81443809523815
1003.25,73.8987428571429
1005.59,60.1449333333334
1007.92,90.74343809523818
1010.25,125.40825714285722
1012.58,144.2345000000001
1014.91,148.93637142857148
1017.24,144.27540952380963
1019.56,116.63252857142865
1021.88,140.7692000000001
1024.2,126.7325190476191
1026.52,134.2842000000001
1028.84,153.04286190476202
1031.16,188.15064761904773
1033.48,213.7978095238097
1035.79,249.174142857143
1038.1,245.37423809523827
1040.41,276.4929523809526
1042.72,296.4818095238097
1045.03,297.91138095238114
1047.33,283.686142857143
1049.64,254.90047619047635
1051.94,236.55371428571442
1054.24,238.7879523809525
1056.54,242.98300000000015
1058.84,229.61428571428584
1061.13,194.10980952380964
1063.43,195.13533333333348
1065.72,209.4042380952382
1068.01,225.82019047619065
1070.3,245.3823333333335
1072.59,237.89947619047635
1074.87,217.7990952380954
1077.16,221.3658571428573
1079.44,232.88447619047633
1081.72,274.2587619047621
1084.0,308.0591428571431
1086.28,363.80847619047654
1088.56,446.6959047619051
1090.84,556.6729523809528
1093.11,649.929285714286
1095.38,700.0827619047622
1097.65,636.4181428571432
1099.92,532.7913333333336
1102.19,429.39171428571456
1104.46,378.7423333333336
1106.72,375.4132380952384
1108.98,393.1653809523812
1111.24,403.6644761904764
1113.5,427.76628571428597
1115.76,467.47004761904793
1118.02,516.5365714285717
1120.28,556.7264285714289
1122.53,534.6103333333336
1124.78,488.9968571428573
1127.03,422.55157142857166
1129.28,344.6070000000002
1131.53,296.0665238095239
1133.77,247.11942857142867
1136.02,204.09847619047633
1138.26,196.19333333333347
1140.5,218.40295238095254
1142.74,225.5836190476192
1144.98,256.0673809523811
1147.22,247.28195238095253
1149.45,261.98861904761924
1151.69,258.2816190476192
1153.92,249.39861904761918
1156.15,228.71956190476203
1158.38,193.38644285714295
1160.61,148.731961904762
1162.83,123.23144285714292
1165.06,106.50318095238103
1167.28,114.92790000000008
1169.5,115.83793809523814
1171.72,115.18516190476197
1173.94,110.44512380952385
1176.16,102.99823904761911
1178.37,80.46309857142862
1180.58,75.26791142857144
1182.8,52.221668095238144
1185.01,54.37167809523814
1187.22,58.193722380952416
1189.42,54.639858095238104
1191.63,36.5670104761905
1193.84,16.54637952380953
1196.04,4.768297142857154
1198.24,9.851720476190492
1200.44,21.46328380952382
1202.64,16.507757333333345
1204.84,16.27095542857143
1207.03,10.562554190476197
1209.23,10.66846266666668
1211.42,12.827013238095253
1213.61,27.324234476190504
1215.8,42.25572209523813
1217.99,57.52671714285718
1220.18,62.66153619047622
1222.36,47.51787714285715
1224.55,18.66779238095239
1226.73,0.8738723809523936
1228.91,18.136907619047662
1231.09,36.31491238095241
1233.27,38.789747619047645
1235.44,65.03850476190482
1237.62,88.15748095238102
1239.79,106.33823809523817
1241.96,118.48688571428575
1244.13,100.08089523809528
1246.3,77.5976476190477
1248.47,99.18132380952389
1250.64,127.0238761904763
1252.8,164.41220952380962
1254.96,175.39566666666678
1257.13,177.1664285714287
1259.29,189.44014285714297
1261.44,192.40914285714297
1263.6,206.50385714285727
1265.76,228.3445238095239
1267.91,217.98085714285727
1270.06,203.9384761904763
1272.22,196.17157142857153
1274.37,170.682142857143
1276.51,146.47195238095244
1278.66,153.3045238095239
1280.81,139.42047619047628
1282.95,156.2975238095239
1285.09,165.2714285714287
1287.23,177.67758095238102
1289.37,155.1842714285715
1291.51,139.41263809523815
1293.65,112.98406190476199
1295.78,107.99563809523818
1297.92,107.1161761904763
1300.05,141.25267619047628
1302.18,153.9785238095239
1304.31,165.91480952380962
1306.44,163.92100000000008
1308.57,170.42790476190487
1310.69,161.9133333333334
1312.82,181.5699523809525
1314.94,178.97133333333343
1317.06,172.31014285714295
1319.18,166.11233333333348
1321.3,192.52276190476204
1323.41,219.06719047619066
1325.53,265.5568571428573
1327.64,312.3274285714288
1329.75,342.8572857142859
1331.87,342.57661904761926
1333.98,341.2017142857145
1336.08,311.02023809523826
1338.19,268.4623333333335
1340.3,255.1492857142859
1342.4,244.98757142857158
1344.5,231.16914285714302
1346.6,219.88623809523818
1348.7,186.4740000000001
1350.8,165.69614285714297
1352.9,151.84014285714295
1354.99,137.43085714285723
1357.09,131.75576190476198
1359.18,136.72066666666677
1361.27,139.66057142857153
1363.36,172.33895238095252
1365.45,179.66185714285723
1367.54,180.86809523809535
1369.62,183.62600000000012
1371.7,200.079142857143
1373.79,231.1810476190478
1375.87,250.5040000000001
1377.95,249.62071428571443
1380.03,250.5316190476192
1382.1,237.52347619047632
1384.18,199.12066666666675
1386.25,181.56166666666675
1388.33,137.9422857142858
1390.4,126.50133333333343
1392.47,133.04840000000007
1394.54,127.06013333333338
1396.6,98.58416666666672
1398.67,82.62049142857147
1400.74,46.26452476190479
1402.8,29.94463047619051
1404.86,54.08916095238101
1406.92,78.26922095238102
1408.98,106.81780571428581
1411.04,126.68682476190482
1413.09,108.82807142857146
1415.15,83.33605714285719
1417.2,80.6383571428572
1419.25,94.35320000000007
1421.3,125.76553809523818
1423.35,149.06459047619057
1425.4,130.0586571428572
1427.45,107.79424761904767
1429.49,78.79355238095243
1431.54,75.91238571428578
1433.58,75.48269523809529
1435.62,94.59786190476196
1437.66,87.16103333333339
1439.7,83.59917142857148
1441.74,78.67213333333338
1443.77,72.71126190476194
1445.81,68.286180952381
1447.84,93.15627142857149
1449.87,83.55763333333337
1451.9,72.3451428571429
1453.93,80.08800000000005
1455.96,85.40255238095246
1457.98,121.19122857142867
1460.01,148.92751428571438
1462.03,156.94209523809536
1464.05,185.8039047619049
1466.07,213.36752380952396
1468.09,236.67738095238113
1470.11,259.9689047619049
1472.13,273.81066666666686
1474.14,289.3422857142859
1476.16,295.41857142857157
1478.17,284.3223333333335
1480.18,260.9551904761906
1482.19,212.2192857142858
1484.2,174.06385714285722
1486.21,145.77166666666676
1488.21,111.14992857142865
1490.22,102.57671428571436
1492.22,118.04910076190484
1494.22,96.94545600000005
1496.22,79.64393580952384
1498.22,53.42765733333333
1500.22,12.008526761904772
1502.22,1.9555712380952635
1504.21,25.12351933333335
1506.21,31.557734285714318
1508.2,50.68465285714288
1510.19,48.88312190476192
1512.18,52.579744761904806
1514.17,45.439299523809545
1516.16,41.031399047619075
1518.14,29.40196714285716
1520.13,33.78753238095241
1522.11,35.66276238095241
1524.09,36.50249095238097
1526.07,26.78154000000002
1528.05,37.784672857142894
1530.03,57.558216190476244
1532.01,74.86311761904766
1533.98,62.65086285714288
1535.96,58.253980952381
1537.93,54.38605714285719
1539.9,64.28480000000005
1541.87,82.04464761904767
1543.84,96.76064761904767
1545.81,102.00384761904769
1547.78,117.82144761904767
1549.74,115.45129047619054
1551.7,108.79820000000007
1553.67,105.76695238095245
1555.63,108.45286190476196
1557.59,122.8560190476191
1559.55,108.35742380952388
1561.5,100.90979047619055
1563.46,120.18000476190485
1565.41,149.40697142857155
1567.37,168.78136190476204
1569.32,173.77998095238104
1571.27,162.73665714285724
1573.22,129.31868095238102
1575.17,118.43112380952388
1577.11,114.5989380952382
1579.06,120.87060000000008
1581.0,120.48506190476198
1582.95,139.205180952381
1584.89,129.2698571428572
1586.83,111.67983333333339
1588.77,114.10285714285722
1590.7,124.68292857142866
1592.64,131.61142857142863
1594.58,147.10411904761906
1596.51,157.85269047619047
1598.44,157.52505952380946
