Raman Shift,Processed Intensity
331.095,70.3597766666664
333.909,-41.51086380952397
336.721,-50.553725238095225
339.531,-2.648124285714249
342.339,41.350120000000025
345.145,59.37133857142858
347.949,37.98986476190477
350.751,25.780990476190496
353.55,11.368523809523802
356.348,-10.432214285714293
359.144,-9.138199999999994
361.937,-10.503452380952375
364.729,-5.233109523809464
367.518,73.73069523809534
370.306,156.01797142857157
373.091,240.3078857142859
375.874,325.1857523809525
378.656,330.4756666666668
381.435,279.0035714285716
384.212,234.78652380952389
386.988,167.60467619047625
389.761,107.71581904761909
392.532,74.18867780952384
395.301,40.80704757142859
398.068,6.689847523809529
400.833,-5.09072947619048
403.596,-7.413205809523808
406.358,-7.488250523809523
409.117,7.903438285714287
411.874,-7.303183809523841
414.629,-39.98135000000002
417.382,-32.62188809523809
420.133,-18.619062380952368
422.882,8.11039333333338
425.629,77.93698571428578
428.374,133.946761904762
431.117,196.7505904761906
433.858,278.15113333333346
436.597,282.14252380952394
439.334,236.43438095238102
442.069,206.64238095238105
444.802,162.43066666666678
447.533,156.79742857142872
450.262,179.26561904761917
452.989,229.16847619047638
455.714,248.31680952380967
458.438,254.18838095238107
461.159,211.21400000000006
463.878,164.63491428571436
466.595,115.40717619047626
469.31,116.10638095238102
472.024,95.35690000000005
474.735,89.9734095238096
477.444,108.34280476190484
480.152,116.7572952380953
482.857,118.22372380952389
485.561,133.65394285714297
488.262,164.38907619047632
490.962,185.91313333333346
493.659,207.8058285714287
496.355,184.50416190476196
499.048,114.92171428571432
501.74,84.97205714285721
504.43,81.80738571428577
507.118,74.19888571428578
509.804,89.34646190476198
512.488,134.92610476190487
515.17,186.94760476190493
517.85,243.80129523809538
520.528,240.16333333333344
523.204,217.56738095238106
525.878,169.07071428571436
528.551,145.58764761904771
531.221,123.31817142857149
533.89,102.46200952380957
536.556,78.36154285714292
539.221,91.88334285714294
541.883,120.94101904761914
544.544,137.97209047619054
547.203,139.65145714285723
549.86,116.22593809523818
552.515,148.75136190476204
555.168,183.66420476190487
557.819,224.16265714285726
560.469,215.58747619047628
563.116,194.1362857142858
565.761,141.81590476190487
568.405,136.8710476190477
571.047,128.26014285714297
573.687,139.32257142857154
576.324,163.77833333333342
578.96,170.82333333333344
581.594,186.31923809523818
584.227,171.27058095238104
586.857,134.9672952380953
589.485,107.79401904761912
592.112,102.61175238095244
594.737,89.85220952380959
597.359,111.85105714285723
599.98,140.5152000000001
602.599,153.18026666666677
605.216,149.0381476190477
607.831,136.85218095238105
610.445,108.95649047619052
613.056,88.97020000000005
615.666,89.32210000000006
618.274,100.4403333333334
620.88,100.08615238095246
623.484,126.40130476190484
626.086,153.5272761904763
628.686,177.12871428571438
631.284,197.82257142857154
633.881,236.1300952380954
636.476,258.2388571428573
639.068,268.24114285714296
641.659,266.7048095238096
644.249,237.14942857142867
646.836,186.47561904761915
649.421,175.77421904761914
652.005,140.56401904761913
654.587,101.07838000000004
657.166,63.121469523809544
659.745,25.02097571428573
662.321,6.009356190476216
664.895,11.556710952380964
667.468,13.41878285714289
670.038,47.11299571428577
672.607,83.91869904761911
675.174,110.30523809523817
677.739,131.9328857142858
680.303,123.46133333333339
682.864,117.02657809523815
685.424,96.28833714285717
687.982,60.239798571428594
690.538,30.445315238095247
693.092,6.850739047619058
695.645,11.68720380952384
698.195,23.233757142857144
700.744,18.436204761904765
703.291,-4.283298571428581
705.836,-13.073877142857146
708.38,-16.036880952380937
710.921,2.9646904761904906
713.461,23.829952380952417
715.999,61.21995714285719
718.535,84.70104285714291
721.069,97.12523333333338
723.602,96.77337619047623
726.133,79.45036190476193
728.662,55.91358095238098
731.189,46.11100952380955
733.714,30.562490476190497
736.238,34.35945238095243
738.759,70.87910000000008
741.279,121.07020476190483
743.798,120.16746428571435
746.314,101.40587619047622
748.829,50.83007380952383
751.342,33.05677142857148
753.853,47.65459285714291
756.362,74.57349047619051
758.869,66.00180952380956
761.375,78.50891904761909
763.879,68.47407142857148
766.381,84.705280952381
768.882,107.77241552380957
771.38,96.43609100000002
773.877,57.98094390476193
776.372,49.88212185714288
778.866,42.424629619047664
781.357,57.274386238095296
783.847,85.52627266666671
786.335,86.70375238095241
788.821,76.18744761904767
791.306,91.88224285714293
793.789,119.35961904761913
796.27,154.57225714285727
798.749,166.9489238095239
801.227,179.10928571428582
803.702,180.81576190476198
806.176,182.92642857142866
808.649,186.29914285714298
811.119,193.69690476190488
813.588,200.93038095238109
816.055,207.52438095238108
818.521,188.3376666666668
820.984,187.70466666666678
823.446,199.38880000000012
825.906,177.9156095238096
828.365,159.85845714285722
830.821,137.55215238095244
833.276,130.90379047619058
835.729,147.48615238095246
838.181,156.63493809523814
840.631,142.6381333333334
843.079,122.02176666666674
845.525,111.4546857142858
847.97,123.51068571428578
850.412,112.906180952381
852.854,85.500980952381
855.293,51.96445000000002
857.731,44.44202857142861
860.167,35.269635714285734
862.601,33.5927904761905
865.034,51.366654761904805
867.465,54.498733333333355
869.894,52.70617142857148
872.321,73.22991428571432
874.747,69.54902380952385
877.171,65.85694761904767
879.594,91.1564428571429
882.014,101.06968095238102
884.433,116.50462857142864
886.851,129.60683809523817
889.266,112.85563333333339
891.68,101.34926666666674
894.092,130.94761428571437
896.503,128.9873952380953
898.912,124.56712857142865
901.319,120.35616666666672
903.724,93.11953809523816
906.128,88.81254761904769
908.53,123.20001428571436
910.931,129.66589523809532
913.329,143.16590000000008
915.726,150.60752380952388
918.122,123.4698190476191
920.516,101.46996857142862
922.908,56.18232333333336
925.298,45.75228476190482
927.687,56.13547190476197
930.074,90.5247895238096
932.459,109.6374471428572
934.843,122.571320952381
937.225,103.66236666666673
939.605,84.2938666666667
941.984,68.32556190476195
944.361,69.28353333333338
946.736,77.31320000000004
949.11,70.3691666666667
951.482,78.78704857142861
953.853,51.568974761904784
956.222,31.574178095238118
958.589,20.280825238095264
960.954,41.16714952380956
963.318,44.853936666666705
965.68,65.24772952380957
968.041,65.82636190476194
970.4,59.44858571428574
972.757,61.11586190476196
975.113,71.82965714285717
977.467,49.30545714285716
979.819,34.16348095238096
982.17,13.071442857142863
984.519,9.79219523809527
986.866,22.278957142857163
989.212,44.43710476190479
991.556,63.50528571428576
993.899,97.5795571428572
996.24,94.8505428571429
998.579,102.50904761904766
1000.92,97.22185714285719
1003.25,94.41741904761912
1005.59,84.9051571428572
1007.92,98.44728571428578
1010.25,83.70982857142863
1012.58,72.93067619047625
1014.91,83.20471428571435
1017.24,94.10260952380959
1019.56,104.43330952380961
1021.88,148.2916761904763
1024.2,152.5814190476191
1026.52,148.06371428571435
1028.84,159.02323809523818
1031.16,160.0780000000001
1033.48,166.5599523809525
1035.79,196.27780952380965
1038.1,200.1350000000001
1040.41,227.84457142857156
1042.72,248.0241904761906
1045.03,242.19652380952397
1047.33,223.97880952380964
1049.64,214.9884285714287
1051.94,209.31904761904775
1054.24,207.25461904761914
1056.54,205.03185714285723
1058.84,202.0777142857144
1061.13,181.19957142857152
1063.43,181.20504761904775
1065.72,177.09228571428582
1068.01,153.7165238095239
1070.3,160.21857142857155
1072.59,174.8348571428573
1074.87,190.8484285714287
1077.16,231.01976190476208
1079.44,257.2035714285716
1081.72,271.82657142857164
1084.0,315.171904761905
1086.28,370.0948095238098
1088.56,444.6404761904765
1090.84,542.4737619047623
1093.11,620.4018095238099
1095.38,652.3747619047624
1097.65,596.2948571428574
1099.92,509.73152380952416
1102.19,405.634904761905
1104.46,358.3837619047622
1106.72,364.0233333333336
1108.98,417.4560952380955
1111.24,435.0605714285717
1113.5,461.92995238095267
1115.76,480.3477142857146
1118.02,514.5021904761908
1120.28,531.8195714285717
1122.53,547.1550952380956
1124.78,500.31566666666686
1127.03,427.6323333333336
1129.28,364.00800000000015
1131.53,309.25000000000017
1133.77,254.9278571428573
1136.02,214.2300000000001
1138.26,182.67814285714297
1140.5,178.7939523809525
1142.74,209.0993809523811
1144.98,237.59252380952398
1147.22,260.41419047619064
1149.45,261.99100000000016
1151.69,254.60723809523822
1153.92,243.49895238095252
1156.15,222.61704761904775
1158.38,209.72171428571443
1160.61,200.57314285714298
1162.83,183.360142857143
1165.06,153.6052857142858
1167.28,137.25926666666675
1169.5,102.27348095238102
1171.72,109.45610476190484
1173.94,111.71072380952387
1176.16,109.70265238095244
1178.37,95.62128571428575
1180.58,92.03692380952384
1182.8,82.13930000000006
1185.01,86.40382000000004
1187.22,69.25815666666671
1189.42,44.415962380952394
1191.63,15.11472714285716
1193.84,15.401555714285752
1196.04,48.99029666666671
1198.24,61.452064761904786
1200.44,59.97712190476192
1202.64,54.75581571428574
1204.84,42.45484952380956
1207.03,53.31245095238099
1209.23,42.56694380952381
1211.42,28.171123809523838
1213.61,32.26840000000004
1215.8,47.57372857142862
1217.99,71.56418095238101
1220.18,102.1931383809524
1222.36,73.74745195238097
1224.55,42.895042000000025
1226.73,35.494679952380984
1228.91,44.69049438095243
1231.09,57.48418052380957
1233.27,74.78226219047623
1235.44,98.1578047619048
1237.62,80.27960952380957
1239.79,84.00706190476197
1241.96,83.05624761904765
1244.13,84.42961904761913
1246.3,104.17669523809533
1248.47,146.44279047619057
1250.64,148.80180952380962
1252.8,174.82766666666677
1254.96,180.0465238095239
1257.13,205.0327142857144
1259.29,235.6459523809525
1261.44,243.84157142857157
1263.6,232.38404761904775
1265.76,230.84780952380962
1267.91,203.99733333333344
1270.06,184.07380952380962
1272.22,171.46147619047628
1274.37,161.8772380952382
1276.51,150.5625238095239
1278.66,156.90128571428582
1280.81,143.46795238095245
1282.95,141.36120952380958
1285.09,128.4413428571429
1287.23,111.3780047619048
1289.37,99.93672380952387
1291.51,106.64421428571436
1293.65,109.45619047619056
1295.78,123.80470000000005
1297.92,108.74027619047624
1300.05,111.31385714285722
1302.18,118.48126666666673
1304.31,111.67431428571436
1306.44,104.753580952381
1308.57,118.96032380952389
1310.69,96.72624285714292
1312.82,131.2928476190477
1314.94,129.66326666666674
1317.06,120.31674285714294
1319.18,126.35195238095247
1321.3,151.0099142857144
1323.41,167.67475714285726
1325.53,215.68320952380964
1327.64,232.4666190476192
1329.75,257.78976190476203
1331.87,295.3227142857145
1333.98,304.544142857143
1336.08,292.6950952380954
1338.19,258.5405714285716
1340.3,236.46409523809535
1342.4,205.2302380952382
1344.5,183.27059047619056
1346.6,145.15870952380956
1348.7,122.27802857142865
1350.8,101.29794285714291
1352.9,102.55413333333338
1354.99,95.47744285714292
1357.09,80.07026190476195
1359.18,87.62020952380962
1361.27,116.12925238095247
1363.36,125.17108095238103
1365.45,144.84275714285724
1367.54,148.09835238095246
1369.62,138.32066666666674
1371.7,167.8919047619049
1373.79,192.5280000000001
1375.87,217.94476190476206
1377.95,243.19085714285728
1380.03,236.0294285714287
1382.1,221.31894285714296
1384.18,189.15517619047625
1386.25,147.96764761904768
1388.33,119.0903190476191
1390.4,89.38076666666673
1392.47,73.79192857142861
1394.54,76.6099066666667
1396.6,53.26327333333336
1398.67,44.08540380952383
1400.74,31.457069523809544
1402.8,39.52089428571432
1404.86,49.51451619047623
1406.92,65.62781142857146
1408.98,69.57432857142861
1411.04,81.59130952380956
1413.09,59.4872285714286
1415.15,49.35617142857146
1417.2,50.10150952380958
1419.25,81.81702857142864
1421.3,103.69156666666674
1423.35,138.77102380952388
1425.4,123.9106285714286
1427.45,92.91783809523814
1429.49,63.12375238095242
1431.54,62.62135238095242
1433.58,48.979595238095285
1435.62,66.1483428571429
1437.66,65.07729619047622
1439.7,50.335115238095256
1441.74,24.06180190476192
1443.77,25.206732380952406
1445.81,32.95726857142861
1447.84,60.738824761904816
1449.87,78.07192952380957
1451.9,72.477080952381
1453.93,71.18885238095244
1455.96,90.67986190476199
1457.98,116.99451428571436
1460.01,130.74792380952388
1462.03,143.9366476190477
1464.05,134.89019047619058
1466.07,179.27114285714302
1468.09,236.64728571428583
1470.11,282.20561904761917
1472.13,303.65619047619066
1474.14,306.32842857142873
1476.16,294.7424761904764
1478.17,300.322523809524
1480.18,272.6364285714287
1482.19,236.4424761904763
1484.2,190.1650476190477
1486.21,138.18109523809534
1488.21,129.48715238095247
1490.22,104.98349047619051
1492.22,85.80938095238102
1494.22,66.00881904761907
1496.22,51.53027619047622
1498.22,50.751214285714326
1500.22,60.477585714285745
1502.22,52.800857142857176
1504.21,50.19378095238096
1506.21,24.748123809523833
1508.2,26.603390476190505
1510.19,35.23244285714289
1512.18,61.67990476190481
1514.17,69.2282261904762
1516.16,59.25534761904763
1518.14,49.663135714285744
1520.13,39.30595714285717
1522.11,40.085930952380984
1524.09,41.238757142857146
1526.07,17.047590476190486
1528.05,28.51010571428575
1530.03,34.52901761904764
1532.01,31.102411428571465
1533.98,69.13305857142862
1535.96,83.19090666666672
1537.93,83.13155571428578
1539.9,111.28704380952387
1541.87,99.41785238095244
1543.84,101.28493333333341
1545.81,105.55387619047625
1547.78,113.46222857142862
1549.74,118.96160476190484
1551.7,135.8134095238096
1553.67,133.15977619047626
1555.63,151.52441904761912
1557.59,141.43114285714293
1559.55,141.78433333333342
1561.5,159.48919047619057
1563.46,183.9264761904763
1565.41,183.95361904761916
1567.37,178.90452380952388
1569.32,167.54157142857153
1571.27,140.29385714285723
1573.22,152.87661904761916
1575.17,175.8614761904763
1577.11,186.15438095238105
1579.06,187.66090476190487
1581.0,195.90590476190488
1582.95,170.84304761904772
1584.89,155.6160952380953
1586.83,133.46452380952388
1588.77,138.7232380952382
1590.7,147.63138095238108
1592.64,174.38104761904773
1594.58,191.8544761904763
1596.51,214.07704761904785
1598.44,245.71692857142904
