Raman Shift,Processed Intensity
331.095,51.926569047618884
333.909,54.30377142857146
336.721,66.07359285714293
339.531,74.85653333333336
342.339,43.915677142857156
345.145,39.0859438095238
347.949,-3.392112380952387
350.751,-23.753262857142865
353.55,-20.945607619047617
356.348,-13.440251428571429
359.144,10.007167619047655
361.937,26.54633333333336
364.729,64.32820952380959
367.518,94.02857619047626
370.306,135.22876190476202
373.091,209.65417619047633
375.874,306.98424761904784
378.656,326.1842857142858
381.435,300.9831904761906
384.212,230.01571428571435
386.988,135.91750190476193
389.761,73.99232571428577
392.532,39.54548000000001
395.301,0.5496742857142789
398.068,-17.735024761904747
400.833,0.0003400000000066683
403.596,-3.648152380952393
406.358,-2.368804285714295
409.117,-22.515168571428603
411.874,-35.772648571428576
414.629,-48.87282380952382
417.382,-9.022003809523785
420.133,16.812973333333375
422.882,57.428323333333395
425.629,98.71738285714295
428.374,144.90779047619057
431.117,174.8474904761906
433.858,241.0522285714287
436.597,250.99131428571437
439.334,190.80162380952387
442.069,153.66943809523818
444.802,112.16218571428577
447.533,88.84900952380963
450.262,142.06110000000012
452.989,217.60717142857158
455.714,234.58242857142872
458.438,257.51157142857153
461.159,234.20544761904767
463.878,155.5713952380953
466.595,95.27863333333337
469.31,63.42595238095242
472.024,58.827100000000065
474.735,78.9631714285715
477.444,124.64883333333343
480.152,149.84221428571436
482.857,152.64500952380962
485.561,117.82560000000007
488.262,107.2008190476191
490.962,107.77806666666675
493.659,121.70777142857149
496.355,128.42702857142865
499.048,128.0872190476191
501.74,102.64904761904768
504.43,107.12171428571438
507.118,109.03766666666674
509.804,116.93014285714295
512.488,147.4277142857144
515.17,181.7779047619049
517.85,214.27590476190488
520.528,215.93161904761914
523.204,195.468761904762
525.878,176.84945714285723
528.551,140.17855238095245
531.221,122.84655238095246
533.89,98.33944285714288
536.556,56.61919047619053
539.221,54.40946190476197
541.883,95.43373333333341
544.544,125.70131904761914
547.203,163.64944285714293
549.86,140.90617619047623
552.515,119.05170952380959
555.168,80.80878571428579
557.819,110.13792857142869
560.469,149.7139000000001
563.116,173.21102857142867
565.761,181.87509523809535
568.405,202.61819047619056
571.047,176.30438095238105
573.687,184.89223809523818
576.324,174.57890476190485
578.96,154.84658095238103
581.594,134.03441428571435
584.227,133.9570190476191
586.857,127.8101857142858
589.485,120.69347619047625
592.112,117.32588095238103
594.737,116.4254952380953
597.359,87.37676666666673
599.98,88.23054285714292
602.599,108.18005238095246
605.216,119.51360952380962
607.831,123.28100476190484
610.445,131.15041904761912
613.056,140.55200952380963
615.666,147.01069523809534
618.274,163.9073714285715
620.88,185.29018095238104
623.484,181.3494761904763
626.086,187.98909523809536
628.686,224.6370952380954
631.284,247.2446190476192
633.881,278.2858095238097
636.476,288.2825238095239
639.068,296.4228571428573
641.659,302.75166666666684
644.249,282.9326190476192
646.836,254.24811428571437
649.421,204.69442857142866
652.005,146.79126666666676
654.587,100.7724428571429
657.166,69.15737142857147
659.745,29.798257142857164
662.321,26.78532000000002
664.895,11.732474761904777
667.468,17.87234952380954
670.038,28.247039523809548
672.607,34.61268285714288
675.174,36.487241428571465
677.739,62.29330571428575
680.303,44.78668095238096
682.864,46.10407809523812
685.424,46.763110571428584
687.982,28.614644380952388
690.538,17.65240066666669
693.092,31.917660380952388
695.645,15.975561619047639
698.195,28.962669142857155
700.744,25.063223428571433
703.291,11.175770000000007
705.836,8.532261428571433
708.38,-2.4924633333333412
710.921,-1.4758023809523708
713.461,-2.8522238095238084
715.999,3.2773204761904964
718.535,33.38333380952385
721.069,55.12705142857146
723.602,71.74124961904766
726.133,79.1731481904762
728.662,35.51302590476192
731.189,24.51794609523813
733.714,40.84988114285717
736.238,32.694930095238135
738.759,55.14397009523813
741.279,84.09776952380956
743.798,59.12387333333337
746.314,57.45663333333337
748.829,77.99726380952387
751.342,97.55189238095245
753.853,112.06977238095246
756.362,139.31002952380956
758.869,118.07928571428577
761.375,80.66060476190482
763.879,64.05143333333338
766.381,77.34483333333338
768.882,90.30055714285722
771.38,87.29765238095243
773.877,89.57236190476196
776.372,73.78973333333337
778.866,67.75773809523815
781.357,71.5229333333334
783.847,96.75057619047625
786.335,105.34440952380962
788.821,131.8274761904763
791.306,132.1513714285715
793.789,139.3153714285715
796.27,135.12861904761914
798.749,136.7337142857144
801.227,155.4636666666668
803.702,176.84223809523817
806.176,192.10738095238108
808.649,200.30690476190486
811.119,197.01266666666677
813.588,178.93942857142866
816.055,188.5159047619049
818.521,201.12385714285728
820.984,199.71604761904774
823.446,197.57928571428582
825.906,209.42904761904776
828.365,178.5517857142858
830.821,180.7103809523811
833.276,183.90607142857152
835.729,157.425761904762
838.181,151.93750000000009
840.631,161.53814285714296
843.079,133.89580952380962
845.525,157.77378095238106
847.97,154.36425714285724
850.412,143.43126666666677
852.854,126.30953333333339
855.293,97.85817619047623
857.731,77.07916190476197
860.167,82.45042380952385
862.601,94.49787619047626
865.034,108.89058571428576
867.465,111.24953809523817
869.894,99.14837142857148
872.321,72.541680952381
874.747,78.33662857142866
877.171,107.29711428571434
879.594,112.61613333333338
882.014,116.53399523809529
884.433,107.8628571428572
886.851,101.27164285714295
889.266,138.2867523809525
891.68,168.3866761904763
894.092,182.7169523809525
896.503,156.85130952380962
898.912,145.07833333333343
901.319,140.638261904762
903.724,152.58128571428583
906.128,177.62411904761916
908.53,184.34095238095244
910.931,162.30561904761913
913.329,163.1876190476191
915.726,153.27466666666675
918.122,154.61719047619056
920.516,150.55076190476197
922.908,144.5065238095239
925.298,148.7727142857144
927.687,155.49480952380964
930.074,137.96042857142862
932.459,125.02923809523817
934.843,114.6560476190477
937.225,118.36680000000005
939.605,106.44958571428577
941.984,117.04964761904768
944.361,107.3117476190477
946.736,119.19040952380962
949.11,135.06877619047629
951.482,153.47246666666672
953.853,146.26061904761912
956.222,159.72086666666675
958.589,147.18843809523815
960.954,135.52244761904768
963.318,110.34332380952388
965.68,109.08140000000009
968.041,133.4525238095239
970.4,141.17245238095245
972.757,134.52822857142863
975.113,123.04518952380957
977.467,77.53388952380955
979.819,41.5669504761905
982.17,28.0978723809524
984.519,27.698917142857198
986.866,55.085184761904834
989.212,104.92428476190483
991.556,144.40736190476198
993.899,167.67775238095248
996.24,168.25985714285724
998.579,169.82039047619054
1000.92,130.16943809523815
1003.25,109.3069714285715
1005.59,98.42365714285721
1007.92,103.47201904761913
1010.25,123.54739047619057
1012.58,138.1732000000001
1014.91,134.77795238095248
1017.24,131.31342857142863
1019.56,127.54123809523817
1021.88,118.36585714285722
1024.2,139.35790476190485
1026.52,141.1837142857144
1028.84,182.69966666666681
1031.16,203.57180952380966
1033.48,223.84700000000015
1035.79,245.09600000000017
1038.1,284.2700952380954
1040.41,277.8446190476192
1042.72,302.29471428571446
1045.03,284.52390476190493
1047.33,253.86452380952397
1049.64,248.5535714285716
1051.94,223.82814285714295
1054.24,199.87704761904774
1056.54,193.50895238095248
1058.84,184.1984761904763
1061.13,199.94457142857158
1063.43,227.03133333333346
1065.72,230.1716666666668
1068.01,239.12576190476204
1070.3,226.32104761904773
1072.59,220.51776190476204
1074.87,229.61957142857156
1077.16,244.24357142857158
1079.44,271.34066666666683
1081.72,305.5761428571431
1084.0,340.56738095238114
1086.28,402.5506666666669
1088.56,485.42919047619085
1090.84,584.6299047619052
1093.11,662.1990000000004
1095.38,682.7060952380956
1097.65,629.959285714286
1099.92,536.6710000000003
1102.19,445.4584761904764
1104.46,383.510904761905
1106.72,368.7791904761907
1108.98,370.3090952380955
1111.24,394.0039523809527
1113.5,435.195285714286
1115.76,496.11957142857176
1118.02,506.7754285714289
1120.28,518.2088571428575
1122.53,518.0376190476194
1124.78,494.6884285714289
1127.03,458.5411428571431
1129.28,401.8320952380954
1131.53,319.7505714285717
1133.77,239.9617142857144
1136.02,221.5120952380954
1138.26,190.3047142857144
1140.5,194.053142857143
1142.74,200.75557142857156
1144.98,224.4588095238097
1147.22,238.114142857143
1149.45,272.38695238095255
1151.69,257.7049523809525
1153.92,248.21014285714298
1156.15,209.948761904762
1158.38,162.68209523809531
1160.61,157.50445904761915
1162.83,130.12937809523814
1165.06,105.55649904761911
1167.28,81.88027428571431
1169.5,57.2903990476191
1171.72,63.35796380952388
1173.94,94.36815428571434
1176.16,89.13020952380957
1178.37,81.26290000000003
1180.58,48.05176666666669
1182.8,37.87767757523813
1185.01,36.69320792285716
1187.22,23.212634417142876
1189.42,26.483850867619058
1191.63,8.983438226666667
1193.84,7.473781256190504
1196.04,15.003108051428582
1198.24,37.28645809523813
1200.44,33.37234142857144
1202.64,30.97604571428573
1204.84,28.67017761904765
1207.03,37.598837142857164
1209.23,31.38249047619051
1211.42,52.49879047619049
1213.61,40.85412380952382
1215.8,24.831147619047645
1217.99,37.76500000000002
1220.18,32.705180952380964
1222.36,32.36796571428574
1224.55,31.80297523809524
1226.73,19.488521904761914
1228.91,9.664815238095258
1231.09,27.71497904761908
1233.27,56.02229428571434
1235.44,77.68419904761907
1237.62,76.17918095238099
1239.79,58.36673333333336
1241.96,48.630180952381
1244.13,52.352880952381
1246.3,74.77540000000005
1248.47,93.61458571428578
1250.64,102.9202952380953
1252.8,118.98092380952392
1254.96,158.17993333333345
1257.13,198.04356190476202
1259.29,224.09819047619064
1261.44,243.39409523809536
1263.6,240.6954761904763
1265.76,226.2910000000001
1267.91,213.27857142857155
1270.06,199.5652857142858
1272.22,194.63005714285728
1274.37,165.2849857142858
1276.51,127.48497142857148
1278.66,107.75644285714293
1280.81,88.67354285714292
1282.95,103.81008095238104
1285.09,118.16870000000006
1287.23,107.0375714285715
1289.37,123.65750000000008
1291.51,130.93561428571434
1293.65,99.58880476190483
1295.78,101.66710952380956
1297.92,69.50631428571432
1300.05,61.53747142857149
1302.18,82.9058571428572
1304.31,102.56597142857149
1306.44,93.18693809523816
1308.57,114.34246666666675
1310.69,109.55877619047627
1312.82,137.40967619047626
1314.94,157.03991904761915
1317.06,182.26084761904772
1319.18,191.9319047619049
1321.3,216.00757142857157
1323.41,215.0613333333335
1325.53,264.57133333333354
1327.64,294.82523809523826
1329.75,315.3484761904764
1331.87,316.52380952380963
1333.98,296.01966666666686
1336.08,261.83771428571447
1338.19,256.88404761904775
1340.3,234.58914285714297
1342.4,203.4779523809525
1344.5,184.93282857142867
1346.6,154.3835428571429
1348.7,126.78368095238103
1350.8,122.89623809523816
1352.9,96.29391428571434
1354.99,82.16794285714293
1357.09,84.75750952380957
1359.18,77.44414761904767
1361.27,75.56204761904768
1363.36,82.39750000000004
1365.45,100.76039523809533
1367.54,124.6987952380953
1369.62,134.4511714285715
1371.7,159.58914285714295
1373.79,178.97009523809535
1375.87,194.8797142857144
1377.95,211.5559523809525
1380.03,194.2842380952382
1382.1,183.06442857142866
1384.18,180.75309523809534
1386.25,161.01619047619056
1388.33,153.90106666666674
1390.4,127.07331428571433
1392.47,104.5795952380953
1394.54,80.65714761904766
1396.6,59.30470000000004
1398.67,53.949261904761954
1400.74,74.58988761904767
1402.8,66.65337809523812
1404.86,65.18574190476194
1406.92,55.85177428571433
1408.98,55.07825619047625
1411.04,81.72010190476199
1413.09,118.39416380952386
1415.15,101.0507571428572
1417.2,94.9732571428572
1419.25,116.3496095238096
1421.3,124.70153809523818
1423.35,130.26431428571436
1425.4,138.4639857142858
1427.45,128.107361904762
1429.49,105.66786190476196
1431.54,99.90443333333339
1433.58,102.14788571428578
1435.62,81.53772380952385
1437.66,90.83326666666673
1439.7,100.88834761904766
1441.74,82.70006190476195
1443.77,83.26547619047626
1445.81,113.05778571428579
1447.84,124.78792857142868
1449.87,138.92916666666673
1451.9,142.8113333333334
1453.93,123.76504761904769
1455.96,117.35852380952389
1457.98,114.82661904761912
1460.01,137.9284285714287
1462.03,169.47019047619065
1464.05,214.87723809523825
1466.07,255.57547619047637
1468.09,283.13295238095253
1470.11,329.2131904761907
1472.13,342.38495238095254
1474.14,343.8833809523811
1476.16,329.65795238095257
1478.17,323.61080952380973
1480.18,315.1675714285716
1482.19,311.7541904761907
1484.2,247.6061904761906
1486.21,185.1972857142858
1488.21,129.8105238095239
1490.22,125.4434095238096
1492.22,138.09353333333343
1494.22,120.94942380952386
1496.22,95.58036666666672
1498.22,65.07957142857146
1500.22,37.34997619047623
1502.22,56.86575619047623
1504.21,62.4348442857143
1506.21,39.48421047619048
1508.2,15.679049047619035
1510.19,-6.648610476190471
1512.18,-1.9761538095237814
1514.17,14.457300000000025
1516.16,46.412612380952424
1518.14,65.69859809523813
1520.13,74.07646190476196
1522.11,72.30749047619051
1524.09,81.10545714285718
1526.07,70.46992952380957
1528.05,62.06711761904764
1530.03,46.6111923809524
1532.01,53.19703952380956
1533.98,50.300820952380995
1535.96,64.87487952380957
1537.93,78.96680095238099
1539.9,72.67189523809527
1541.87,70.84742857142862
1543.84,62.683933333333364
1545.81,78.99136190476197
1547.78,85.15086666666672
1549.74,103.68667619047628
1551.7,131.40859047619057
1553.67,155.26948571428582
1555.63,153.31746666666677
1557.59,156.7436095238096
1559.55,151.5487142857144
1561.5,169.59033333333343
1563.46,167.86909523809535
1565.41,175.86204761904773
1567.37,177.8558095238096
1569.32,165.99395238095246
1571.27,174.65857142857155
1573.22,177.4690952380953
1575.17,143.61709523809532
1577.11,136.72245714285722
1579.06,117.11974285714291
1581.0,116.80986666666676
1582.95,131.36563809523818
1584.89,135.1687238095239
1586.83,130.55369523809534
1588.77,152.80755238095247
1590.7,137.97902380952388
1592.64,135.2120476190477
1594.58,134.19855952380956
1596.51,140.6775952380954
1598.44,158.65023809523848
