Raman Shift,Processed Intensity
331.095,151.84552190476143
333.909,-8.787649523809876
336.721,-49.99919666666682
339.531,-20.500036190476152
342.339,19.379553333333355
345.145,29.309712380952373
347.949,15.247526666666667
350.751,-2.515685714285716
353.55,-1.6875809523809573
356.348,-22.736771428571444
359.144,-27.987871428571435
361.937,-22.85973809523808
364.729,5.325257142857184
367.518,41.38877619047627
370.306,133.05834761904774
373.091,223.15760476190493
375.874,308.60709523809544
378.656,365.6616666666668
381.435,333.38693333333345
384.212,228.37355238095245
386.988,162.3086476190477
389.761,87.4515047619048
392.532,40.06318571428575
395.301,29.977233333333352
398.068,12.837885714285727
400.833,17.671657142857175
403.596,19.030304761904755
406.358,18.942720952380967
409.117,13.724952857142858
411.874,10.456233333333337
414.629,-9.592516666666672
417.382,3.5175695238095193
420.133,-13.130541428571409
422.882,18.356779047619092
425.629,49.112462857142916
428.374,120.69922857142868
431.117,174.10945714285728
433.858,236.38400952380968
436.597,245.94590476190487
439.334,232.55214285714297
442.069,182.00847619047627
444.802,147.5977142857144
447.533,138.69880952380962
450.262,149.97709523809533
452.989,171.1941904761906
455.714,210.58818095238107
458.438,200.6361714285715
461.159,149.48247619047623
463.878,91.65311428571431
466.595,71.8650476190477
469.31,91.50273333333342
472.024,130.8080095238096
474.735,132.40423333333337
477.444,113.72460000000004
480.152,110.25076666666675
482.857,120.9404476190477
485.561,132.46625238095245
488.262,140.1677428571429
490.962,125.81382857142864
493.659,118.64907619047628
496.355,120.58584285714291
499.048,96.10750476190479
501.74,76.65008571428575
504.43,50.03092380952385
507.118,46.924714285714344
509.804,81.5299333333334
512.488,119.80732857142867
515.17,188.19361904761917
517.85,223.12583809523818
520.528,190.9931095238096
523.204,164.27982857142865
525.878,121.5661666666667
528.551,88.86039047619055
531.221,107.55192857142862
533.89,93.22047142857147
536.556,83.1598952380953
539.221,96.75920476190481
541.883,100.3596476190477
544.544,109.49305238095246
547.203,107.50067619047624
549.86,78.77092380952386
552.515,84.1207714285715
555.168,99.12898095238104
557.819,142.32617142857154
560.469,177.9577142857144
563.116,190.74417142857155
565.761,171.21583809523818
568.405,144.3787238095239
571.047,117.38182857142863
573.687,111.99246666666674
576.324,101.93053333333341
578.96,115.2483714285715
581.594,133.47492380952391
584.227,154.56700952380965
586.857,167.8620380952382
589.485,162.03052857142865
592.112,120.02846190476197
594.737,95.85894761904768
597.359,98.38243333333341
599.98,116.4111095238096
602.599,147.0421095238096
605.216,141.22995714285722
607.831,117.83336190476196
610.445,101.4726047619048
613.056,95.482161904762
615.666,90.91048095238104
618.274,116.28154285714294
620.88,124.59529523809533
623.484,132.13712380952387
626.086,161.66832380952394
628.686,181.71189523809534
631.284,187.93333333333348
633.881,242.5689523809525
636.476,261.7120476190477
639.068,271.74142857142874
641.659,278.1787142857144
644.249,235.64014285714296
646.836,194.6467142857144
649.421,173.57590952380954
652.005,98.71011428571431
654.587,64.42654285714289
657.166,37.57864761904764
659.745,25.304861904761943
662.321,35.02975714285717
664.895,49.0345523809524
667.468,46.40990952380955
670.038,48.436814285714306
672.607,49.30089619047621
675.174,32.473350952380954
677.739,31.09197809523813
680.303,41.53254914285717
682.864,40.83742080952383
685.424,38.38216971428574
687.982,36.35191014285715
690.538,29.693580666666705
693.092,38.2112474761905
695.645,44.37560009523812
698.195,41.7049142857143
700.744,32.86034095238095
703.291,13.360229047619056
705.836,0.38959142857142615
708.38,10.943037619047647
710.921,24.586620000000032
713.461,44.886476666666695
715.999,53.07546952380955
718.535,59.57701428571431
721.069,41.48128571428575
723.602,54.78336190476193
726.133,67.28786190476194
728.662,63.561457142857165
731.189,57.45661904761907
733.714,36.58786904761905
736.238,16.998371428571456
738.759,29.77934523809529
741.279,79.87876666666673
743.798,76.57846428571432
746.314,85.54113333333336
748.829,70.85857142857147
751.342,68.24154285714292
753.853,77.7822476190477
756.362,116.334380952381
758.869,98.60950000000005
761.375,107.1760190476191
763.879,91.74585238095243
766.381,82.26901904761911
768.882,86.40982380952389
771.38,82.64227619047624
773.877,70.58356190476195
776.372,68.32706190476193
778.866,54.15692380952386
781.357,67.07177619047624
783.847,77.26063809523811
786.335,47.57950000000002
788.821,32.40827142857145
791.306,42.936590476190524
793.789,70.59216190476198
796.27,111.8506095238096
798.749,131.42557142857152
801.227,140.50730476190486
803.702,148.04790476190487
806.176,153.19033333333346
808.649,187.50585714285728
811.119,204.9945238095239
813.588,182.7993333333334
816.055,178.58752380952393
818.521,161.0258571428572
820.984,136.06785714285724
823.446,143.42814285714294
825.906,144.5835714285715
828.365,137.53533333333343
830.821,167.09400000000014
833.276,172.1171904761906
835.729,175.17785714285722
838.181,144.1818571428572
840.631,144.22593333333342
843.079,141.88309523809534
845.525,132.7261714285715
847.97,119.18519047619053
850.412,107.07115714285717
852.854,81.00499047619056
855.293,94.75045238095242
857.731,92.26168571428575
860.167,75.11208571428577
862.601,85.30362857142865
865.034,91.83837619047625
867.465,86.71851428571433
869.894,87.70803333333339
872.321,85.99961904761909
874.747,72.07172380952386
877.171,93.0694095238096
879.594,101.66178095238101
882.014,88.99398571428578
884.433,113.78286666666673
886.851,122.31640000000007
889.266,119.07343809523819
891.68,132.1041333333334
894.092,133.55375238095246
896.503,120.18652857142867
898.912,143.91007619047627
901.319,143.01271428571437
903.724,145.4020476190477
906.128,133.17580952380962
908.53,151.52719047619058
910.931,144.69661904761912
913.329,148.92485714285723
915.726,144.16708571428578
918.122,124.28319047619053
920.516,99.0853190476191
922.908,87.71904761904764
925.298,74.23455714285721
927.687,87.3486095238096
930.074,133.30215714285725
932.459,141.3834190476191
934.843,135.97586190476196
937.225,124.84398095238102
939.605,103.990280952381
941.984,78.46486666666672
944.361,82.03232380952385
946.736,55.07581904761908
949.11,54.83608095238102
951.482,76.17246666666671
953.853,94.65878571428578
956.222,99.24959523809528
958.589,85.18522857142861
960.954,94.89645238095245
963.318,105.09988571428578
965.68,94.46409047619053
968.041,89.08648095238098
970.4,83.30221904761909
972.757,60.827561904761964
975.113,81.14050952380956
977.467,60.24285047619048
979.819,26.326752857142864
982.17,5.822434285714297
984.519,3.636156666666686
986.866,21.674200952380993
989.212,39.652186190476215
991.556,69.66674571428578
993.899,103.48094285714294
996.24,120.23855238095246
998.579,116.65481428571434
1000.92,109.8258571428572
1003.25,84.84771904761911
1005.59,84.29266190476196
1007.92,88.97077619047624
1010.25,82.54910000000005
1012.58,73.69472857142863
1014.91,76.74142380952387
1017.24,102.40350000000007
1019.56,121.91929523809532
1021.88,123.05080952380959
1024.2,120.94083809523816
1026.52,117.06560476190485
1028.84,117.42498095238106
1031.16,146.44696666666678
1033.48,163.03618095238105
1035.79,192.19233333333347
1038.1,222.248142857143
1040.41,229.91738095238108
1042.72,219.19971428571438
1045.03,212.47514285714297
1047.33,193.5050000000001
1049.64,191.28838095238106
1051.94,193.72904761904775
1054.24,186.35004761904773
1056.54,196.96028571428582
1058.84,191.32023809523818
1061.13,172.47666666666674
1063.43,151.80938095238105
1065.72,141.41228571428582
1068.01,146.47485714285725
1070.3,168.1387142857144
1072.59,175.30690476190486
1074.87,161.64495238095247
1077.16,166.9136190476192
1079.44,212.8255714285716
1081.72,249.4748571428573
1084.0,282.43104761904783
1086.28,348.12109523809545
1088.56,413.78185714285746
1090.84,504.60195238095275
1093.11,608.3419047619052
1095.38,619.714285714286
1097.65,566.2410000000003
1099.92,478.0156666666669
1102.19,404.1323333333336
1104.46,355.73171428571453
1106.72,355.2408095238098
1108.98,361.18109523809545
1111.24,377.789285714286
1113.5,409.3967142857145
1115.76,457.66861904761936
1118.02,484.8411904761908
1120.28,514.1980952380954
1122.53,518.2134761904764
1124.78,463.69557142857167
1127.03,419.2138095238098
1129.28,353.8614761904764
1131.53,279.92261904761915
1133.77,210.87152380952392
1136.02,173.03961904761914
1138.26,141.18714285714296
1140.5,163.0264285714287
1142.74,197.84128571428585
1144.98,242.20142857142872
1147.22,248.58133333333348
1149.45,273.31252380952395
1151.69,286.2503809523811
1153.92,276.0124380952382
1156.15,228.88267619047627
1158.38,181.85916190476198
1160.61,131.27383809523818
1162.83,109.60111904761911
1165.06,92.98219523809529
1167.28,94.9870047619048
1169.5,73.09017142857148
1171.72,64.48061428571434
1173.94,74.39516666666671
1176.16,85.1179571428572
1178.37,72.17140952380956
1180.58,85.22077590476194
1182.8,64.12195042857144
1185.01,42.25460085714287
1187.22,21.712712904761915
1189.42,16.828472285714295
1191.63,3.124531380952403
1193.84,23.790261619047648
1196.04,45.824680952380994
1198.24,58.89348571428574
1200.44,51.32914285714288
1202.64,44.321338095238104
1204.84,22.916995238095247
1207.03,-3.8845333333333314
1209.23,4.916338095238111
1211.42,23.31926190476193
1213.61,35.41922380952384
1215.8,61.311400000000035
1217.99,69.51963333333335
1220.18,51.282161904761935
1222.36,46.789785714285735
1224.55,38.13816190476192
1226.73,25.756395238095266
1228.91,37.59751904761908
1231.09,48.09087142857146
1233.27,47.85638571428575
1235.44,76.65690952380957
1237.62,96.16038571428577
1239.79,113.89163809523816
1241.96,109.47100952380957
1244.13,103.61415714285721
1246.3,104.84640952380963
1248.47,129.83596666666676
1250.64,151.5370000000001
1252.8,161.37960952380962
1254.96,164.98476190476202
1257.13,192.59247619047633
1259.29,235.96671428571443
1261.44,241.25233333333347
1263.6,234.451142857143
1265.76,240.0894285714287
1267.91,230.5978571428573
1270.06,238.83604761904775
1272.22,234.37757142857154
1274.37,185.4152857142858
1276.51,151.23714285714294
1278.66,144.03661904761913
1280.81,138.62576190476202
1282.95,162.48324761904772
1285.09,146.99248571428578
1287.23,131.25149523809532
1289.37,135.26280000000008
1291.51,152.648361904762
1293.65,167.50605238095247
1295.78,154.83837142857146
1297.92,104.64822380952384
1300.05,111.3196857142858
1302.18,115.6648857142858
1304.31,123.92479047619055
1306.44,120.86410000000006
1308.57,123.58069523809533
1310.69,130.50620476190488
1312.82,166.31019047619057
1314.94,176.56680000000011
1317.06,172.278761904762
1319.18,176.25828571428588
1321.3,207.79395238095253
1323.41,245.55547619047638
1325.53,279.06909523809543
1327.64,312.5759523809526
1329.75,339.79290476190494
1331.87,366.57938095238114
1333.98,352.700523809524
1336.08,330.0633333333335
1338.19,313.4322857142859
1340.3,267.52452380952394
1342.4,236.24695238095254
1344.5,220.31638095238105
1346.6,180.4494285714287
1348.7,161.41038095238105
1350.8,155.48709523809532
1352.9,159.0630000000001
1354.99,167.33042857142868
1357.09,165.0060000000001
1359.18,179.37738095238106
1361.27,168.922761904762
1363.36,176.92947619047635
1365.45,194.7327142857144
1367.54,196.5247142857144
1369.62,201.16423809523823
1371.7,222.31971428571444
1373.79,213.42071428571444
1375.87,229.70700000000014
1377.95,223.98909523809533
1380.03,221.7924285714287
1382.1,221.16528571428586
1384.18,194.39447619047627
1386.25,179.05209523809535
1388.33,157.66275238095247
1390.4,116.13175238095246
1392.47,109.17419047619055
1394.54,106.12340000000003
1396.6,83.83700952380958
1398.67,71.88650476190479
1400.74,55.03375714285717
1402.8,52.516571428571496
1404.86,74.47785238095244
1406.92,107.1550190476191
1408.98,112.21437142857147
1411.04,87.65521428571434
1413.09,78.14357619047624
1415.15,86.1543047619048
1417.2,85.73424285714292
1419.25,99.977180952381
1421.3,106.54883809523817
1423.35,119.35231904761913
1425.4,136.6244000000001
1427.45,128.83958571428576
1429.49,111.7106190476191
1431.54,89.37845238095244
1433.58,98.7938095238096
1435.62,112.14507619047626
1437.66,111.52549523809529
1439.7,88.07592857142859
1441.74,60.31798095238099
1443.77,38.34450952380956
1445.81,55.105628571428625
1447.84,68.93238571428576
1449.87,74.25090952380957
1451.9,81.29684285714292
1453.93,105.06773809523817
1455.96,128.5608238095239
1457.98,148.48811904761914
1460.01,150.60870476190482
1462.03,139.34861904761914
1464.05,154.22876190476205
1466.07,203.48480952380967
1468.09,234.20876190476204
1470.11,266.63671428571445
1472.13,284.09871428571444
1474.14,278.9731904761906
1476.16,267.54295238095256
1478.17,269.7102380952382
1480.18,242.09071428571443
1482.19,214.8726666666668
1484.2,188.86261904761915
1486.21,151.81976190476198
1488.21,127.36081904761912
1490.22,106.00680000000004
1492.22,90.61191809523814
1494.22,56.84037761904763
1496.22,33.9753123809524
1498.22,31.013984285714322
1500.22,41.620845714285736
1502.22,41.412372857142884
1504.21,49.14810571428572
1506.21,28.49235428571429
1508.2,16.014296190476205
1510.19,11.140285714285715
1512.18,2.3920123809523903
1514.17,6.719828571428581
1516.16,12.788405714285723
1518.14,17.881587619047636
1520.13,28.521397142857154
1522.11,21.372782380952387
1524.09,10.71984428571429
1526.07,4.608648095238105
1528.05,13.371041428571464
1530.03,42.10090523809528
1532.01,64.46357285714289
1533.98,60.93401809523813
1535.96,60.74915238095241
1537.93,52.71741904761909
1539.9,52.64735714285719
1541.87,72.20463809523815
1543.84,88.62652857142864
1545.81,79.388480952381
1547.78,96.68010476190481
1549.74,91.11987619047622
1551.7,91.75490952380959
1553.67,112.91774285714294
1555.63,129.98909523809533
1557.59,127.01600000000008
1559.55,134.8550476190477
1561.5,137.26809523809533
1563.46,155.82633333333342
1565.41,172.29161904761915
1567.37,167.7590000000001
1569.32,144.0852857142858
1571.27,141.65157142857154
1573.22,147.743761904762
1575.17,167.3616000000001
1577.11,160.45795714285723
1579.06,125.93734285714291
1581.0,121.32380476190487
1582.95,131.09410476190484
1584.89,134.62948095238102
1586.83,142.0255047619048
1588.77,140.80619047619058
1590.7,127.59119047619059
1592.64,160.761761904762
1594.58,175.34228571428568
1596.51,175.78564285714282
1598.44,154.59233333333339
