Raman Shift,Processed Intensity
331.095,173.05366666666623
333.909,40.33059761904738
336.721,-10.533902380952554
339.531,-6.5847999999999836
342.339,13.370747619047675
345.145,56.430688666666676
347.949,39.40859557142856
350.751,18.88051971428575
353.55,40.804482047619075
356.348,36.80593114285717
359.144,53.416061285714314
361.937,39.30987723809525
364.729,16.687060952381
367.518,61.510411428571516
370.306,121.31514952380965
373.091,211.5897190476192
375.874,311.0619619047621
378.656,331.7466190476192
381.435,298.0879142857144
384.212,216.29342857142862
386.988,110.66702380952387
389.761,37.98989142857145
392.532,10.330462857142866
395.301,-35.33674095238097
398.068,-33.940743809523816
400.833,-36.9328980952381
403.596,-24.81080142857143
406.358,-14.880160952380944
409.117,16.50718333333333
411.874,3.0007190476190457
414.629,-1.2248452380952446
417.382,-8.37442857142857
420.133,-3.3183523809523603
422.882,17.312623809523856
425.629,67.3173571428572
428.374,113.1149000000001
431.117,184.69702857142872
433.858,236.5801333333335
436.597,244.75809523809536
439.334,221.13066666666677
442.069,188.36033333333341
444.802,153.443761904762
447.533,135.90271428571438
450.262,157.4493809523811
452.989,198.8926666666668
455.714,236.899142857143
458.438,248.18371428571442
461.159,227.60483809523816
463.878,134.45038571428577
466.595,75.62734285714292
469.31,79.37713809523817
472.024,110.60815238095249
474.735,141.75300476190486
477.444,174.91131428571433
480.152,165.9928095238096
482.857,139.52700000000007
485.561,138.7578095238096
488.262,147.2625714285715
490.962,141.047761904762
493.659,138.92923809523816
496.355,134.53295238095248
499.048,114.10466666666673
501.74,122.74685714285722
504.43,140.32371428571437
507.118,138.74766666666676
509.804,158.02661904761914
512.488,173.02538095238106
515.17,180.37095238095253
517.85,217.73809523809535
520.528,212.65819047619058
523.204,179.90104761904772
525.878,162.0940476190477
528.551,152.29245714285724
531.221,144.64686666666677
533.89,137.59382380952385
536.556,112.47402857142863
539.221,93.67614761904768
541.883,101.20737142857152
544.544,130.7892238095239
547.203,158.95269523809534
549.86,150.46676190476202
552.515,154.81457142857153
555.168,147.38357142857154
557.819,164.79900000000012
560.469,192.20971428571443
563.116,211.62176190476202
565.761,208.75519047619062
568.405,193.71109523809534
571.047,185.11323809523822
573.687,173.01433333333344
576.324,171.03795238095248
578.96,155.47457142857155
581.594,155.1855238095239
584.227,138.46038095238106
586.857,164.1599238095239
589.485,124.85882857142863
592.112,90.08399047619054
594.737,89.31471428571436
597.359,93.0772476190477
599.98,113.1354857142858
602.599,168.01546666666673
605.216,147.3856476190477
607.831,143.10485714285724
610.445,169.17424761904772
613.056,131.8802952380953
615.666,117.65200000000007
618.274,122.58496190476197
620.88,108.15567619047629
623.484,132.41164761904773
626.086,176.30445714285725
628.686,192.21428571428586
631.284,227.99695238095254
633.881,264.22290476190494
636.476,267.0807619047621
639.068,274.42604761904784
641.659,252.73252380952394
644.249,229.855142857143
646.836,196.2195238095239
649.421,181.39430666666675
652.005,132.8524257142858
654.587,96.01944666666671
657.166,56.84403142857146
659.745,51.894137142857176
662.321,31.927573333333363
664.895,44.74978761904764
667.468,38.69011904761906
670.038,30.363342857142882
672.607,43.09847619047623
675.174,56.176828571428594
677.739,42.07013333333336
680.303,42.01197619047621
682.864,18.75972857142857
685.424,19.68982952380955
687.982,22.60732952380953
690.538,22.745873333333353
693.092,30.4820142857143
695.645,41.85900523809524
698.195,9.682102857142862
700.744,9.375692857142859
703.291,10.364216190476206
705.836,14.691317619047643
708.38,28.305520000000016
710.921,37.01252095238095
713.461,10.903909047619052
715.999,16.499913333333367
718.535,33.035119523809556
721.069,47.029951428571465
723.602,53.10019476190478
726.133,46.29022095238096
728.662,25.930247619047638
731.189,24.39818095238096
733.714,13.405333333333346
736.238,19.901180952380976
738.759,32.502004761904786
741.279,41.20509047619051
743.798,63.57923333333337
746.314,72.95520000000003
748.829,67.85431428571432
751.342,58.65510476190478
753.853,41.021919047619065
756.362,24.523957142857167
758.869,25.7780904761905
761.375,29.258409523809554
763.879,34.3914523809524
766.381,43.98479523809527
768.882,57.56039047619052
771.38,68.25930000000004
773.877,59.17499047619051
776.372,62.448847619047655
778.866,62.9362428571429
781.357,72.30236571428577
783.847,62.02198952380955
786.335,58.093607619047646
788.821,50.849243809523855
791.306,72.28790285714294
793.789,107.40845142857152
796.27,149.1144133333334
798.749,162.83361904761915
801.227,164.3742857142858
803.702,159.16419047619058
806.176,156.01195238095247
808.649,165.91680952380963
811.119,161.97319047619058
813.588,173.89519047619058
816.055,158.53904761904766
818.521,153.09504761904773
820.984,158.51519047619055
823.446,179.94172380952392
825.906,149.94586190476198
828.365,116.47982380952384
830.821,86.4955571428572
833.276,64.18369523809528
835.729,86.21108095238104
838.181,119.38714285714292
840.631,134.80721904761913
843.079,126.28098095238103
845.525,120.04679047619054
847.97,120.62861428571438
850.412,112.26516190476195
852.854,90.52829523809527
855.293,65.56135714285716
857.731,52.74598571428576
860.167,52.987552380952444
862.601,91.42936666666672
865.034,84.7867047619048
867.465,90.96512000000003
869.894,60.96553428571431
872.321,34.12234952380955
874.747,31.91273714285718
877.171,47.385416190476235
879.594,62.01754857142864
882.014,102.38209619047626
884.433,128.623180952381
886.851,112.83727619047625
889.266,120.45432380952388
891.68,129.47595238095246
894.092,131.18895238095246
896.503,139.97652380952388
898.912,159.60185714285723
901.319,147.92371428571437
903.724,144.27714285714293
906.128,148.37842857142863
908.53,155.70547619047628
910.931,158.92700000000008
913.329,160.3778571428572
915.726,156.0125714285715
918.122,137.49952380952388
920.516,125.6505333333334
922.908,112.56300952380958
925.298,107.19125714285722
927.687,104.77556190476199
930.074,121.84173333333342
932.459,134.72534285714295
934.843,145.7144476190477
937.225,120.81110476190482
939.605,107.68442857142863
941.984,89.95561428571435
944.361,87.72198095238102
946.736,93.22429047619053
949.11,111.17903809523816
951.482,87.01714285714291
953.853,76.69335238095242
956.222,80.16262380952388
958.589,96.42703809523819
960.954,108.77485238095247
963.318,140.92272380952386
965.68,128.96837619047625
968.041,107.05691428571436
970.4,91.66729047619053
972.757,75.89682380952385
975.113,59.65283333333339
977.467,61.17578095238098
979.819,59.18242952380955
982.17,34.57990333333335
984.519,32.41824000000002
986.866,11.271268095238105
989.212,19.522292380952408
991.556,20.74520809523812
993.899,47.03741047619053
996.24,64.3536952380953
998.579,119.98224285714295
1000.92,134.68713809523817
1003.25,130.61342857142864
1005.59,105.00137142857149
1007.92,87.80516666666671
1010.25,56.693480952381
1012.58,67.47779523809528
1014.91,79.82627619047624
1017.24,85.55005238095244
1019.56,98.12680476190482
1021.88,108.70063333333339
1024.2,95.17731428571435
1026.52,89.46272857142863
1028.84,97.12874285714292
1031.16,114.3190714285715
1033.48,135.55815238095246
1035.79,160.27478095238106
1038.1,188.9454761904763
1040.41,204.42761904761915
1042.72,231.0066190476192
1045.03,232.96833333333348
1047.33,206.02676190476203
1049.64,192.1814761904763
1051.94,166.57495238095245
1054.24,150.30204761904773
1056.54,161.79066666666677
1058.84,164.42085714285724
1061.13,168.33457142857156
1063.43,188.3402380952382
1065.72,170.6750952380953
1068.01,165.7191238095239
1070.3,136.37569523809532
1072.59,136.6434380952382
1074.87,157.09254285714297
1077.16,180.24496190476205
1079.44,202.09945714285726
1081.72,229.51174285714302
1084.0,238.8610476190478
1086.28,305.3359523809527
1088.56,402.5062380952385
1090.84,530.8461428571433
1093.11,617.0678571428575
1095.38,644.2651428571431
1097.65,624.8644285714289
1099.92,539.5777142857146
1102.19,446.7838571428574
1104.46,381.48095238095254
1106.72,327.5238571428574
1108.98,324.1484285714288
1111.24,364.7812380952384
1113.5,390.89604761904786
1115.76,433.7286190476193
1118.02,463.3246190476193
1120.28,458.7770476190479
1122.53,455.1785714285717
1124.78,428.7173809523811
1127.03,380.72404761904784
1129.28,337.8157142857145
1131.53,294.1330952380954
1133.77,238.38795238095253
1136.02,206.53047619047632
1138.26,208.08204761904776
1140.5,189.70685714285725
1142.74,184.59347619047628
1144.98,185.16814285714298
1147.22,204.52361904761918
1149.45,232.89590476190494
1151.69,252.2829523809525
1153.92,228.539761904762
1156.15,199.6166000000001
1158.38,146.13033809523816
1160.61,127.69777142857151
1162.83,132.9361476190477
1165.06,125.98637142857152
1167.28,122.60867619047626
1169.5,115.75348571428577
1171.72,87.27612380952387
1173.94,81.65097142857148
1176.16,86.16228571428576
1178.37,85.7131428571429
1180.58,77.3496904761905
1182.8,65.1180523809524
1185.01,40.96926666666668
1187.22,24.711609523809543
1189.42,24.867685714285738
1191.63,33.103033333333364
1193.84,39.51187142857146
1196.04,52.99800952380954
1198.24,39.941609523809525
1200.44,22.580052380952395
1202.64,16.627028571428585
1204.84,25.462988571428596
1207.03,29.325700476190494
1209.23,25.024458095238096
1211.42,12.083047142857145
1213.61,4.120543809523818
1215.8,1.0895338095238274
1217.99,16.037974285714302
1220.18,28.680633333333354
1222.36,38.68476190476194
1224.55,58.05104761904766
1226.73,81.8756190476191
1228.91,92.30220000000006
1231.09,89.66515238095242
1233.27,93.01323809523814
1235.44,71.25243571428574
1237.62,51.62217619047623
1239.79,49.409492857142894
1241.96,75.28276190476197
1244.13,112.57679285714296
1246.3,146.19797142857152
1248.47,143.67187619047627
1250.64,146.23861904761912
1252.8,136.99504761904774
1254.96,166.51480952380965
1257.13,208.08538095238112
1259.29,225.32819047619063
1261.44,244.72128571428587
1263.6,257.2196666666668
1265.76,239.96800000000016
1267.91,232.5879523809525
1270.06,208.55790476190487
1272.22,169.49966666666674
1274.37,151.22485714285725
1276.51,151.02204761904773
1278.66,162.6552380952382
1280.81,166.6990476190477
1282.95,159.87019047619057
1285.09,135.8378095238096
1287.23,125.89042857142864
1289.37,129.6495714285715
1291.51,141.26100000000005
1293.65,130.87050000000008
1295.78,105.76645238095243
1297.92,77.71350000000005
1300.05,85.76221428571435
1302.18,83.01023809523817
1304.31,111.74649047619054
1306.44,115.68787142857147
1308.57,87.26581428571436
1310.69,99.57836666666677
1312.82,129.10467142857152
1314.94,158.46637142857156
1317.06,198.66658571428584
1319.18,213.3744285714287
1321.3,198.64052380952393
1323.41,230.80080952380968
1325.53,240.7628571428573
1327.64,270.76738095238113
1329.75,294.1028571428574
1331.87,311.4858095238097
1333.98,302.5858571428573
1336.08,295.45328571428587
1338.19,258.5190952380954
1340.3,232.78585714285728
1342.4,216.77961904761918
1344.5,199.8361904761906
1346.6,178.81495238095246
1348.7,165.2899714285715
1350.8,138.50142380952386
1352.9,115.6896095238096
1354.99,107.99948095238102
1357.09,115.52856190476199
1359.18,140.65923333333345
1361.27,163.48920952380962
1363.36,180.97228571428582
1365.45,155.6818571428572
1367.54,149.90528571428584
1369.62,175.88271428571443
1371.7,201.0436666666668
1373.79,228.10447619047633
1375.87,251.9708571428573
1377.95,266.6442857142859
1380.03,255.55400000000012
1382.1,230.3682380952382
1384.18,204.99241904761914
1386.25,165.23724285714292
1388.33,115.10345238095245
1390.4,114.11558571428576
1392.47,74.60723333333337
1394.54,64.67428095238103
1396.6,79.07893142857145
1398.67,57.202288571428596
1400.74,47.377786666666694
1402.8,39.89111619047621
1404.86,36.98018666666671
1406.92,52.644664761904785
1408.98,43.21746952380954
1411.04,42.36481428571433
1413.09,53.7525428571429
1415.15,68.71319047619053
1417.2,79.19813809523814
1419.25,91.01591428571433
1421.3,89.92716190476196
1423.35,104.31165523809528
1425.4,89.83448380952385
1427.45,68.49408666666669
1429.49,39.09829714285718
1431.54,38.83590571428576
1433.58,68.89521238095244
1435.62,84.46482190476193
1437.66,83.92353809523813
1439.7,58.12619523809526
1441.74,54.49900095238099
1443.77,37.51570095238098
1445.81,41.69732095238098
1447.84,50.23204190476196
1449.87,75.2597590476191
1451.9,78.68242952380959
1453.93,96.97336285714292
1455.96,95.22480000000004
1457.98,84.05277142857149
1460.01,101.12118095238104
1462.03,121.71221904761913
1464.05,145.39447619047633
1466.07,196.212242857143
1468.09,233.87660000000014
1470.11,260.86047619047633
1472.13,280.1607142857145
1474.14,297.1544761904764
1476.16,288.3152857142859
1478.17,287.6872380952383
1480.18,258.3146476190477
1482.19,209.90871904761912
1484.2,161.3235714285715
1486.21,136.4127238095239
1488.21,108.2210095238096
1490.22,89.1736428571429
1492.22,69.3150142857143
1494.22,41.5470523809524
1496.22,30.628842857142878
1498.22,24.70018714285716
1500.22,17.186872857142863
1502.22,21.943300476190494
1504.21,20.68110333333335
1506.21,29.588162380952404
1508.2,26.852518095238104
1510.19,26.519427619047633
1512.18,21.015216666666692
1514.17,38.86156666666669
1516.16,28.96123095238096
1518.14,26.121833333333342
1520.13,22.05593809523812
1522.11,26.000061904761935
1524.09,41.00033809523813
1526.07,51.150657142857156
1528.05,39.449809523809556
1530.03,41.08717619047622
1532.01,39.44274761904763
1533.98,32.27755714285717
1535.96,39.20986190476194
1537.93,50.23899523809528
1539.9,64.12626666666671
1541.87,73.72829523809527
1543.84,65.04469047619051
1545.81,55.598923809523846
1547.78,79.0096714285715
1549.74,85.75302380952387
1551.7,111.78140476190485
1553.67,132.38019047619056
1555.63,161.3115523809525
1557.59,153.71845714285723
1559.55,155.69602857142866
1561.5,135.19712857142866
1563.46,118.55555714285723
1565.41,117.00932857142865
1567.37,130.65453809523817
1569.32,125.3962095238096
1571.27,145.3776523809525
1573.22,162.21867619047626
1575.17,151.87233333333342
1577.11,142.67266666666674
1579.06,122.38247619047627
1581.0,106.9545238095239
1582.95,117.8660952380953
1584.89,120.7842857142858
1586.83,122.90090476190485
1588.77,131.02642857142865
1590.7,129.68576190476196
1592.64,122.30828571428579
1594.58,121.06197619047633
1596.51,125.68583333333358
1598.44,138.8475238095242
