Raman Shift,Processed Intensity
331.095,65.33087508880544
333.909,73.2631109663389
336.721,83.38466407535498
339.531,102.3622076043307
342.339,153.195761118679
345.145,194.00441136824384
347.949,227.3596521423833
350.751,238.97586698220584
353.55,226.23414522614758
356.348,216.4680028174489
359.144,267.7729126354443
361.937,297.720596731619
364.729,341.5495090418585
367.518,397.6886514320295
370.306,470.94805641023686
373.091,531.5187936486022
375.874,599.0205955526567
378.656,600.739959021229
381.435,544.1539614920284
384.212,459.6921722253478
386.988,362.7366588258319
389.761,231.52675566902462
392.532,108.06383232791904
395.301,17.158919142354534
398.068,-8.805381497278631
400.833,40.07749232411834
403.596,57.571401901478566
406.358,30.440370629447898
409.117,-20.1228389920052
411.874,-67.87767216149905
414.629,-72.96434448540003
417.382,-16.999073738921652
420.133,0.3068696711375196
422.882,20.242387787541247
425.629,85.28701616566786
428.374,181.63471830719936
431.117,265.09863486463473
433.858,333.158698777459
436.597,352.05686945592015
439.334,345.6066526791042
442.069,348.3835728739523
444.802,365.24897872761903
447.533,358.82622975219874
450.262,380.8340257066079
452.989,430.13402173275244
455.714,492.3498720631228
458.438,522.2481784902998
461.159,491.2622959793039
463.878,421.68280494661394
466.595,357.60988830108545
469.31,345.9533275325048
472.024,345.0515464191749
474.735,341.6716071164633
477.444,323.53301576915874
480.152,304.593432885717
482.857,321.048669426812
485.561,369.2374447986449
488.262,409.5937638938717
490.962,426.55167508491513
493.659,424.59288536013037
496.355,454.96104212663295
499.048,517.3283959655178
501.74,571.4624633870708
504.43,630.892689585994
507.118,672.815206434715
509.804,749.1880666671846
512.488,870.0645733007559
515.17,1003.6408947723621
517.85,1087.8751086461202
520.528,1139.1538643685499
523.204,1148.5304745952217
525.878,1189.9630065173983
528.551,1262.2666589029764
531.221,1349.3994724707459
533.89,1398.224230740847
536.556,1397.7941704090358
539.221,1365.3529774352228
541.883,1308.6204974177394
544.544,1251.3641602533003
547.203,1225.3037381303102
549.86,1210.5399130459796
552.515,1212.935225275813
555.168,1281.0664504145275
557.819,1365.5579287979226
560.469,1379.8910854009337
563.116,1411.404425926164
565.761,1447.3411519400365
568.405,1442.5158236279976
571.047,1426.1714987401992
573.687,1414.1702048705097
576.324,1359.4215069736156
578.96,1305.45393202499
581.594,1309.6054412998833
584.227,1280.023426461863
586.857,1244.2361342227723
589.485,1236.6288529074413
592.112,1253.1105752088843
594.737,1207.4949466577796
597.359,1232.1193093300526
599.98,1258.7494598401668
602.599,1285.0082168582258
605.216,1342.5182743413616
607.831,1409.3307690508295
610.445,1445.87765759291
613.056,1535.781236316972
615.666,1641.139851689707
618.274,1766.8136106693732
620.88,1909.9481863181295
623.484,2027.3081472238878
626.086,2146.94362025551
628.686,2270.5712390322774
631.284,2387.526520964801
633.881,2439.7162442959357
636.476,2432.856539427393
639.068,2362.47288500827
641.659,2204.995342118815
644.249,1976.1395027399012
646.836,1717.0017239367958
649.421,1379.0591239476826
652.005,1077.693387796005
654.587,841.9050490932786
657.166,680.7420575561878
659.745,540.871203666552
662.321,449.91144809318666
664.895,357.3386796851987
667.468,292.67618775099345
670.038,191.3518010039429
672.607,168.2216931747298
675.174,127.95133148082414
677.739,131.6345203340661
680.303,131.26958790537765
682.864,128.75938221328852
685.424,86.33983864103266
687.982,58.91330935840779
690.538,34.61998798172408
693.092,46.1712389956665
695.645,44.23055222687799
698.195,42.60402482187692
700.744,26.811800346556993
703.291,5.040464778913702
705.836,6.190684913422501
708.38,0.4010400322795249
710.921,-11.047193495588544
713.461,-2.2538283809435598
715.999,1.6335903196254549
718.535,16.705521680376478
721.069,42.0999746674097
723.602,33.28824454635196
726.133,20.551125480521023
728.662,30.788456462421436
731.189,21.662000578573043
733.714,6.357371893383515
736.238,-11.796894809835521
738.759,-55.51979809737668
741.279,-37.625466810784474
743.798,-25.308853429269675
746.314,-22.52667174832368
748.829,-10.425957624025614
751.342,-22.820251376016586
753.853,-27.42768724959342
756.362,7.700440931720095
758.869,-13.010792955988109
761.375,-12.040899042289311
763.879,-20.678732691493224
766.381,-37.35582716029512
768.882,-3.694011969714211
771.38,42.637444913450054
773.877,41.58850058759572
776.372,63.014048346343316
778.866,55.388200237139245
781.357,61.75666485794818
783.847,89.02245848728262
786.335,115.61256859518244
788.821,132.57318878276828
791.306,151.47447753131974
793.789,191.22007885611492
796.27,260.4756905793206
798.749,356.2404897457377
801.227,452.03760565759876
803.702,565.1998310046001
806.176,630.6315234701283
808.649,659.7133644803394
811.119,667.3499750960868
813.588,671.398484285819
816.055,622.4304305317978
818.521,582.1603301029886
820.984,518.1599596136725
823.446,460.33454334394264
825.906,389.77989294117106
828.365,343.44907093099573
830.821,306.200006609261
833.276,293.98596907681804
835.729,258.2365164648063
838.181,234.3336832551663
840.631,164.65959617258386
843.079,140.16789960025562
845.525,131.57422861469377
847.97,156.49906297292137
850.412,149.37248586155738
852.854,135.00560931257996
855.293,131.68580914289532
857.731,128.31957894152583
860.167,106.86109834250874
862.601,97.40746796446933
865.034,94.29394435018867
867.465,85.18917490616832
869.894,95.285670937443
872.321,65.25218544428685
874.747,54.13847187130864
877.171,46.66099523749631
879.594,58.58388136150279
882.014,67.62367561073779
884.433,98.44933974569858
886.851,104.30129638334574
889.266,126.32475917476359
891.68,158.80782488758155
894.092,153.51480358362824
896.503,138.25764403468384
898.912,148.27688294775817
901.319,147.9083084760855
903.724,170.5829570634496
906.128,218.1128245742259
908.53,243.2622917091403
910.931,223.27193037339907
913.329,218.28707194958997
915.726,191.50066128486333
918.122,176.5818249638371
920.516,169.48539196245247
922.908,169.73760477801625
925.298,156.2932591306792
927.687,184.63093890300115
930.074,203.1339653652342
932.459,194.75706068631644
934.843,166.121582873443
937.225,150.4679035687709
939.605,145.41730965566057
941.984,154.40057153158068
944.361,170.6579399524462
946.736,134.62009525790154
949.11,100.57481088231884
951.482,86.09552162769296
953.853,103.99370146035426
956.222,127.50933654577011
958.589,159.64425542620506
960.954,160.40022110313566
963.318,172.82654692919937
965.68,192.30580773823203
968.041,175.03002716578567
970.4,159.23876973154142
972.757,144.79056625505905
975.113,114.06767260486367
977.467,87.78559035229136
979.819,70.23115885390848
982.17,14.78636161964846
984.519,1.833085061894053
986.866,14.705496292180214
989.212,43.547184369787374
991.556,90.35877793863187
993.899,102.23604059399395
996.24,114.1317757730485
998.579,117.90344593111786
1000.92,93.26555362268095
1003.25,73.36107020142595
1005.59,57.951912139349815
1007.92,28.89513163157949
1010.25,38.7143452964217
1012.58,42.02830573256051
1014.91,49.45566646875136
1017.24,70.09117548494191
1019.56,70.0294877810204
1021.88,61.12707318365665
1024.2,52.859362248374964
1026.52,54.0826540663968
1028.84,71.8436431190994
1031.16,122.42704137057308
1033.48,135.78415274113445
1035.79,144.72335234274328
1038.1,137.4815180953717
1040.41,154.24784329575664
1042.72,182.44955394805675
1045.03,207.51381657069805
1047.33,197.7248840984564
1049.64,191.84314654644822
1051.94,162.3908483407854
1054.24,149.03304374446748
1056.54,173.57759990231898
1058.84,185.02281893355212
1061.13,181.081250500509
1063.43,190.84636152026656
1065.72,200.8877773048141
1068.01,208.0131893678963
1070.3,211.07788227947754
1072.59,202.17521290115815
1074.87,216.25566105015673
1077.16,238.50778492519544
1079.44,260.4534622466765
1081.72,277.75741711114324
1084.0,298.94150875050354
1086.28,332.33711552934915
1088.56,459.6565665613182
1090.84,592.8026685635582
1093.11,695.5353755683295
1095.38,727.900363396508
1097.65,670.3242707977547
1099.92,548.2337501144993
1102.19,460.103089374486
1104.46,401.1685010499889
1106.72,386.9043155789409
1108.98,394.8801272670107
1111.24,438.66555923730334
1113.5,488.68740933244
1115.76,541.6582245880654
1118.02,607.1477328492106
1120.28,662.5352267676071
1122.53,675.9619477990093
1124.78,650.950136867174
1127.03,581.7839897897547
1129.28,485.8906127041894
1131.53,415.69716796978264
1133.77,349.91659149835436
1136.02,326.4999767515624
1138.26,297.8270539763196
1140.5,327.7538122973533
1142.74,393.7077408573814
1144.98,466.35449852871625
1147.22,492.59791695819786
1149.45,510.4371464692747
1151.69,489.6333257736103
1153.92,458.9000612065006
1156.15,420.5700964384814
1158.38,406.3572202821747
1160.61,356.641984022943
1162.83,308.0907520828803
1165.06,265.4176098276557
1167.28,228.2891285162134
1169.5,179.99103501238005
1171.72,180.99964340123393
1173.94,158.26757231975262
1176.16,134.22374800175385
1178.37,112.773407322828
1180.58,81.77429132146585
1182.8,35.70331491066872
1185.01,10.227998494315216
1187.22,-23.2221004164644
1189.42,-46.97919368216094
1191.63,-33.232496560613754
1193.84,-12.55203568627826
1196.04,8.016108959990788
1198.24,9.61646312208245
1200.44,2.107958854822982
1202.64,15.206783548002932
1204.84,35.34351564632857
1207.03,39.71073677961044
1209.23,48.882074006387256
1211.42,31.812194438505912
1213.61,24.503466532367383
1215.8,68.76785947540861
1217.99,106.84598542972913
1220.18,109.64519186947382
1222.36,113.26336820392999
1224.55,83.89370478157684
1226.73,48.15802332270346
1228.91,43.20201211393328
1231.09,45.9333183456024
1233.27,53.354878544376334
1235.44,71.9934871011078
1237.62,128.9474124177384
1239.79,174.1244892446773
1241.96,236.623068161035
1244.13,321.4939174358119
1246.3,417.35926774623454
1248.47,554.0318568960909
1250.64,744.5625459626328
1252.8,932.6212687768175
1254.96,1186.2113147368752
1257.13,1462.3836116218815
1259.29,1695.2843417386628
1261.44,1892.7263675925149
1263.6,1971.0939908912515
1265.76,1941.6286639302089
1267.91,1840.5718438343856
1270.06,1730.1649896577392
1272.22,1562.0781309110403
1274.37,1420.5051027564111
1276.51,1240.4492573923246
1278.66,1091.9139373433802
1280.81,922.2358058929294
1282.95,831.3229394204686
1285.09,758.797681643797
1287.23,734.5680692897492
1289.37,710.1135434792061
1291.51,731.103994445444
1293.65,732.6378538715292
1295.78,765.4801872277178
1297.92,790.6341194421866
1300.05,796.1979748574704
1302.18,811.746226710716
1304.31,841.329494232983
1306.44,839.6173968913945
1308.57,871.374741964627
1310.69,874.6519978326837
1312.82,895.5948148857165
1314.94,933.3487845280865
1317.06,966.0594362776617
1319.18,959.681758674637
1321.3,973.3611487617836
1323.41,970.4334091837518
1325.53,961.281888143511
1327.64,943.9565241206983
1329.75,904.1738429709246
1331.87,875.9360026441102
1333.98,827.8165045695002
1336.08,778.3411431359118
1338.19,697.4641932672187
1340.3,593.6160265692706
1342.4,492.79834652442764
1344.5,421.0127570194311
1346.6,363.3559975399421
1348.7,307.5437497936498
1350.8,267.8153967143289
1352.9,208.8864005135158
1354.99,195.8530616845651
1357.09,177.38299229241693
1359.18,194.52463688240846
1361.27,155.46917434146894
1363.36,146.455276902165
1365.45,130.6262500991279
1367.54,167.50622034452908
1369.62,189.85727488450175
1371.7,229.91755413651867
1373.79,241.21077259820117
1375.87,251.49859689898653
1377.95,250.78064289940312
1380.03,244.9611394570286
1382.1,206.37273504957898
1384.18,182.205066302761
1386.25,157.74285032764942
1388.33,113.22302467710756
1390.4,88.26331587364098
1392.47,45.24318888963421
1394.54,-1.0771081343305013
1396.6,-0.2708325044916364
1398.67,-8.101888134254523
1400.74,-3.572443016686748
1402.8,12.219929463040899
1404.86,4.320346387319432
1406.92,35.3451869551584
1408.98,73.33923687607512
1411.04,83.01378561722618
1413.09,124.22282246435589
1415.15,164.24875639227093
1417.2,213.46908831626502
1419.25,314.49927381973316
1421.3,368.2879668341659
1423.35,392.25988236676517
1425.4,414.2681830375816
1427.45,403.6897227595034
1429.49,390.5679094658701
1431.54,341.5174725999864
1433.58,284.6768496522609
1435.62,254.04152507829485
1437.66,255.70213112173292
1439.7,224.034929589493
1441.74,213.60657934128608
1443.77,155.2217609219931
1445.81,145.01842024166012
1447.84,146.94396463644716
1449.87,195.13622083433643
1451.9,227.78058339703307
1453.93,275.7766869713846
1455.96,303.5479356836627
1457.98,358.0415087243125
1460.01,416.15693736127673
1462.03,499.0318248104554
1464.05,617.5180422966548
1466.07,789.8484013050031
1468.09,1023.541421070465
1470.11,1309.7346674959263
1472.13,1666.6133301655184
1474.14,2005.5530850722278
1476.16,2316.7867668693134
1478.17,2542.4996125502976
1480.18,2615.638790843249
1482.19,2506.7229316050534
1484.2,2273.6516552156977
1486.21,1970.7055781630286
1488.21,1647.9748900560746
1490.22,1350.8831687336192
1492.22,1065.949290610861
1494.22,817.0255315022614
1496.22,564.1070960158256
1498.22,399.1892659949981
1500.22,264.17216800818187
1502.22,179.52744560015867
1504.21,121.20302678160829
1506.21,99.57551056624129
1508.2,54.3073154126987
1510.19,62.060970523582455
1512.18,48.68959762068539
1514.17,17.617868910690504
1516.16,-10.824653996747202
1518.14,-25.07018117092025
1520.13,-14.550784013417797
1522.11,1.7301806463190132
1524.09,4.959977132044969
1526.07,8.040300759481397
1528.05,-10.412721848721958
1530.03,-26.40186578136013
1532.01,-6.02499799990278
1533.98,3.0011123857825623
1535.96,29.19793341212562
1537.93,63.2775470404797
1539.9,55.71407355478664
1541.87,61.07700072115085
1543.84,62.602608185501595
1545.81,43.95586806173833
1547.78,50.706631234150336
1549.74,76.80581365984699
1551.7,95.77586838546517
1553.67,139.61554327816634
1555.63,161.89511494710814
1557.59,166.80400361729744
1559.55,205.24600705106354
1561.5,243.41072494572313
1563.46,268.1068880931409
1565.41,269.2861637297733
1567.37,270.0907704105157
1569.32,237.85347383493354
1571.27,211.09758267349207
1573.22,177.39408725092585
1575.17,145.12356013437216
1577.11,113.19043767388007
1579.06,95.92777773340231
1581.0,91.00201742177796
1582.95,104.31773082372024
1584.89,104.54143434985099
1586.83,86.48253494387768
1588.77,45.75999257548165
1590.7,15.99279225701548
1592.64,9.228511298299964
1594.58,24.705219894749916
1596.51,39.89909600121587
1598.44,41.81013544391658
