Raman Shift,Processed Intensity
331.095,92.56842887379617
333.909,103.79076318956368
336.721,106.54046798645595
339.531,101.15088585359081
342.339,82.09823503450616
345.145,76.19209487340504
347.949,37.86112935663732
350.751,32.438810654178724
353.55,-9.931809719837474
356.348,1.1304797772263555
359.144,21.721250448465526
361.937,23.174251127267326
364.729,52.53760701362489
367.518,59.00239946284273
370.306,81.52172196470974
373.091,182.28687897980763
375.874,276.0607276329674
378.656,298.70149559719493
381.435,293.16278945379645
384.212,230.63646019536327
386.988,144.8859449192346
389.761,87.29389423524071
392.532,32.576466340117804
395.301,-11.835712241407236
398.068,-28.035633534584576
400.833,-13.687518802122668
403.596,-9.264906625058302
406.358,-3.7173152907957956
409.117,-23.99404943182708
411.874,-35.3775314150289
414.629,-27.14996644076018
417.382,-23.68858153196925
420.133,-32.75134437027873
422.882,-34.667446830367226
425.629,-29.527790947981885
428.374,4.576902678858914
431.117,61.60369718413267
433.858,111.60503867761554
436.597,101.5858797615906
439.334,44.97985066659794
442.069,-4.588855327092915
444.802,-4.87692980133852
447.533,30.35898384039865
450.262,93.45750865873788
452.989,148.18584720305398
455.714,154.59690710324867
458.438,114.26737904248557
461.159,97.25010044419423
463.878,69.93118106384145
466.595,44.839509533077944
469.31,62.932450380068076
472.024,87.31011247839615
474.735,74.92962198052237
477.444,56.03368096551276
480.152,50.67436418202169
482.857,33.52263007697593
485.561,54.77306991948899
488.262,87.6677096170215
490.962,91.01981492602545
493.659,66.3091307131017
496.355,72.15807259710482
499.048,63.66506144838877
501.74,76.78547693567816
504.43,81.56975393008315
507.118,71.87766938530194
509.804,78.47358159878513
512.488,104.26452661575786
515.17,106.3478384427608
517.85,114.34448354690858
520.528,147.5895382122876
523.204,159.17980875350122
525.878,157.11668982445372
528.551,145.92521320332526
531.221,118.03500133944453
533.89,116.11360185254352
536.556,154.1141077463035
539.221,160.9894442885643
541.883,175.88284636772914
544.544,199.31833584918695
547.203,244.10548464600652
549.86,274.72036826582917
552.515,291.97223364346837
555.168,274.0511193544685
557.819,282.3849996381764
560.469,292.30645223034844
563.116,279.38599286241924
565.761,278.8130288083903
568.405,282.5863362412397
571.047,255.41882330361705
573.687,235.49943603567908
576.324,207.636016683884
578.96,145.6362572478788
581.594,111.54579588452725
584.227,108.6958371214705
586.857,81.65553397543636
589.485,57.08913197531365
592.112,64.13692270903812
594.737,59.74857832285397
597.359,57.77839078248644
599.98,62.366225420018054
602.599,27.65180781410345
605.216,31.346153527319075
607.831,44.39823593875781
610.445,34.423561629888354
613.056,39.18036797204013
615.666,38.8553445234088
618.274,12.158881685786582
620.88,19.89650983747788
623.484,31.016528942409877
626.086,-3.342360609015941
628.686,-12.660568012134718
631.284,-9.513788726906114
633.881,-11.239657688103307
636.476,26.490834282470132
639.068,59.482875472658634
641.659,23.303557604233447
644.249,14.139028728598078
646.836,-18.253115782264558
649.421,-20.54382319723254
652.005,21.59599945894388
654.587,58.78120928203725
657.166,61.76957783486705
659.745,61.890370065249954
662.321,28.472923223947873
664.895,4.037130544525098
667.468,-11.849408410139858
670.038,13.809572122469035
672.607,-0.7514641913166997
675.174,-19.440801468284462
677.739,2.4524398475891758
680.303,9.78211912740744
682.864,1.687937342046098
685.424,-2.261700907215527
687.982,-36.06968250091177
690.538,-44.167323601487624
693.092,-3.128650537847534
695.645,16.710553704943322
698.195,33.15750796669727
700.744,31.11481012629156
703.291,2.151861934902172
705.836,14.362008134948155
708.38,34.600627959992835
710.921,61.723226850228
713.461,88.49019483462143
715.999,87.61442205592084
718.535,56.04700953375459
721.069,53.45345611820994
723.602,52.07079782436267
726.133,85.70760430966084
728.662,84.17254677987876
731.189,62.60772779983381
733.714,49.53629681838538
736.238,20.05292283629842
738.759,0.8714099312496728
741.279,-8.199115788595918
743.798,-1.8256382786262293
746.314,-1.0560168974948283
748.829,35.87148551865312
751.342,42.67105535023666
753.853,45.675990305616324
756.362,29.886313913426875
758.869,23.77829477681189
761.375,15.828251541956888
763.879,36.131595961844596
766.381,41.069495007647674
768.882,27.02315361127239
771.38,30.945240265053144
773.877,16.407503097637345
776.372,37.12457642605568
778.866,66.81112064113177
781.357,46.419916118019046
783.847,38.52281426959644
786.335,52.83454574271673
788.821,57.260338138257794
791.306,85.51496230260273
793.789,89.17035004769104
796.27,59.65559282344475
798.749,44.39979753305715
801.227,53.92732330065701
803.702,64.57206585802032
806.176,64.47745621700506
808.649,60.54884029435971
811.119,64.21538234606487
813.588,48.85863506833448
816.055,38.62206207956933
818.521,54.26817944993127
820.984,47.46426865948433
823.446,57.7823752706272
825.906,63.31835521956509
828.365,66.26330206017064
830.821,57.57021230307578
833.276,59.28731742142645
835.729,39.700939666162185
838.181,25.668824071769905
840.631,20.429660938228608
843.079,51.603084503432456
845.525,54.85633828228151
847.97,53.71379959608771
850.412,70.9855517210317
852.854,44.1483369890027
855.293,23.488414650332516
857.731,43.33965683178667
860.167,24.274025446919723
862.601,10.625382439775194
865.034,14.632347647627512
867.465,-6.799795717233792
869.894,3.7580435776060312
872.321,17.0682918488194
874.747,34.702903537846396
877.171,15.090983201710287
879.594,-6.290735353312357
882.014,-14.727409938022902
884.433,12.162484391465796
886.851,26.23668144947601
889.266,68.11483901443057
891.68,80.79758847238281
894.092,83.80939398434884
896.503,95.3890307012557
898.912,83.10863440746766
901.319,63.30227497383021
903.724,86.49452981071522
906.128,105.06715255915265
908.53,103.83050368673184
910.931,130.2616477501581
913.329,123.21864113400852
915.726,101.65481978948469
918.122,123.14261078268964
920.516,103.25448670004698
922.908,50.51534862514927
925.298,49.83109959179774
927.687,61.58388470370642
930.074,84.44161696849937
932.459,119.0722650364603
934.843,116.2390933202496
937.225,101.22923544794048
939.605,86.9013153351118
941.984,61.92354444741363
944.361,47.67848572979619
946.736,20.453531821458228
949.11,-2.0352833958775136
951.482,2.261479131273518
953.853,2.631427557385223
956.222,14.314626672717395
958.589,32.78931400953411
960.954,29.676663567367086
963.318,36.69316858589946
965.68,34.60302431784521
968.041,21.980034611354768
970.4,13.969518492418501
972.757,6.574026271080584
975.113,-16.0133253047336
977.467,-24.31361313348748
979.819,-32.65734337723302
982.17,-47.565402989461745
984.519,-14.939537533758312
986.866,-22.87187997357364
989.212,-6.5497224877588
991.556,14.601614956769936
993.899,29.728294646038194
996.24,31.54794668690215
998.579,33.778227465048985
1000.92,-7.863193325577413
1003.25,-5.8015027962051136
1005.59,1.8714326423846614
1007.92,0.49229160356549073
1010.25,-1.3641928279248532
1012.58,-17.218580601753274
1014.91,-8.162929300583755
1017.24,5.329667789018231
1019.56,10.16697040378449
1021.88,21.447098241598496
1024.2,22.17280034668397
1026.52,32.77524933744462
1028.84,43.44736161068113
1031.16,54.477119787544325
1033.48,56.53327940789495
1035.79,85.71298473229808
1038.1,91.351289305926
1040.41,88.54496223674778
1042.72,89.676294473712
1045.03,93.31785746589071
1047.33,108.23249991685498
1049.64,119.13524930095696
1051.94,109.74092766532249
1054.24,95.95462457470262
1056.54,103.34788434204188
1058.84,75.39679802094042
1061.13,82.52961920764847
1063.43,61.50771317638828
1065.72,52.80650601467892
1068.01,77.23452899675522
1070.3,104.1238977019284
1072.59,109.09222503630372
1074.87,140.75691520688497
1077.16,120.02088626709997
1079.44,109.64400694805067
1081.72,126.62405729928264
1084.0,145.5300702819377
1086.28,212.64519717142753
1088.56,276.30004915058225
1090.84,334.39651509327996
1093.11,391.6934841099719
1095.38,417.1401871408352
1097.65,397.780967120347
1099.92,360.7552872370957
1102.19,290.4882153840688
1104.46,246.49995622798974
1106.72,221.40585946913052
1108.98,219.868809053507
1111.24,214.26589809935012
1113.5,252.64081810932134
1115.76,264.37053389700304
1118.02,297.3081489895799
1120.28,312.6400567448077
1122.53,285.60023432512116
1124.78,247.2797747669831
1127.03,265.43641905023037
1129.28,211.54218340551915
1131.53,201.49765328843478
1133.77,172.96532497265594
1136.02,99.75056619073644
1138.26,67.89686248916928
1140.5,91.16201596440692
1142.74,113.54196304650463
1144.98,167.12792561609058
1147.22,178.4397525975296
1149.45,154.85449964732584
1151.69,140.8445326520457
1153.92,137.02515503577365
1156.15,148.24985411518264
1158.38,141.46745221651827
1160.61,111.53163874495158
1162.83,70.53431177775087
1165.06,40.567491086020254
1167.28,17.104278775489547
1169.5,-2.953513406033153
1171.72,1.153215619745879
1173.94,9.136104340141856
1176.16,9.754576428990504
1178.37,1.2920410222500323
1180.58,-6.301239416759927
1182.8,-16.693851676275926
1185.01,-26.31607710116532
1187.22,-36.50273753945885
1189.42,-31.636042998345374
1191.63,-34.050346771686236
1193.84,-12.841666252957566
1196.04,-15.820064156988337
1198.24,-42.2715570708458
1200.44,-17.624787219521522
1202.64,0.6918279611711569
1204.84,13.488179956297017
1207.03,41.907694357305445
1209.23,5.808270403266988
1211.42,-11.380587647162429
1213.61,23.008884665748155
1215.8,49.59698681836471
1217.99,60.242255528861506
1220.18,53.61288356926502
1222.36,17.75813857749654
1224.55,20.4893056789399
1226.73,48.855868203251475
1228.91,86.3359759023956
1231.09,85.69358189552736
1233.27,60.83557961387396
1235.44,54.33560641228587
1237.62,76.24356146649416
1239.79,85.70464747989695
1241.96,101.38793619986836
1244.13,83.914933934067
1246.3,55.192908971503584
1248.47,37.84345709884337
1250.64,56.297733783379954
1252.8,60.98692445123925
1254.96,69.19938524901067
1257.13,84.89016475776657
1259.29,95.30004951659316
1261.44,104.66984764137305
1263.6,118.66895815784596
1265.76,117.20489271562224
1267.91,115.66136873076357
1270.06,120.46973586169725
1272.22,100.77564058036364
1274.37,105.58188121955868
1276.51,109.03412016312677
1278.66,107.03992936949271
1280.81,133.17355018090325
1282.95,154.77112932314913
1285.09,157.88309776242136
1287.23,174.7027400383672
1289.37,171.7566683590394
1291.51,151.0476776482269
1293.65,125.53093392612436
1295.78,122.87587697571234
1297.92,120.41859919962076
1300.05,125.54279590555848
1302.18,141.87023940127165
1304.31,135.11791975616916
1306.44,128.81232842009194
1308.57,135.0989799373208
1310.69,124.88526699392446
1312.82,118.45950594129772
1314.94,142.96712517684068
1317.06,122.88685352463995
1319.18,145.45928956852867
1321.3,162.258328127999
1323.41,172.0483010198393
1325.53,177.02207020071546
1327.64,205.22959710023906
1329.75,212.33984528736505
1331.87,233.40268313678916
1333.98,228.13459601916247
1336.08,226.4424937293927
1338.19,221.1379941054263
1340.3,214.22313521845444
1342.4,187.0332304202691
1344.5,167.18924720013683
1346.6,134.59780508929043
1348.7,129.11784023209316
1350.8,128.27488900481808
1352.9,122.16584782490668
1354.99,129.6018281983229
1357.09,116.96529748119701
1359.18,127.30531487956432
1361.27,150.14705316339268
1363.36,181.34893942822328
1365.45,196.67408157109935
1367.54,226.3140757188812
1369.62,212.41281365655118
1371.7,225.78076644599855
1373.79,229.4664109019468
1375.87,236.08956082978648
1377.95,227.03184112054942
1380.03,246.81763803636045
1382.1,236.59028759112903
1384.18,199.54064488361723
1386.25,173.38327247813436
1388.33,153.070724023323
1390.4,139.0792564423832
1392.47,133.9326373613835
1394.54,114.15452396614774
1396.6,85.03036566866126
1398.67,93.17883058300549
1400.74,85.59942247748677
1402.8,100.57724058390318
1404.86,68.49250131157555
1406.92,46.10625043756636
1408.98,34.70321815404259
1411.04,17.85372173469159
1413.09,-1.8720461831794637
1415.15,6.334083736995581
1417.2,-14.43411549150187
1419.25,-29.08297372875154
1421.3,-14.471296272025938
1423.35,-19.02940459126171
1425.4,5.098010355854058
1427.45,31.5280809227761
1429.49,43.115953590757044
1431.54,75.6214564985928
1433.58,80.75672252970298
1435.62,67.23381239920604
1437.66,88.19329012195249
1439.7,80.2518460995966
1441.74,88.78801544577232
1443.77,100.7517058350777
1445.81,67.09277297109975
1447.84,48.85626272111449
1449.87,53.563367536498845
1451.9,49.0209543017113
1453.93,106.08347313565628
1455.96,127.60534238351761
1457.98,130.202857418122
1460.01,132.39705182224634
1462.03,105.70893952331062
1464.05,86.8499950233122
1466.07,112.81739553351417
1468.09,150.75116787104503
1470.11,170.21990678406428
1472.13,195.45887422931196
1474.14,200.56047960203955
1476.16,167.1409504421274
1478.17,152.62605075925467
1480.18,150.15584697711256
1482.19,115.63233102047525
1484.2,126.3384719737021
1486.21,136.03345821542644
1488.21,115.38127288657347
1490.22,80.90307888219559
1492.22,44.834365748064556
1494.22,8.41066800583576
1496.22,3.438997763935049
1498.22,9.440705899861314
1500.22,10.032438480591054
1502.22,-12.454811234202452
1504.21,-12.213793646067188
1506.21,-10.865760338357177
1508.2,-8.50807999965923
1510.19,4.6667158461254985
1512.18,12.132838392807344
1514.17,6.0312414847328455
1516.16,0.5981934451281177
1518.14,-1.4061510955521044
1520.13,-1.3644174665221271
1522.11,7.055132360239213
1524.09,17.279552469505916
1526.07,14.06930842247084
1528.05,-7.338865418827481
1530.03,-17.565299043270443
1532.01,-8.182624704327282
1533.98,6.141365379002536
1535.96,23.73895477775568
1537.93,18.990118735726355
1539.9,3.8463305283726186
1541.87,1.497224964587076
1543.84,35.3705952217972
1545.81,64.6561995900845
1547.78,79.40099693791626
1549.74,75.79485836835352
1551.7,67.12294554192772
1553.67,62.67046995189958
1555.63,72.532214104285
1557.59,72.99348126930636
1559.55,63.57771189950881
1561.5,64.04648100026111
1563.46,59.78044788121292
1565.41,57.20792495536989
1567.37,34.32868463341197
1569.32,16.0949090751526
1571.27,10.506425655285966
1573.22,27.515466238659656
1575.17,46.31237883649965
1577.11,63.46848317093895
1579.06,53.69797385859101
1581.0,38.66744264173758
1582.95,32.329210143329874
1584.89,36.92132428865034
1586.83,39.872320631742014
1588.77,42.515506491355836
1590.7,42.70800699166216
1592.64,24.97362062677371
1594.58,18.312341491930283
1596.51,11.843214848016032
1598.44,3.8995736384515567
