Raman Shift,Processed Intensity
331.095,67.00882290483332
333.909,86.2582146623613
336.721,78.66799553375677
339.531,58.7381722138598
342.339,44.27828859671399
345.145,60.43124199420663
347.949,42.38757554518088
350.751,10.052151576926008
353.55,11.948920204769365
356.348,-23.255264449282095
359.144,-27.512542323619527
361.937,-37.2988026269627
364.729,-8.185108098862202
367.518,11.20992549229868
370.306,95.5058411229279
373.091,179.98890860650727
375.874,248.80259744778186
378.656,301.804716363617
381.435,310.99598137528164
384.212,243.71048866263482
386.988,186.42523503735856
389.761,119.99820984476719
392.532,37.3826773417959
395.301,9.055744789288383
398.068,13.3040734014171
400.833,18.747684533203028
403.596,32.8637667912858
406.358,37.51048449534028
409.117,46.022216601628315
411.874,31.971462293201967
414.629,33.073603712966815
417.382,8.663097268170986
420.133,-32.735096969855476
422.882,-47.357892078327495
425.629,24.700692676641665
428.374,60.58477121460055
431.117,122.86706246072617
433.858,200.69174567680193
436.597,213.0125538874263
439.334,202.35467683003526
442.069,190.0052353334886
444.802,146.0132795061868
447.533,131.42788216228564
450.262,160.63147034314352
452.989,167.76839493400757
455.714,176.26873837593848
458.438,170.56259856820998
461.159,158.55627753261842
463.878,131.44180341111905
466.595,115.88740484441496
469.31,93.65655677911354
472.024,108.13178817964535
474.735,142.12420402589714
477.444,137.20681683465045
480.152,120.23835437150274
482.857,109.64897212468486
485.561,102.10691815983228
488.262,153.9471027366585
490.962,201.3139536399135
493.659,190.54236674843423
496.355,184.5862756518195
499.048,177.590078409964
501.74,168.1743500268799
504.43,177.0548882578496
507.118,182.18556894038784
509.804,161.56786799187194
512.488,189.48895483575143
515.17,244.4740715420321
517.85,298.14367387251605
520.528,322.83247708796125
523.204,306.20850175522855
525.878,284.5587862211032
528.551,298.02748003850047
531.221,302.13965167838296
533.89,292.42033433691677
536.556,303.82309555215716
539.221,289.6347972969197
541.883,332.71368940499224
544.544,367.9179791878123
547.203,367.3915439082889
549.86,352.61154801651765
552.515,354.0551080045543
555.168,327.2469096421314
557.819,349.5687299742758
560.469,338.83086408084637
563.116,346.414980407485
565.761,362.17888085848244
568.405,357.26602279439385
571.047,300.5340886487138
573.687,269.22165078263697
576.324,250.47197919696418
578.96,234.85684924400584
581.594,225.85273029186965
584.227,220.17411724588783
586.857,153.82114778433197
589.485,121.88912435603515
592.112,95.04470284467789
594.737,75.52589075688593
597.359,77.42775969604463
599.98,84.27387212182339
602.599,73.30199382398314
605.216,81.55933020571365
607.831,73.04538161458368
610.445,73.23575105444615
613.056,97.03452332591723
615.666,77.44092988114289
618.274,77.54934701188904
620.88,60.739770228112775
623.484,35.4397172079548
626.086,0.9813688429699141
628.686,18.887281711929973
631.284,20.203723221498876
633.881,56.64353066351987
636.476,92.15754368207672
639.068,105.88699122827256
641.659,103.73492613405324
644.249,124.12813587650908
646.836,139.44572000884546
649.421,119.01909616278317
652.005,138.94152986047948
654.587,107.44909289788347
657.166,70.82543125189932
659.745,63.54462822564665
662.321,50.89025806991367
664.895,29.86015389031445
667.468,55.64260412587919
670.038,58.85445378954728
672.607,51.493491422947045
675.174,43.747978908313144
677.739,22.901419375648857
680.303,-7.9531510805936705
682.864,-11.198871684831829
685.424,-2.266479549383803
687.982,-15.586685458557895
690.538,-3.018741308963399
693.092,-19.469483974425657
695.645,5.487619177862598
698.195,30.08866255514431
700.744,52.99834967738525
703.291,65.11951726067491
705.836,81.87884977681642
708.38,56.94116544148574
710.921,75.44751172620045
713.461,68.44373706077386
715.999,79.88049110718703
718.535,75.9941774144213
721.069,72.92600131137851
723.602,67.38863684743046
726.133,73.47575087581754
728.662,78.75724142276385
731.189,80.08876177087586
733.714,80.08791120920932
736.238,69.75328292619542
738.759,47.36922618828385
741.279,53.74394185191204
743.798,56.20948263738683
746.314,46.52651530752564
748.829,53.78908284630097
751.342,42.94841425652976
753.853,21.19387721469502
756.362,26.238692630535297
758.869,49.796125397098876
761.375,61.24615133128191
763.879,96.30212411435832
766.381,103.29648985156973
768.882,66.79983496504337
771.38,46.33517218195129
773.877,41.33032176075767
776.372,30.451245098426625
778.866,71.50680690904846
781.357,91.16306121199295
783.847,58.94325160577819
786.335,62.27543058955598
788.821,65.92103126554639
791.306,63.30820094623505
793.789,77.62703952348124
796.27,80.25817117094994
798.749,84.15369699893085
801.227,100.98005247105698
803.702,112.78467434484264
806.176,127.47219142174322
808.649,107.94728196388337
811.119,77.68610253935822
813.588,90.49819305800793
816.055,92.52647704529068
818.521,95.00916667805791
820.984,114.23214401081827
823.446,105.19562791627709
825.906,78.75703150206505
828.365,65.82143857509504
830.821,48.19874677257417
833.276,44.60366783587847
835.729,53.036680265376845
838.181,64.02212483239532
840.631,50.27487151975447
843.079,50.938415033740284
845.525,53.25154174464069
847.97,59.97690138919006
850.412,60.02005496348556
852.854,46.048522615906904
855.293,19.634641063843674
857.731,-16.268245656242243
860.167,-11.182928772085006
862.601,3.89166549825768
865.034,19.337617376644175
867.465,26.775153798246492
869.894,26.586455742004773
872.321,4.34422746584255
874.747,25.002170503789785
877.171,29.180695758341244
879.594,39.833588408582955
882.014,45.00991091355468
884.433,34.854001253708475
886.851,57.65309021998769
889.266,103.98015679814284
891.68,111.12249783876291
894.092,128.89125010825865
896.503,127.28805519698994
898.912,128.9336291892987
901.319,121.21061804782971
903.724,115.16835775975142
906.128,103.47525353060132
908.53,97.22830183527776
910.931,98.00070770712273
913.329,128.22283536033888
915.726,116.94411119335973
918.122,99.49968869697727
920.516,117.22473241009538
922.908,105.26393997071659
925.298,96.28582607170233
927.687,108.53033974986442
930.074,98.28505310363175
932.459,94.98039762976532
934.843,122.99918627435295
937.225,114.77184976951389
939.605,96.77643487487126
941.984,71.72907880949242
944.361,46.06019796955252
946.736,8.962105217418411
949.11,-2.658610924501545
951.482,20.39034053914247
953.853,35.77742750859056
956.222,61.45681656744546
958.589,66.71598999924413
960.954,59.461458042121876
963.318,45.02828066728489
965.68,48.51339888129337
968.041,30.68039459977149
970.4,13.911869568736847
972.757,-28.219128095024644
975.113,-13.901486887388273
977.467,-5.419365878793087
979.819,-6.0093413045231046
982.17,9.568159641334887
984.519,2.219329201654773
986.866,-7.721122613380203
989.212,26.605264622590767
991.556,55.15212510972492
993.899,63.444451256601496
996.24,92.62620935504629
998.579,85.17462192161724
1000.92,61.519211943855
1003.25,47.23227569795927
1005.59,47.647926995037096
1007.92,46.48114142735403
1010.25,59.970610138393795
1012.58,48.25968883101473
1014.91,31.25353725179866
1017.24,29.04768724681935
1019.56,58.40422986503404
1021.88,93.37086281466327
1024.2,101.51898854456658
1026.52,102.89609803990197
1028.84,90.74005937969264
1031.16,81.6695967705839
1033.48,92.11286481869979
1035.79,119.11697518244591
1038.1,160.25276132055342
1040.41,184.9957337163121
1042.72,183.34513033989788
1045.03,177.44296711070865
1047.33,137.24070740731145
1049.64,113.49926491072665
1051.94,138.7413874000904
1054.24,130.01356435784305
1056.54,138.88602981301233
1058.84,152.26228899402304
1061.13,161.4267402196051
1063.43,172.85420155159977
1065.72,192.54324697157836
1068.01,190.49239970031908
1070.3,200.7953731363291
1072.59,200.97440703246025
1074.87,216.8374131963385
1077.16,218.85893071459782
1079.44,212.6087002247416
1081.72,206.9897619965202
1084.0,220.66703020379214
1086.28,245.25777195828823
1088.56,297.9506577719487
1090.84,379.9343358287804
1093.11,446.39743482814697
1095.38,477.1476144471094
1097.65,467.08775865990333
1099.92,402.358835724084
1102.19,335.86371054763003
1104.46,307.8385761036543
1106.72,311.28152770226643
1108.98,297.4763753576701
1111.24,296.37359901240484
1113.5,291.876065666346
1115.76,330.98188936284805
1118.02,368.5463387939308
1120.28,414.42469728642527
1122.53,395.47226564525795
1124.78,363.83007928246093
1127.03,326.8772920128374
1129.28,304.8978455639249
1131.53,261.79475813357067
1133.77,227.32822247132071
1136.02,171.54418015027727
1138.26,139.86956250563162
1140.5,136.01705538271108
1142.74,129.270816265986
1144.98,163.15314378901894
1147.22,203.04352819680525
1149.45,204.22627323667507
1151.69,209.4619275730131
1153.92,209.84443048768844
1156.15,159.22968615191598
1158.38,121.426042660019
1160.61,91.6704853489141
1162.83,56.62863964140138
1165.06,49.44239293708165
1167.28,72.20608793184192
1169.5,63.15700165162934
1171.72,56.48487210527196
1173.94,63.90332969920246
1176.16,51.649900080760744
1178.37,63.152673648158725
1180.58,73.31602267949393
1182.8,49.758699414148396
1185.01,-3.2813991991458806
1187.22,-10.09008580186287
1189.42,-22.42926073476042
1191.63,-20.155957162265167
1193.84,-8.88900632908667
1196.04,-2.723324331326012
1198.24,-7.372772518673855
1200.44,29.25840972702531
1202.64,61.21845764119348
1204.84,58.55569484949547
1207.03,39.31852809320526
1209.23,14.507822906944511
1211.42,6.505469772621382
1213.61,-10.925621155211047
1215.8,5.977523757211429
1217.99,14.025557523804537
1220.18,5.410141567784422
1222.36,-4.391296066022505
1224.55,-7.044134420473938
1226.73,0.21486721859332647
1228.91,13.101376660830965
1231.09,33.75967636255268
1233.27,43.23885100015127
1235.44,56.92135731750636
1237.62,81.57064159244032
1239.79,95.33113805555104
1241.96,69.34731492809829
1244.13,56.52557760274658
1246.3,37.43902896716463
1248.47,57.61318210857303
1250.64,75.09738730401136
1252.8,65.79816377250336
1254.96,53.57443618913021
1257.13,31.380390246720253
1259.29,46.26547107468127
1261.44,101.27914356259612
1263.6,110.75660506476856
1265.76,107.89021239048066
1267.91,91.11043260377528
1270.06,54.704889061333915
1272.22,47.4850264979716
1274.37,77.35753801688588
1276.51,89.13388731800524
1278.66,88.76840235491
1280.81,74.54874994413626
1282.95,67.76260085066542
1285.09,74.31667582580212
1287.23,98.78436307362358
1289.37,120.92952619361472
1291.51,112.27793117092347
1293.65,74.45057812852156
1295.78,48.44941403173971
1297.92,73.32399777376168
1300.05,96.60007002301586
1302.18,117.85098021342947
1304.31,115.55482782039303
1306.44,99.04684173196665
1308.57,95.90033104866029
1310.69,112.45049302606958
1312.82,132.22298292227288
1314.94,145.64819813094277
1317.06,141.775562314456
1319.18,161.41638096557995
1321.3,178.6676493501036
1323.41,190.15014616376357
1325.53,215.9608129034475
1327.64,227.6251332383988
1329.75,230.95427428617813
1331.87,250.4736564600621
1333.98,257.4229518878649
1336.08,252.42274949743341
1338.19,248.95074391166418
1340.3,212.24649577208766
1342.4,183.5019063481659
1344.5,183.28978738468936
1346.6,180.08766904440745
1348.7,160.6111316601939
1350.8,172.09951843958515
1352.9,159.88736245503333
1354.99,161.97581363415657
1357.09,167.69930384523218
1359.18,168.91602150649874
1361.27,149.34124333831232
1363.36,151.49971373435665
1365.45,145.96373841855484
1367.54,185.54365905437453
1369.62,197.43070880650498
1371.7,204.24462980730846
1373.79,220.7003382423054
1375.87,238.3222084832944
1377.95,233.72978579289543
1380.03,267.54254664814584
1382.1,266.80846858790164
1384.18,231.33736196499967
1386.25,216.6056302698496
1388.33,203.56579235878917
1390.4,169.12267134911212
1392.47,149.84767875218404
1394.54,132.9311938446583
1396.6,105.56351446825715
1398.67,87.55390306765048
1400.74,79.33058510928026
1402.8,66.55979511923556
1404.86,77.14577510207528
1406.92,84.04029676918185
1408.98,66.57599329091886
1411.04,51.94254819164894
1413.09,18.13907472094138
1415.15,1.974114272404222
1417.2,-2.458174721299656
1419.25,15.3648406940722
1421.3,16.584744740062888
1423.35,53.86683509517934
1425.4,52.97155337815957
1427.45,47.61163166537381
1429.49,50.88066757964975
1431.54,75.63408033148517
1433.58,85.10816199835608
1435.62,97.4438907087856
1437.66,92.68693430260623
1439.7,79.40670161026605
1441.74,87.83920325594977
1443.77,89.88705531784035
1445.81,104.30995917886094
1447.84,94.62946709170592
1449.87,93.93850964863168
1451.9,83.66330420363192
1453.93,66.8014537707952
1455.96,65.3029030655307
1457.98,112.06994216484009
1460.01,135.14768635806308
1462.03,160.53360361667114
1464.05,166.17751825453138
1466.07,138.07685268340606
1468.09,136.7052025017913
1470.11,149.10757825041742
1472.13,141.94802812013404
1474.14,148.70011780265486
1476.16,168.07550557939135
1478.17,175.26204121981277
1480.18,178.59043630837277
1482.19,181.34379171429669
1484.2,177.80522029946087
1486.21,140.59118391198695
1488.21,125.31816371317336
1490.22,114.12647336156942
1492.22,93.34692933990868
1494.22,81.40561652013412
1496.22,82.01436801413593
1498.22,42.7898164530618
1500.22,30.967683361859372
1502.22,39.593259010015345
1504.21,28.18807273847733
1506.21,8.845134715154472
1508.2,36.9432253094667
1510.19,29.384993990700423
1512.18,15.549344828234098
1514.17,2.7676315155704287
1516.16,-31.962052367537808
1518.14,-34.73677356914959
1520.13,3.489340901104242
1522.11,25.762247987429873
1524.09,28.842271870516697
1526.07,19.442197126207475
1528.05,22.08440950321483
1530.03,16.481846224643732
1532.01,26.96656533713508
1533.98,35.77545791715261
1535.96,46.52643646773913
1537.93,35.885099505756216
1539.9,18.421872339598394
1541.87,0.5643859421468278
1543.84,28.311760585627326
1545.81,52.044127571708486
1547.78,94.23691292342869
1549.74,106.50845441046158
1551.7,103.52476143151557
1553.67,109.33284632530967
1555.63,111.78929377678332
1557.59,108.03644927092228
1559.55,103.7881313561088
1561.5,95.09153438366525
1563.46,82.42246458072759
1565.41,85.30438564693281
1567.37,100.59413101777068
1569.32,113.62475898508183
1571.27,78.20555067469763
1573.22,46.71724611931927
1575.17,12.635851759967863
1577.11,7.961209852194088
1579.06,49.55032977705332
1581.0,64.68881459017507
1582.95,58.9956209041618
1584.89,63.18496162813403
1586.83,73.06630394536865
1588.77,55.73484348141392
1590.7,59.28578799601337
1592.64,55.90959345597844
1594.58,70.3443429652059
1596.51,65.56622093278588
1598.44,20.241892003017938
