Raman Shift,Processed Intensity
331.095,33.61338758632019
333.909,69.81511255057012
336.721,41.552060134864405
339.531,-14.175766300294526
342.339,-36.368356673411654
345.145,-38.76378605959553
347.949,-27.647735139605174
350.751,-19.924915410793346
353.55,0.07141036385928601
356.348,-26.80152086472026
359.144,14.170697595469392
361.937,23.55964553799413
364.729,39.60360302800518
367.518,48.921839477022786
370.306,55.990807479620344
373.091,71.28700331678147
375.874,163.52506555450464
378.656,227.13396888049374
381.435,222.3046465122793
384.212,161.32332689106715
386.988,72.71439418508407
389.761,9.62134403103255
392.532,-8.002736914933848
395.301,15.842927621383296
398.068,18.25442594036258
400.833,-9.624458150956798
403.596,-6.364147572666752
406.358,-11.058793253403564
409.117,-9.373891673277285
411.874,-18.7843792732333
414.629,-17.479394725159636
417.382,3.6853387359760745
420.133,23.330366987160232
422.882,46.362023410281836
425.629,69.78194767937521
428.374,65.63946409406844
431.117,88.46015038923406
433.858,134.6744065446378
436.597,156.33173788030035
439.334,160.6721810090039
442.069,151.69772978879928
444.802,136.2199517517074
447.533,115.52665215146953
450.262,135.00091896367667
452.989,149.74016788590097
455.714,174.07994924259174
458.438,192.78442155662742
461.159,188.28444416849152
463.878,174.01090795069376
466.595,147.39473268885513
469.31,102.34305493899046
472.024,111.81065398002693
474.735,122.51423490917887
477.444,141.88480697541536
480.152,178.02006191293276
482.857,162.4462760841502
485.561,150.21354595604043
488.262,162.03864262407888
490.962,162.25739014572173
493.659,166.63418673102206
496.355,179.12390688561527
499.048,132.8718987918137
501.74,120.59493407064247
504.43,128.4859670676974
507.118,134.40460842471293
509.804,155.25807484160214
512.488,205.3821388385095
515.17,250.20779280356646
517.85,284.02315113588975
520.528,298.6877333409516
523.204,306.7276995069087
525.878,279.95489530473515
528.551,254.75256365502128
531.221,280.0753421090549
533.89,263.496879277523
536.556,259.44792744969027
539.221,273.78776854591024
541.883,287.2327829272913
544.544,299.5469229672599
547.203,338.44647233740943
549.86,358.26671005525077
552.515,370.866669770056
555.168,363.67675619157353
557.819,379.4606472330288
560.469,384.5533866303158
563.116,376.194714656433
565.761,354.86239883591315
568.405,308.93889799258477
571.047,278.1875501068603
573.687,247.56209350635618
576.324,248.06380710413077
578.96,237.2176982559722
581.594,242.12011918911776
584.227,217.5816215262139
586.857,215.4602869997516
589.485,196.75696292839757
592.112,178.8533548361861
594.737,122.36916669075754
597.359,83.8287649511185
599.98,40.66117594874004
602.599,47.10484517342047
605.216,92.20763465438813
607.831,114.35063400380704
610.445,92.48625717456935
613.056,50.519196360940896
615.666,5.639756851600396
618.274,-4.390427164954417
620.88,12.761608919297032
623.484,48.95254321080665
626.086,63.27705467396072
628.686,52.020207070714605
631.284,30.89554718594809
633.881,34.33082210042767
636.476,41.944172654255
639.068,55.68699357697369
641.659,49.843936474825114
644.249,44.69957948467527
646.836,30.776525499366926
649.421,39.21635753592682
652.005,43.30345124663563
654.587,37.36973981105666
657.166,39.9375740661485
659.745,77.57686835066943
662.321,64.19081777814881
664.895,58.44447265271083
667.468,53.00283669442706
670.038,44.29277478847325
672.607,36.169682639049825
675.174,49.53653737568857
677.739,5.010567207168151
680.303,7.256587742116153
682.864,24.70129069054292
685.424,16.580866404350672
687.982,1.6076747643437557
690.538,7.113106543414233
693.092,-14.142888563585984
695.645,6.1234405382297155
698.195,6.5767935837729965
700.744,10.59615518734654
703.291,0.9890834629663914
705.836,14.610760549434872
708.38,11.887805040194507
710.921,36.342084512665224
713.461,44.63833758139663
715.999,43.48893880836431
718.535,18.415806470400184
721.069,-18.201975387663424
723.602,-5.271011090321281
726.133,20.397362055078702
728.662,45.51564628878714
731.189,63.93923158404141
733.714,63.714015261029544
736.238,18.50497398180096
738.759,26.453307173755093
741.279,0.8907233102690952
743.798,5.482297619897508
746.314,39.226472652713255
748.829,36.502677983507056
751.342,44.97609277213223
753.853,50.883360704804545
756.362,16.508781125878613
758.869,8.041452550575286
761.375,6.241939987228307
763.879,19.156561307158427
766.381,23.59357837644484
768.882,38.88510247341446
771.38,45.74423780136385
773.877,63.217463096522806
776.372,68.06558466458773
778.866,76.90659417915867
781.357,62.07281219446031
783.847,45.70612689615518
786.335,27.37704237598109
788.821,24.084679287319886
791.306,-2.1241768801651233
793.789,11.797305807428529
796.27,59.03886352667769
798.749,65.12361332755017
801.227,99.19376785935583
803.702,105.10587390622868
806.176,88.81176520832014
808.649,110.2157057591794
811.119,97.41248548409658
813.588,80.78265877558079
816.055,80.51635445742068
818.521,28.708514320161612
820.984,21.311274513735043
823.446,13.324442178180107
825.906,11.176448264850478
828.365,17.343395595710717
830.821,13.491916446449522
833.276,15.193458701010968
835.729,43.73381010136836
838.181,54.68452725920406
840.631,49.80769800092048
843.079,29.532132284075033
845.525,10.81050549477095
847.97,2.6431684117169425
850.412,4.93529050362622
852.854,37.925431798043064
855.293,60.66173406217922
857.731,69.90668341231367
860.167,55.279968161301895
862.601,7.258479523218739
865.034,-17.776068634378134
867.465,-7.108567657236108
869.894,2.2618675526114203
872.321,21.71713548260277
874.747,40.401098517386345
877.171,23.362438208471303
879.594,12.983224829583833
882.014,19.883677408222866
884.433,12.017399947681952
886.851,36.62376050622515
889.266,59.79931789529746
891.68,68.45020075870298
894.092,56.91115331844185
896.503,57.659819215784864
898.912,68.98340630473831
901.319,76.64535144549791
903.724,97.50436625028988
906.128,116.75253044826059
908.53,143.1057662027497
910.931,142.61336004761097
913.329,151.89605625210015
915.726,135.43176923338478
918.122,113.50796263571692
920.516,109.50736174293479
922.908,113.66985636716345
925.298,85.47345135656451
927.687,93.25331234117448
930.074,102.82081147874396
932.459,110.36828748629023
934.843,132.51666281451025
937.225,119.60115606028467
939.605,96.81413723632659
941.984,87.63369732654792
944.361,78.15697974617387
946.736,80.48113084948318
949.11,82.51282186611434
951.482,79.34919940880354
953.853,65.42074074302354
956.222,56.25315667567838
958.589,26.51500872950919
960.954,0.2081834603527568
963.318,-4.998776082735731
965.68,8.610280150250674
968.041,23.275297834547473
970.4,35.90287304282765
972.757,18.923393600813597
975.113,-17.13753384283018
977.467,-5.3733710323181185
979.819,-17.401411511045353
982.17,-7.315164927693331
984.519,-21.54150381458294
986.866,9.587902026257325
989.212,21.31276940380576
991.556,64.44419276163626
993.899,54.03130286045325
996.24,41.55173714086004
998.579,42.05449103849787
1000.92,80.15991215633767
1003.25,73.77398015125664
1005.59,62.32639614442178
1007.92,23.34200546501279
1010.25,1.726506108227568
1012.58,22.48072862186973
1014.91,34.367299365072085
1017.24,53.62492300311624
1019.56,59.39695306855083
1021.88,49.30282317983483
1024.2,69.34281159331113
1026.52,86.94566289802742
1028.84,89.39716209151698
1031.16,84.4591848460509
1033.48,81.79827158442436
1035.79,92.08086822239943
1038.1,118.68761453020102
1040.41,144.09429916067666
1042.72,158.96710039174468
1045.03,121.5911602021772
1047.33,108.10868215690789
1049.64,103.47131500662499
1051.94,117.96396485878563
1054.24,114.87146449149418
1056.54,127.14524266737567
1058.84,107.97475535221201
1061.13,123.54939312405031
1063.43,143.86800762993062
1065.72,170.02462851880045
1068.01,186.63703751728235
1070.3,185.98962821972736
1072.59,161.36674206874773
1074.87,161.0526710024185
1077.16,167.09356486337924
1079.44,166.48791023651324
1081.72,195.13891404852825
1084.0,214.47355383421268
1086.28,256.87115181220975
1088.56,312.99671086555986
1090.84,386.84853623652293
1093.11,429.28204769758827
1095.38,475.1526393415295
1097.65,470.45853937146376
1099.92,430.4360508432858
1102.19,370.08336383668143
1104.46,309.1129390547021
1106.72,260.5705580900144
1108.98,268.50199273876706
1111.24,258.3339600287361
1113.5,258.11222010462234
1115.76,295.59681697048563
1118.02,322.45255732742135
1120.28,348.82044179218383
1122.53,362.79385802057686
1124.78,350.1328690689379
1127.03,319.16897794609145
1129.28,270.6622731176926
1131.53,222.0871454391306
1133.77,167.48943365986497
1136.02,130.96261754681495
1138.26,158.12401100774446
1140.5,170.1147647384655
1142.74,158.02844029860648
1144.98,161.53006037786122
1147.22,165.2370638241373
1149.45,173.5764511479008
1151.69,205.97526335984935
1153.92,201.95582271334933
1156.15,180.46906868496922
1158.38,120.22789395500558
1160.61,108.37381372135133
1162.83,79.61982548954802
1165.06,57.44088791045715
1167.28,41.5024948560324
1169.5,29.70829711412989
1171.72,5.81915265475368
1173.94,35.88170070582123
1176.16,40.13312630512041
1178.37,3.5725921235195983
1180.58,-11.84828209276634
1182.8,-12.606368651333923
1185.01,1.6310669466770378
1187.22,-1.8031554491315092
1189.42,6.376251318725508
1191.63,-15.450099967975348
1193.84,10.24134913030457
1196.04,22.06948529987062
1198.24,33.08185679099188
1200.44,2.3737220542818704
1202.64,-10.62623495624507
1204.84,0.46314385321011287
1207.03,49.83263483374708
1209.23,46.10168035408083
1211.42,42.93743660841824
1213.61,29.673821424338485
1215.8,-29.164676024561004
1217.99,-26.291566458400666
1220.18,1.6749730311532858
1222.36,25.021619780390893
1224.55,55.035137772012604
1226.73,91.00237193008547
1228.91,77.30548051024698
1231.09,78.0409770137071
1233.27,63.11496257744261
1235.44,59.62407265010461
1237.62,37.90309033459039
1239.79,23.33446449251869
1241.96,15.824494515379456
1244.13,8.327134143300555
1246.3,20.17731909334225
1248.47,50.75762961632654
1250.64,84.9268586709045
1252.8,114.92477259706743
1254.96,100.8006813134698
1257.13,91.22296089570386
1259.29,77.95524282124643
1261.44,65.52307940487822
1263.6,87.9282282817178
1265.76,106.60103212835588
1267.91,98.73375076493721
1270.06,95.66151230486753
1272.22,83.33850239975368
1274.37,67.19510586529532
1276.51,50.66171497384721
1278.66,60.21634727079277
1280.81,95.62273958138849
1282.95,115.02558487476085
1285.09,126.8552929374132
1287.23,133.58989390388138
1289.37,116.85027512072406
1291.51,120.4477989628881
1293.65,115.67001588817334
1295.78,102.47113939646079
1297.92,77.09109241750502
1300.05,81.72217274635068
1302.18,86.08048038351035
1304.31,115.07258297037879
1306.44,129.36694312940517
1308.57,136.9177267566472
1310.69,145.77432560003217
1312.82,165.17659412334547
1314.94,170.65008637020492
1317.06,199.00605473280757
1319.18,202.3414487206676
1321.3,166.7531994436447
1323.41,162.43345647592173
1325.53,155.33625329141273
1327.64,189.17750603249783
1329.75,232.10167894542883
1331.87,248.96749743477585
1333.98,229.49080397502394
1336.08,248.8159854507296
1338.19,233.70644811573106
1340.3,227.21128302854845
1342.4,209.76050291636147
1344.5,183.1174218961255
1346.6,165.66436852902075
1348.7,164.30744649395206
1350.8,170.00034288009488
1352.9,147.69670790801183
1354.99,148.6834870317166
1357.09,136.34282446931093
1359.18,141.05682387647607
1361.27,129.3027852104401
1363.36,148.9389177844314
1365.45,156.77576760784268
1367.54,198.1476447263933
1369.62,206.5792886575273
1371.7,240.54777192104962
1373.79,261.57773690309773
1375.87,277.6699660534505
1377.95,287.39661874950025
1380.03,293.2821824459427
1382.1,266.8987095387504
1384.18,237.3420066100989
1386.25,209.08877605424664
1388.33,180.99661484626813
1390.4,163.11353712031178
1392.47,150.29702055738153
1394.54,149.45210039217022
1396.6,123.19803484846238
1398.67,109.53497057454001
1400.74,98.79632236429507
1402.8,105.98210525930381
1404.86,113.42559998422325
1406.92,143.03144695362153
1408.98,127.94231170737862
1411.04,108.68174082228211
1413.09,80.63035115695129
1415.15,66.31154290628797
1417.2,47.82006979878179
1419.25,29.631561674768136
1421.3,4.269189921831412
1423.35,-16.029667089788973
1425.4,-11.932469887493426
1427.45,27.607531912997274
1429.49,41.113204790897726
1431.54,22.916863773494924
1433.58,13.160271555941563
1435.62,8.842256668671553
1437.66,32.19966727482233
1439.7,79.51689774084434
1441.74,101.55446373620248
1443.77,109.02519638069475
1445.81,124.21329353462602
1447.84,134.1171806127943
1449.87,119.2114190175223
1451.9,98.39909076217259
1453.93,80.39275452322136
1455.96,79.04778264472066
1457.98,108.26712671418204
1460.01,127.38227361464965
1462.03,129.0103920529632
1464.05,129.67338384992877
1466.07,139.3216971352474
1468.09,133.71528239958525
1470.11,145.85216759426476
1472.13,155.7779856118998
1474.14,170.20502557656278
1476.16,171.9408079434695
1478.17,166.5071357891452
1480.18,144.94962229206863
1482.19,118.88531345140177
1484.2,122.97888223429732
1486.21,121.03787034224456
1488.21,88.6317395012336
1490.22,61.47282751381749
1492.22,40.46397097784711
1494.22,26.031842290911754
1496.22,20.412667607165076
1498.22,17.27127812748745
1500.22,8.605875675354582
1502.22,22.128988748899474
1504.21,18.74366666821379
1506.21,29.067292770268978
1508.2,4.717302365739215
1510.19,-29.78405168512745
1512.18,-23.485885777592557
1514.17,14.84846143929849
1516.16,27.979525216785305
1518.14,33.47742739643172
1520.13,19.579017671590236
1522.11,1.4735862774427915
1524.09,25.350481442946602
1526.07,37.256250652302924
1528.05,36.666067770271184
1530.03,38.38849350082478
1532.01,53.61309298865922
1533.98,77.14852961118368
1535.96,76.37494448479902
1537.93,63.76776454260062
1539.9,37.373891564462156
1541.87,42.0021769214045
1543.84,55.366277272347816
1545.81,79.94179597514699
1547.78,66.96628164048684
1549.74,75.62970287625421
1551.7,88.12206588905565
1553.67,106.87150827620758
1555.63,99.40144043677651
1557.59,95.99721079214169
1559.55,70.42039005417655
1561.5,70.57543644581006
1563.46,91.652551397774
1565.41,88.65148762630884
1567.37,85.23869054419652
1569.32,74.31872538608673
1571.27,73.27237100048683
1573.22,84.90899935604557
1575.17,109.32371695258576
1577.11,112.08783956547768
1579.06,121.05841460905526
1581.0,124.23536254765304
1582.95,123.42814211616837
1584.89,112.11289173109299
1586.83,117.00385661583687
1588.77,105.62481592604968
1590.7,108.35670035113844
1592.64,107.86616209673639
1594.58,100.55795439098506
1596.51,72.81302527652565
1598.44,14.464706640587565
