Raman Shift,Processed Intensity
331.095,65.92407981056886
333.909,39.119143221433205
336.721,9.545053533350256
339.531,-13.464849332155154
342.339,-9.88673608669933
345.145,-6.220567201140966
347.949,20.67658034926626
350.751,41.614329196861945
353.55,16.8309129316699
356.348,25.18365888005883
359.144,16.910899454832816
361.937,-36.70135458991399
364.729,-35.46226471346745
367.518,-3.5618722860099297
370.306,37.85747551547047
373.091,144.22493412599397
375.874,238.63639858283432
378.656,252.42593099194937
381.435,250.26099751821585
384.212,182.80913394709796
386.988,120.49984934155373
389.761,78.61986303227604
392.532,47.31310351268985
395.301,18.485469238711175
398.068,23.18577990469612
400.833,6.034346767013631
403.596,7.270590586670551
406.358,11.276850048128836
409.117,-6.754952069764386
411.874,-5.870927702643257
414.629,-11.736174510159344
417.382,-3.7776323568864427
420.133,-19.70789279167593
422.882,6.66527593183946
425.629,6.391308198461957
428.374,30.233980117403007
431.117,86.95712072765627
433.858,123.65794291616385
436.597,157.90989814551085
439.334,165.3341026101848
442.069,120.7421919642702
444.802,87.08869985866068
447.533,107.56629362112244
450.262,138.1772004125578
452.989,201.39987147850388
455.714,229.4746940196901
458.438,200.5468459197391
461.159,147.9043885681035
463.878,133.83540730205596
466.595,126.81848518199831
469.31,118.61793867155029
472.024,111.85524379381059
474.735,113.29474800190246
477.444,104.41509633523765
480.152,122.79018138530637
482.857,123.898664690033
485.561,119.60016479480373
488.262,117.13525483730427
490.962,162.55403156092734
493.659,163.9542081377158
496.355,137.52873080081554
499.048,121.42291928646227
501.74,121.97255965692193
504.43,114.51342569484859
507.118,176.3336574405098
509.804,209.2928063956756
512.488,233.5361188227489
515.17,271.0659619010353
517.85,283.9322975020759
520.528,265.8041083459175
523.204,275.87415749072807
525.878,229.23993829859864
528.551,220.95129106801278
531.221,221.7723053806085
533.89,233.7051272098447
536.556,285.3232898391839
539.221,316.2002828755194
541.883,313.4809784054469
544.544,329.929247627746
547.203,329.07081558108575
549.86,338.8123063479361
552.515,353.10790730608596
555.168,341.626033380172
557.819,329.74932462653896
560.469,326.955596199055
563.116,297.0083121244379
565.761,304.2899162204458
568.405,301.5637344426359
571.047,315.3073058025516
573.687,317.6647609049596
576.324,293.923010008898
578.96,227.13078823157412
581.594,180.14627218084297
584.227,131.63707754005918
586.857,107.4135899862672
589.485,108.14324848934439
592.112,73.5410190873381
594.737,58.22653532846425
597.359,67.2002863321577
599.98,71.17694770726212
602.599,64.87109342261283
605.216,60.66386005856066
607.831,53.74580153469833
610.445,52.307362885203474
613.056,88.01506831989036
615.666,73.86866166622303
618.274,53.24872300179504
620.88,22.29761862014493
623.484,15.586165282284128
626.086,5.3517230396569175
628.686,6.498195111492805
631.284,27.024600813078905
633.881,55.35841095733758
636.476,74.30793156190612
639.068,94.01469027202256
641.659,92.4772513548478
644.249,68.31312593187204
646.836,47.28258697322963
649.421,37.76486524439906
652.005,27.75815477670494
654.587,35.64152309972633
657.166,39.603488140372065
659.745,35.880118931474044
662.321,21.65980298704835
664.895,17.321347010884892
667.468,5.957791890862609
670.038,22.281180074206986
672.607,29.289227704659424
675.174,7.693902126908142
677.739,6.540475581497958
680.303,-11.601992528834671
682.864,-26.783505932348817
685.424,-9.958838266076782
687.982,-1.987526782803343
690.538,1.270892948045912
693.092,20.00450844697025
695.645,27.591889623608495
698.195,37.88780534720263
700.744,41.93751144563748
703.291,15.929133942566295
705.836,7.717480865961534
708.38,14.204996913808372
710.921,10.627480024564647
713.461,6.649321757143298
715.999,25.45874767089117
718.535,22.529724372232977
721.069,41.71719989465146
723.602,89.2571059834263
726.133,104.95683657084919
728.662,64.90953577525488
731.189,61.446481138141735
733.714,28.518038289864762
736.238,18.741282281995154
738.759,18.82857130063394
741.279,12.301834665429851
743.798,-3.1740915523391777
746.314,4.303775850207785
748.829,-0.21866860294130674
751.342,7.542620993566743
753.853,-3.6996799180437847
756.362,-11.185216796489385
758.869,-0.0583350106708167
761.375,-4.32045922219595
763.879,7.455621321918898
766.381,6.030515109763201
768.882,21.307752152968988
771.38,9.23854587038204
773.877,-0.7496355044527263
776.372,-0.08640227770638376
778.866,27.846318588410213
781.357,26.285711950696623
783.847,52.61188390372854
786.335,57.585956912904294
788.821,31.588164947501355
791.306,33.42737718515173
793.789,67.19824076394161
796.27,67.99546639164555
798.749,81.00906633591649
801.227,115.71483050971437
803.702,97.6362311281564
806.176,91.77299403204279
808.649,88.17252715424365
811.119,79.59658708131428
813.588,54.187945615118224
816.055,56.94658014396646
818.521,46.34872115660937
820.984,65.53732832765809
823.446,73.89351898395944
825.906,71.41752038049526
828.365,59.44295530961472
830.821,46.73208009121663
833.276,18.380546372463414
835.729,21.19835340368354
838.181,22.757466980945992
840.631,24.010866960058138
843.079,38.38778524675854
845.525,39.888943786908385
847.97,55.80084017573881
850.412,62.838604695661616
852.854,54.43171449694728
855.293,59.00970777839484
857.731,48.04980272991452
860.167,47.69594504653742
862.601,44.71118877576646
865.034,23.858648593495218
867.465,11.901499698975385
869.894,0.36488247169268107
872.321,-20.702192871759962
874.747,-7.155417811276948
877.171,12.24481440835575
879.594,27.78578748176733
882.014,38.8500781123837
884.433,29.201267319913995
886.851,-0.06368158550549197
889.266,9.057002589888043
891.68,34.3746578500145
894.092,44.510186024336235
896.503,69.75119264038949
898.912,75.38531727250347
901.319,69.41451627147308
903.724,58.41220263709374
906.128,62.85657636688211
908.53,64.74966909051477
910.931,98.90305537093514
913.329,91.65213543403183
915.726,89.47517980307884
918.122,69.04094536174807
920.516,86.49438665522212
922.908,95.21855766749582
925.298,121.69175169391337
927.687,104.24940311846876
930.074,92.98884633396256
932.459,95.72169370977599
934.843,113.02145165488741
937.225,137.60447001422312
939.605,140.61565336976923
941.984,94.6760771035888
944.361,57.21631774655543
946.736,46.19073570804744
949.11,67.69651991039404
951.482,78.02130385190435
953.853,75.88125786036744
956.222,55.70680039417698
958.589,43.88069029583767
960.954,32.166595235945124
963.318,48.566231585739615
965.68,38.46221857537557
968.041,52.23712292837695
970.4,35.17821778181133
972.757,12.191765415984719
975.113,-12.29222382539001
977.467,-19.891423091213483
979.819,-1.2711907840180174
982.17,25.23637875213899
984.519,16.537211908773997
986.866,10.299059976566696
989.212,9.332446166100226
991.556,28.447804769346476
993.899,80.36024042328654
996.24,106.92762166729176
998.579,112.1981983100261
1000.92,101.4105997487361
1003.25,63.327166621870674
1005.59,25.94823484266044
1007.92,7.36927677555218
1010.25,-5.790529015924903
1012.58,14.56408412996916
1014.91,44.48066317724624
1017.24,42.86379839021174
1019.56,53.14179262197672
1021.88,52.36190203153933
1024.2,71.95224346753616
1026.52,94.34084470913444
1028.84,129.4318375640637
1031.16,146.51022239522513
1033.48,168.43234693300883
1035.79,155.00686127809763
1038.1,166.13757766616914
1040.41,166.4425207087877
1042.72,174.73012049143654
1045.03,176.57064376679182
1047.33,160.39143467180338
1049.64,144.6197744923959
1051.94,144.2066938091209
1054.24,133.48411797614995
1056.54,123.16486974311397
1058.84,112.3902909245669
1061.13,124.73024502182398
1063.43,155.4688341305207
1065.72,171.1758301338882
1068.01,183.32572494364422
1070.3,186.6786855027906
1072.59,202.99484212174184
1074.87,227.70095776683456
1077.16,245.98566877740473
1079.44,253.89472558287252
1081.72,252.85480484839127
1084.0,259.43541685859645
1086.28,289.20605099658883
1088.56,328.59332122292153
1090.84,405.64287345934827
1093.11,479.73367392494856
1095.38,478.91134509130165
1097.65,455.65007306623465
1099.92,388.13832450138034
1102.19,330.42170635687785
1104.46,294.02201614226715
1106.72,291.4610540621459
1108.98,282.4987208761038
1111.24,300.9901633777092
1113.5,321.695300825877
1115.76,369.5169228048014
1118.02,384.7387870838902
1120.28,397.216098430079
1122.53,382.7088445629968
1124.78,349.07227496728206
1127.03,321.92357018107714
1129.28,289.356130132154
1131.53,274.5586243787882
1133.77,226.62451854111782
1136.02,183.7425531134595
1138.26,163.67293656233005
1140.5,166.60449080542912
1142.74,149.5832252620462
1144.98,176.98852995108564
1147.22,187.10460668433348
1149.45,190.3585669263873
1151.69,197.27281536887585
1153.92,202.65552874277205
1156.15,176.83875367832184
1158.38,135.20221885069645
1160.61,119.45905188754182
1162.83,68.94149627653633
1165.06,59.26758065388799
1167.28,71.53159761664756
1169.5,79.87553491596918
1171.72,62.01288760275429
1173.94,56.5143749351987
1176.16,37.33175252443675
1178.37,62.03591019447299
1180.58,50.197826984969424
1182.8,41.00762139212952
1185.01,19.131696847673993
1187.22,0.7603633882913527
1189.42,-21.9159692463395
1191.63,-0.8496441705592588
1193.84,-0.6595622094266673
1196.04,-7.774036837564381
1198.24,-4.1926968279194625
1200.44,-13.772198494749773
1202.64,-30.083367350534218
1204.84,-16.030244974975858
1207.03,12.34038641545726
1209.23,27.505666453082313
1211.42,61.228555435660155
1213.61,63.12925822466127
1215.8,60.066171953056255
1217.99,38.326357542631285
1220.18,51.29220169749169
1222.36,59.155697945185466
1224.55,78.77558482068048
1226.73,78.77257928844074
1228.91,77.10080064069143
1231.09,79.52395630044839
1233.27,67.42486095788217
1235.44,59.09114618287231
1237.62,50.1438271804177
1239.79,34.44206002223359
1241.96,36.083136973593355
1244.13,39.45010086778393
1246.3,30.211740432945135
1248.47,46.989252285575276
1250.64,60.54671244784436
1252.8,60.69583661259571
1254.96,74.81978802739832
1257.13,67.49222347383625
1259.29,88.33443448489811
1261.44,108.3010599909353
1263.6,111.44198944181198
1265.76,116.85474211953124
1267.91,106.16065597467104
1270.06,108.3620288437694
1272.22,105.74687871433116
1274.37,109.55560875174638
1276.51,98.31433899286958
1278.66,119.40633327769592
1280.81,117.6434261810391
1282.95,121.4088785156373
1285.09,92.37166140668205
1287.23,80.10550227111503
1289.37,72.51745460644202
1291.51,84.46694397003125
1293.65,98.52767110126547
1295.78,105.51141980559692
1297.92,96.7537696005129
1300.05,91.06647502816395
1302.18,106.78508306324125
1304.31,99.67369337798868
1306.44,130.68686146436153
1308.57,128.6362636609424
1310.69,130.28593360842865
1312.82,111.73321299083022
1314.94,106.83732132428781
1317.06,86.3622114601801
1319.18,130.07180604061023
1321.3,134.25380538246122
1323.41,160.52920964716827
1325.53,175.94755529620056
1327.64,185.89167535607112
1329.75,180.17293587381755
1331.87,204.79313903915317
1333.98,203.80166440185894
1336.08,211.10499104155315
1338.19,222.8476483088923
1340.3,228.22173799534312
1342.4,200.99074221724413
1344.5,166.77523606176896
1346.6,145.433838328124
1348.7,103.34892417351602
1350.8,85.18852823530301
1352.9,92.57300965790932
1354.99,95.40838378641092
1357.09,92.886320526786
1359.18,145.57938080139888
1361.27,143.58387205210943
1363.36,143.99603707670576
1365.45,157.81681429390642
1367.54,172.42802657979928
1369.62,191.54476058046544
1371.7,225.21536507222186
1373.79,242.58335408377275
1375.87,236.41121478026207
1377.95,241.08040582351487
1380.03,229.9723081132397
1382.1,231.753937432984
1384.18,233.66365709609408
1386.25,235.6064144011932
1388.33,233.67754851623545
1390.4,233.30564598160277
1392.47,189.9192057370169
1394.54,138.7561612913007
1396.6,97.38768860642676
1398.67,60.5753473149
1400.74,43.50917431808875
1402.8,65.76006309883951
1404.86,75.32738112932975
1406.92,87.59134918367977
1408.98,86.64637303152062
1411.04,61.34866084585087
1413.09,38.12574537279784
1415.15,25.738387053758743
1417.2,24.042477147538875
1419.25,25.036655138205106
1421.3,41.8146906644065
1423.35,16.37501075203204
1425.4,2.668324818748715
1427.45,-19.49760746431889
1429.49,-13.838920916419283
1431.54,-7.071827404565738
1433.58,30.087389916257735
1435.62,34.303333235401624
1437.66,44.57387453340266
1439.7,46.99206383835667
1441.74,44.74613272038823
1443.77,53.6909263575435
1445.81,65.72885941121649
1447.84,74.85753856823817
1449.87,67.45548032106103
1451.9,66.18687636699542
1453.93,56.52540662649085
1455.96,54.6113855947533
1457.98,47.20414678860152
1460.01,64.96776052666155
1462.03,71.56627551907695
1464.05,124.13991283817609
1466.07,154.73364084151626
1468.09,166.24955961874434
1470.11,161.11357115273722
1472.13,148.18014471884248
1474.14,116.82755847458839
1476.16,124.00552200178004
1478.17,122.2827988485949
1480.18,124.08530526215577
1482.19,126.55325654014746
1484.2,106.96974195386292
1486.21,70.9512044331525
1488.21,49.01887263232675
1490.22,37.40828823415495
1492.22,9.593118968150975
1494.22,-2.0957902758991622
1496.22,4.862919379876303
1498.22,2.6573147721046553
1500.22,5.9993168366747796
1502.22,6.124703892106481
1504.21,-4.730694600892775
1506.21,-0.5214709465360556
1508.2,10.416887878928492
1510.19,10.55847922254975
1512.18,1.6155589358681937
1514.17,-10.556693967699402
1516.16,-19.67446027452229
1518.14,-6.358611151468949
1520.13,10.722436382576689
1522.11,27.376528594329557
1524.09,22.268726385824948
1526.07,18.302256644146382
1528.05,9.856606448293178
1530.03,9.692283942712265
1532.01,5.427007782261171
1533.98,2.154753720027429
1535.96,-7.649484519136649
1537.93,0.8703037301520453
1539.9,18.474954566390807
1541.87,23.830127710848046
1543.84,21.934876125798155
1545.81,27.169263251801794
1547.78,31.199123102128397
1549.74,60.21415369051624
1551.7,86.26124855416424
1553.67,114.24449494339319
1555.63,122.87755296368164
1557.59,99.35032043198953
1559.55,73.70988344736725
1561.5,55.62241934251779
1563.46,20.373194873453258
1565.41,23.247516790105692
1567.37,38.197396692650955
1569.32,35.55583493545055
1571.27,31.179675959564975
1573.22,23.06865410145315
1575.17,21.889201306438054
1577.11,30.641111985020643
1579.06,49.32420786920238
1581.0,56.605002868800966
1582.95,32.8643203087197
1584.89,17.863957785267758
1586.83,18.41335202247592
1588.77,9.655291347460434
1590.7,11.20877102292502
1592.64,-2.6881514203353163
1594.58,-18.606929422360963
1596.51,-8.214243490098852
1598.44,48.9899014805826
