Raman Shift,Processed Intensity
331.095,59.36028133333323
333.909,-17.935043380952436
336.721,-39.75552495238101
339.531,-28.31587304761905
342.339,-10.783663047619045
345.145,-7.492443809523835
347.949,-36.15497428571432
350.751,-29.434965714285706
353.55,-10.280379999999997
356.348,-5.9709800000000035
359.144,1.02451523809522
361.937,-6.332445714285719
364.729,-22.69791523809519
367.518,35.32102095238105
370.306,141.3097533333335
373.091,260.18813904761925
375.874,375.06798095238116
378.656,430.39615238095257
381.435,398.85903809523825
384.212,298.14398095238107
386.988,168.035580952381
389.761,79.46228571428577
392.532,29.30637142857146
395.301,27.737480952381006
398.068,43.40271380952383
400.833,48.04548523809524
403.596,8.648829999999993
406.358,3.8161623809523793
409.117,-24.038331904761915
411.874,-13.07056714285713
414.629,-5.149536190476182
417.382,15.285595238095262
420.133,24.797047619047664
422.882,74.51934285714293
425.629,120.01675238095248
428.374,187.0452666666668
431.117,226.21880952380968
433.858,265.5808095238097
436.597,265.46161904761914
439.334,236.00157142857154
442.069,213.1995238095239
444.802,174.3882380952382
447.533,166.23419047619063
450.262,184.07152380952397
452.989,247.61566666666687
455.714,305.2973333333335
458.438,321.35749523809534
461.159,259.56093809523816
463.878,175.24448095238102
466.595,109.98384285714297
469.31,103.87840476190487
472.024,161.07650000000012
474.735,191.39284285714297
477.444,203.45184761904773
480.152,175.16419047619056
482.857,158.63161904761913
485.561,143.95547619047633
488.262,176.80950476190486
490.962,167.91474285714295
493.659,173.70662857142867
496.355,162.95430476190484
499.048,150.5222476190477
501.74,133.3701714285715
504.43,155.50564761904772
507.118,138.6980000000001
509.804,142.95471428571437
512.488,175.23604761904772
515.17,219.12076190476205
517.85,233.1403809523811
520.528,245.20685714285725
523.204,186.85123809523816
525.878,127.93808571428578
528.551,73.57001428571434
531.221,64.1826952380953
533.89,75.68787142857148
536.556,92.80650000000006
539.221,75.54532857142863
541.883,67.67292380952385
544.544,57.62412380952388
547.203,97.5954857142858
549.86,128.06930476190485
552.515,140.8608952380953
555.168,112.5470190476191
557.819,116.89511904761915
560.469,130.38657142857153
563.116,164.12115714285724
565.761,163.19877142857152
568.405,156.5285714285715
571.047,128.3525714285715
573.687,127.48433333333341
576.324,121.78438095238103
578.96,123.49412380952387
581.594,104.94976666666673
584.227,113.82081904761912
586.857,106.15709047619053
589.485,124.77045714285725
592.112,123.1385476190477
594.737,134.310761904762
597.359,109.76446190476194
599.98,102.31000000000007
602.599,119.56696666666679
605.216,169.86955238095248
607.831,176.6938238095239
610.445,180.13478095238105
613.056,119.1443285714286
615.666,71.57866190476197
618.274,61.53224285714292
620.88,71.52750000000007
623.484,98.51548095238104
626.086,148.06569047619058
628.686,156.65206666666677
631.284,191.03457142857155
633.881,211.35376190476205
636.476,217.27309523809538
639.068,230.02840000000015
641.659,217.90202857142864
644.249,154.7000000000001
646.836,144.65740476190484
649.421,102.3420071428572
652.005,64.22600476190483
654.587,85.25834047619054
657.166,100.91110000000006
659.745,81.27550238095243
662.321,74.15708428571428
664.895,20.123098571428564
667.468,-2.1639433333332985
670.038,18.33943000000004
672.607,43.05767571428574
675.174,65.08196047619053
677.739,84.31278190476195
680.303,106.65099047619056
682.864,124.7116333333334
685.424,140.8718190476191
687.982,90.12766190476192
690.538,49.761152380952396
693.092,29.33990000000003
695.645,35.384357142857176
698.195,44.986378095238145
700.744,64.33325666666667
703.291,43.32657047619049
705.836,37.772871123809544
708.38,26.81214307619049
710.921,21.346335200000027
713.461,45.039647495238135
715.999,63.032007104761966
718.535,91.79732498095244
721.069,109.3808420761905
723.602,81.4469142857143
726.133,57.231404761904805
728.662,50.77993809523813
731.189,53.37582857142861
733.714,52.82684285714289
736.238,64.55952380952385
738.759,73.19117619047624
741.279,95.52949523809531
743.798,95.85852857142861
746.314,94.65283333333336
748.829,55.38706666666669
751.342,54.5833190476191
753.853,65.38325238095244
756.362,94.35708571428579
758.869,96.9795571428572
761.375,99.58277142857148
763.879,82.30844761904766
766.381,82.96484285714291
768.882,61.027309523809556
771.38,79.3997571428572
773.877,72.36687619047622
776.372,69.92790952380959
778.866,84.08206666666672
781.357,83.20963333333337
783.847,63.214690476190526
786.335,75.9537666666667
788.821,65.99783333333338
791.306,57.25122380952386
793.789,70.8564047619048
796.27,72.2892571428572
798.749,79.69217142857148
801.227,97.96998095238101
803.702,113.78893333333342
806.176,142.76814285714295
808.649,156.00290476190486
811.119,161.7311904761906
813.588,179.71500000000012
816.055,177.47835238095246
818.521,151.40209047619055
820.984,142.67703809523815
823.446,116.39900476190483
825.906,112.09175238095249
828.365,133.32752857142864
830.821,124.96365714285719
833.276,98.81014761904765
835.729,65.39139047619051
838.181,60.99378571428578
840.631,72.57020000000006
843.079,95.1692333333334
845.525,109.79146666666672
847.97,98.29486666666668
850.412,65.7279047619048
852.854,45.32946190476192
855.293,35.481561904761946
857.731,50.947063809523854
860.167,59.726975714285736
862.601,50.06047523809526
865.034,37.94870047619049
867.465,14.345194285714296
869.894,12.727361428571456
872.321,33.57266857142859
874.747,39.73950952380955
877.171,50.324447619047646
879.594,44.42413333333335
882.014,42.51617619047623
884.433,52.982895238095296
886.851,90.73046666666674
889.266,137.37966666666674
891.68,144.74152857142866
894.092,138.43668571428577
896.503,128.8476857142858
898.912,126.30940952380962
901.319,126.34720476190483
903.724,129.20109047619053
906.128,97.49168571428578
908.53,87.93518571428577
910.931,94.34272380952387
913.329,96.620880952381
915.726,102.72382380952389
918.122,111.98660952380959
920.516,106.07777619047624
922.908,119.38042857142865
925.298,122.32476190476196
927.687,114.10298095238105
930.074,109.33626666666672
932.459,95.78828571428576
934.843,74.93721904761908
937.225,76.30893809523813
939.605,57.90520952380956
941.984,58.823085714285746
944.361,62.73134285714289
946.736,61.5842666666667
949.11,64.19329809523812
951.482,58.60804095238097
953.853,39.54468190476192
956.222,19.862359047619066
958.589,12.991539047619058
960.954,3.7914028571428764
963.318,39.88271238095244
965.68,78.45805809523814
968.041,96.13838428571432
970.4,76.35418666666669
972.757,35.53591714285714
975.113,-1.028777142857125
977.467,0.18557666666668515
979.819,4.657213333333343
982.17,17.62604666666668
984.519,25.760547619047642
986.866,45.776786190476244
989.212,73.29558666666671
991.556,90.69959714285719
993.899,90.08577142857148
996.24,94.21768095238099
998.579,82.85880476190479
1000.92,75.10588571428576
1003.25,70.96041428571432
1005.59,60.23332380952384
1007.92,43.87840952380955
1010.25,44.373119047619085
1012.58,52.575942857142905
1014.91,88.91650476190485
1017.24,100.30052380952385
1019.56,98.82422380952386
1021.88,63.10757619047624
1024.2,71.86568095238104
1026.52,117.05167142857155
1028.84,187.42816666666678
1031.16,195.61443809523817
1033.48,195.61120952380963
1035.79,177.08523809523822
1038.1,222.98923809523828
1040.41,266.9423333333335
1042.72,308.2780476190478
1045.03,299.8056666666668
1047.33,267.81119047619063
1049.64,229.67509523809537
1051.94,194.01633333333342
1054.24,169.12004761904774
1056.54,161.70038095238107
1058.84,152.56614285714298
1061.13,184.4312380952382
1063.43,196.62804761904772
1065.72,159.8228095238096
1068.01,178.53828571428585
1070.3,187.48809523809535
1072.59,183.3857142857144
1074.87,202.65885714285727
1077.16,218.21076190476202
1079.44,201.37395238095255
1081.72,249.0041904761907
1084.0,322.8621428571431
1086.28,377.3753809523812
1088.56,465.16152380952417
1090.84,606.5525238095242
1093.11,687.0230000000004
1095.38,697.142904761905
1097.65,641.5776666666669
1099.92,496.89690476190503
1102.19,390.8130000000003
1104.46,367.514904761905
1106.72,380.2865714285717
1108.98,400.9833809523812
1111.24,433.22276190476214
1113.5,450.85985714285744
1115.76,491.94023809523844
1118.02,541.5572857142861
1120.28,560.7092380952383
1122.53,563.3940000000003
1124.78,517.609666666667
1127.03,454.35400000000027
1129.28,398.053523809524
1131.53,332.27747619047636
1133.77,263.1188571428573
1136.02,226.19452380952393
1138.26,212.83585714285732
1140.5,219.61180952380965
1142.74,235.90147619047633
1144.98,239.5119523809525
1147.22,236.77428571428584
1149.45,231.87647619047635
1151.69,233.34047619047632
1153.92,217.40152380952395
1156.15,204.20073333333346
1158.38,167.97349523809532
1160.61,135.62245714285723
1162.83,114.52591428571435
1165.06,92.49138095238101
1167.28,83.03990000000006
1169.5,76.55048571428574
1171.72,67.16332857142862
1173.94,80.06673333333339
1176.16,97.9250190476191
1178.37,94.16447619047624
1180.58,95.44941428571433
1182.8,69.30133809523814
1185.01,50.62254761904766
1187.22,62.12482380952386
1189.42,75.42523333333338
1191.63,69.66425714285718
1193.84,86.36355714285719
1196.04,79.13986190476193
1198.24,60.22909047619052
1200.44,62.581404761904786
1202.64,60.76639523809527
1204.84,49.401114285714335
1207.03,66.81720952380955
1209.23,74.29860095238098
1211.42,59.605684285714304
1213.61,35.022819047619045
1215.8,3.1678233333333243
1217.99,-9.293687619047606
1220.18,-7.743523333333327
1222.36,6.91293523809525
1224.55,8.389579047619048
1226.73,23.59076000000003
1228.91,42.65944838095242
1231.09,55.40534409523812
1233.27,48.352564380952394
1235.44,37.50163304761906
1237.62,32.091316761904814
1239.79,60.93183457142864
1241.96,98.5958436190477
1244.13,103.60810476190483
1246.3,99.11277142857149
1248.47,90.01592857142862
1250.64,86.98589523809531
1252.8,99.35804285714295
1254.96,128.5628000000001
1257.13,147.0780761904763
1259.29,173.47761904761916
1261.44,192.7157142857144
1263.6,186.50923809523817
1265.76,159.57480952380962
1267.91,153.34366666666676
1270.06,160.34223809523823
1272.22,169.90661904761913
1274.37,180.32519047619056
1276.51,171.88695238095247
1278.66,141.64204761904767
1280.81,131.83214285714294
1282.95,120.79371428571433
1285.09,116.14895238095245
1287.23,122.80600000000007
1289.37,124.91095238095247
1291.51,136.56240952380958
1293.65,127.001880952381
1295.78,93.18527142857148
1297.92,72.59244761904765
1300.05,62.22707619047624
1302.18,62.52123809523815
1304.31,93.66921904761911
1306.44,120.19836666666674
1308.57,127.20765238095247
1310.69,162.9863142857144
1312.82,186.3003809523811
1314.94,191.6295238095239
1317.06,189.59647619047627
1319.18,171.82409523809534
1321.3,154.88757142857156
1323.41,193.64761904761917
1325.53,244.01300000000018
1327.64,299.36819047619065
1329.75,339.3355714285716
1331.87,346.4428095238097
1333.98,340.0742380952383
1336.08,343.23366666666686
1338.19,325.3053809523811
1340.3,296.6264761904763
1342.4,278.53323809523823
1344.5,240.55304761904773
1346.6,207.59361904761917
1348.7,188.2300000000001
1350.8,183.08385714285725
1352.9,169.63471428571438
1354.99,166.93338095238101
1357.09,149.55390476190482
1359.18,138.73738095238105
1361.27,130.34366666666676
1363.36,168.3274285714287
1365.45,173.64371428571437
1367.54,205.72366666666682
1369.62,249.99761904761922
1371.7,282.65852380952396
1373.79,306.756142857143
1375.87,323.482761904762
1377.95,295.2213333333335
1380.03,280.2115714285716
1382.1,260.97828571428585
1384.18,232.28511428571443
1386.25,185.0856380952382
1388.33,161.2377523809525
1390.4,147.21901904761916
1392.47,120.31579047619056
1394.54,118.76646666666673
1396.6,113.00030952380956
1398.67,90.87453809523817
1400.74,97.38912380952387
1402.8,89.63935714285716
1404.86,67.52953809523814
1406.92,55.67815714285717
1408.98,58.608523809523874
1411.04,88.79561904761913
1413.09,108.38127619047624
1415.15,109.36414285714292
1417.2,108.69513333333337
1419.25,74.37253809523816
1421.3,69.68066666666672
1423.35,99.80737619047626
1425.4,101.08410476190484
1427.45,124.84203523809532
1429.49,107.60244000000004
1431.54,75.83898000000005
1433.58,68.35863619047625
1435.62,79.15842761904767
1437.66,70.66426857142862
1439.7,74.77806380952384
1441.74,71.3061571428572
1443.77,78.00732857142863
1445.81,93.54495238095245
1447.84,102.05874761904765
1449.87,91.97394285714289
1451.9,70.33474285714291
1453.93,95.5186857142858
1455.96,103.66516666666674
1457.98,124.15145238095246
1460.01,127.54573809523816
1462.03,136.89192380952392
1464.05,140.94846666666677
1466.07,163.66394285714296
1468.09,175.98728571428583
1470.11,203.3432380952382
1472.13,196.39504761904774
1474.14,196.7104761904763
1476.16,190.9052857142858
1478.17,173.40414285714297
1480.18,165.29910476190486
1482.19,142.63433809523818
1484.2,104.88258571428577
1486.21,89.46913809523815
1488.21,79.20032380952388
1490.22,92.2153952380953
1492.22,84.55908095238098
1494.22,66.27601428571433
1496.22,45.26797142857144
1498.22,39.34158095238098
1500.22,26.589314285714316
1502.22,54.10356190476194
1504.21,53.11999523809527
1506.21,64.25517619047622
1508.2,71.31623333333337
1510.19,69.53896190476193
1512.18,59.683052380952425
1514.17,62.31781428571432
1516.16,45.06028095238098
1518.14,49.24186190476194
1520.13,54.95595714285717
1522.11,36.24838571428573
1524.09,30.21272380952383
1526.07,39.323561904761924
1528.05,23.912750000000027
1530.03,35.64555238095241
1532.01,42.187345238095254
1533.98,50.822600000000044
1535.96,58.597854761904806
1537.93,72.98821904761908
1539.9,72.99277619047623
1541.87,77.515380952381
1543.84,68.602880952381
1545.81,75.34982380952385
1547.78,70.51749523809528
1549.74,95.43850476190484
1551.7,99.44593333333339
1553.67,130.920261904762
1555.63,133.33741428571435
1557.59,140.9352380952382
1559.55,141.14192857142865
1561.5,156.7669523809525
1563.46,157.66769523809532
1565.41,155.46300476190484
1567.37,142.9147238095239
1569.32,138.3088047619048
1571.27,127.45496190476199
1573.22,120.87738571428581
1575.17,154.33826666666675
1577.11,149.31409523809532
1579.06,160.0910000000001
1581.0,147.4790952380953
1582.95,154.81209523809534
1584.89,144.6622380952382
1586.83,149.64871428571433
1588.77,140.62980952380963
1590.7,159.65376190476198
1592.64,159.10242857142867
1594.58,190.00019047619037
1596.51,206.2765476190474
1598.44,186.7656666666661
