Raman Shift,Processed Intensity
331.095,52.182250952380734
333.909,-14.972508809524022
336.721,-35.72562238095254
339.531,-25.289141428571423
342.339,4.862589523809541
345.145,23.422387619047626
347.949,21.965619047619036
350.751,-8.64553047619049
353.55,-6.928603809523814
356.348,-20.495102380952385
359.144,-24.431430952380953
361.937,-3.1083971428571218
364.729,35.390222380952444
367.518,69.60112190476201
370.306,148.49050619047634
373.091,250.4071419047621
375.874,347.08204761904784
378.656,393.58095238095257
381.435,363.73269523809535
384.212,258.7484523809524
386.988,121.93553333333337
389.761,48.93611904761909
392.532,21.060314285714295
395.301,-6.047176190476184
398.068,1.5453160952381175
400.833,11.627902047619054
403.596,18.37292790476193
406.358,33.144377000000006
409.117,18.212280285714275
411.874,-24.056876523809528
414.629,-4.771626761904745
417.382,4.7226547619047965
420.133,40.6531190476191
422.882,80.9145571428572
425.629,114.9748000000001
428.374,168.9213571428573
431.117,242.93776190476206
433.858,271.30409523809533
436.597,278.4440952380954
439.334,262.4962857142858
442.069,215.2200000000001
444.802,189.89814285714297
447.533,172.1482380952382
450.262,188.9692380952382
452.989,226.21823809523823
455.714,257.6095714285716
458.438,254.95404761904774
461.159,207.6813380952382
463.878,143.60326666666677
466.595,106.81712857142864
469.31,93.46925714285722
472.024,115.08643333333343
474.735,138.29188095238104
477.444,143.0896857142858
480.152,125.29405238095244
482.857,116.10013333333342
485.561,131.79890000000012
488.262,163.44330476190487
490.962,164.99133333333342
493.659,160.54442857142863
496.355,140.48974285714294
499.048,116.64283809523816
501.74,99.05762857142862
504.43,99.21725714285722
507.118,99.41353333333342
509.804,122.89198095238106
512.488,157.56417142857154
515.17,185.86523809523823
517.85,177.9449523809525
520.528,170.76290476190482
523.204,135.08771428571436
525.878,113.35507619047625
528.551,98.52440476190482
531.221,91.03089523809528
533.89,69.73848095238098
536.556,61.796871428571464
539.221,52.83170000000005
541.883,64.65890952380958
544.544,66.52316190476195
547.203,87.85925238095246
549.86,109.7686476190477
552.515,126.54297142857152
555.168,142.33083809523816
557.819,162.0906380952382
560.469,157.0657142857144
563.116,180.35666666666677
565.761,190.8734285714287
568.405,180.76390476190485
571.047,158.22314285714296
573.687,157.35119047619057
576.324,170.58038666666678
578.96,153.77192000000008
581.594,119.31055904761911
584.227,76.58108952380954
586.857,36.58678761904767
589.485,44.80714857142864
592.112,92.95926761904767
594.737,116.85500000000008
597.359,132.1161333333334
599.98,132.17310476190482
602.599,122.26619047619054
605.216,108.01600000000006
607.831,116.1385238095239
610.445,137.44419047619056
613.056,152.41032380952387
615.666,133.7993666666667
618.274,94.23107142857145
620.88,66.75316666666671
623.484,45.69917619047623
626.086,61.4971952380953
628.686,76.24193809523815
631.284,122.9808761904763
633.881,142.4272857142858
636.476,158.24690476190486
639.068,177.20019047619058
641.659,186.9999714285715
644.249,144.882861904762
646.836,139.46643333333338
649.421,100.08190476190478
652.005,47.58431428571433
654.587,36.30464285714288
657.166,43.335905714285744
659.745,30.10425857142859
662.321,31.988107142857157
664.895,21.55626333333333
667.468,-0.1463876190476212
670.038,-11.932183333333311
672.607,17.958109523809558
675.174,54.3308771428572
677.739,96.23093952380958
680.303,106.36964190476195
682.864,100.17256666666671
685.424,81.20812380952385
687.982,57.33055714285718
690.538,37.96508095238097
693.092,32.39449523809526
695.645,22.139457142857168
698.195,43.91115238095242
700.744,47.37313714285716
703.291,33.71276333333334
705.836,21.59358380952382
708.38,9.441100952380959
710.921,-1.795430476190457
713.461,13.976275238095255
715.999,38.991070476190515
718.535,64.34135000000005
721.069,88.26221428571434
723.602,100.3697285714286
726.133,91.89899009523812
728.662,56.608976761904785
731.189,41.06794876190478
733.714,31.36838228571431
736.238,34.8882868571429
738.759,54.57715295238099
741.279,53.76542819047621
743.798,46.4978666666667
746.314,53.53357142857146
748.829,51.86970952380956
751.342,57.074919047619076
753.853,61.19409523809526
756.362,54.700680952381
758.869,68.97295238095244
761.375,68.72257142857146
763.879,58.80405238095241
766.381,71.73864285714292
768.882,99.38093333333342
771.38,114.15701428571435
773.877,114.11208571428574
776.372,73.91043333333336
778.866,32.740190476190506
781.357,33.55145238095242
783.847,46.67527142857145
786.335,40.29996190476192
788.821,36.32817142857145
791.306,44.186361904761945
793.789,55.44401428571434
796.27,83.86119047619054
798.749,102.81698095238102
801.227,106.40467619047627
803.702,113.24160952380961
806.176,149.42122857142868
808.649,162.1325714285715
811.119,159.61219047619056
813.588,150.66842857142865
816.055,134.4425714285715
818.521,121.6000000000001
820.984,141.0442380952382
823.446,143.20285714285723
825.906,157.36040000000006
828.365,147.80206666666675
830.821,130.00308571428576
833.276,123.4863333333334
835.729,116.39410000000007
838.181,93.29726666666672
840.631,78.81441904761908
843.079,64.230980952381
845.525,49.737261904761944
847.97,66.19011904761909
850.412,78.78011904761908
852.854,82.07879428571432
855.293,60.08635857142861
857.731,54.136383809523835
860.167,46.37226047619052
862.601,61.74679809523815
865.034,75.64173000000007
867.465,116.67678476190484
869.894,124.47206190476197
872.321,121.59999047619054
874.747,124.10956666666672
877.171,119.144680952381
879.594,60.802109523809555
882.014,67.27376666666672
884.433,64.37101904761909
886.851,82.42887142857153
889.266,131.59241904761916
891.68,178.14942857142867
894.092,179.62600000000012
896.503,195.9292380952382
898.912,182.0617142857144
901.319,164.74014285714296
903.724,151.10995238095248
906.128,145.50747619047627
908.53,142.31642857142865
910.931,142.96861904761914
913.329,152.18109523809534
915.726,152.38557142857152
918.122,142.01380952380958
920.516,127.21161904761912
922.908,104.31580952380959
925.298,111.28214285714294
927.687,123.97085714285723
930.074,151.19486666666674
932.459,146.76737619047626
934.843,130.40570000000008
937.225,104.68492380952387
939.605,95.79868571428577
941.984,81.08383333333337
944.361,81.40067619047623
946.736,64.22890000000004
949.11,74.1910333333334
951.482,82.05204761904766
953.853,83.14853809523814
956.222,71.15034285714287
958.589,44.25107142857146
960.954,47.40626190476196
963.318,65.33333333333339
965.68,100.98733428571435
968.041,104.6093447619048
970.4,81.96401609523811
972.757,34.57784895238096
975.113,14.548708857142865
977.467,9.069476761904799
979.819,26.523424095238113
982.17,40.389010857142885
984.519,52.57310133333337
986.866,50.88719523809528
989.212,77.09512857142863
991.556,104.00808571428578
993.899,115.67546666666674
996.24,117.24146190476196
998.579,93.08842380952385
1000.92,63.59853809523814
1003.25,77.1064333333334
1005.59,78.27968857142862
1007.92,67.45270761904764
1010.25,62.38807714285716
1012.58,45.753197142857175
1014.91,34.73912476190481
1017.24,74.01305047619053
1019.56,100.95638380952386
1021.88,102.42628095238103
1024.2,123.99461904761911
1026.52,135.47090476190485
1028.84,140.37904761904772
1031.16,159.76661904761917
1033.48,176.9189523809525
1035.79,182.07357142857157
1038.1,219.75423809523826
1040.41,252.43652380952395
1042.72,257.1202380952383
1045.03,251.7093809523811
1047.33,224.72709523809533
1049.64,185.41061904761915
1051.94,173.09247619047628
1054.24,181.29509523809537
1056.54,170.44638095238105
1058.84,172.4974761904763
1061.13,166.63800000000012
1063.43,193.62852380952395
1065.72,190.94423809523823
1068.01,208.34519047619057
1070.3,212.40166666666678
1072.59,188.54071428571442
1074.87,178.7610000000001
1077.16,199.53709523809536
1079.44,217.53423809523827
1081.72,259.65514285714306
1084.0,318.89823809523836
1086.28,378.2616190476194
1088.56,480.3151428571432
1090.84,613.247428571429
1093.11,717.5804761904767
1095.38,742.2648095238098
1097.65,659.8221428571431
1099.92,537.0600952380955
1102.19,431.11938095238116
1104.46,395.9979523809527
1106.72,370.9796666666669
1108.98,386.20538095238123
1111.24,408.33919047619077
1113.5,462.1888571428575
1115.76,520.2284285714289
1118.02,563.8841428571433
1120.28,578.4396190476194
1122.53,569.7976190476194
1124.78,527.3364285714288
1127.03,455.2921904761907
1129.28,389.0439523809526
1131.53,326.58928571428595
1133.77,280.640142857143
1136.02,241.19428571428585
1138.26,228.1541904761906
1140.5,201.32733333333346
1142.74,198.85433333333347
1144.98,219.39971428571442
1147.22,233.00871428571443
1149.45,234.5840952380954
1151.69,258.17152380952393
1153.92,244.72114285714298
1156.15,218.27833333333345
1158.38,191.22171428571437
1160.61,167.5018095238096
1162.83,127.68810952380959
1165.06,110.34986190476197
1167.28,97.05652857142864
1169.5,98.4252571428572
1171.72,82.64436190476195
1173.94,96.18852380952387
1176.16,82.15088095238099
1178.37,66.81535714285718
1180.58,57.41829523809526
1182.8,43.33887857142858
1185.01,25.76587619047622
1187.22,23.840578571428573
1189.42,11.132795238095252
1191.63,17.355350000000026
1193.84,32.8877904761905
1196.04,47.300242857142905
1198.24,76.16293809523813
1200.44,72.47480190476192
1202.64,48.9967804761905
1204.84,48.013780000000025
1207.03,27.810843333333345
1209.23,20.435045714285735
1211.42,16.64792476190476
1213.61,14.211152380952388
1215.8,-2.8753204761904683
1217.99,8.57913428571429
1220.18,-3.568014761904762
1222.36,6.636100000000015
1224.55,18.192168571428596
1226.73,35.053420000000024
1228.91,42.125617142857166
1231.09,37.409960000000005
1233.27,25.241080952380983
1235.44,38.477633333333365
1237.62,52.359328571428605
1239.79,61.79265714285718
1241.96,67.11278095238097
1244.13,70.22659047619052
1246.3,73.42171428571433
1248.47,75.17653809523813
1250.64,76.58882380952386
1252.8,84.70816190476197
1254.96,88.7278714285715
1257.13,137.93634285714296
1259.29,157.28855238095247
1261.44,169.59652380952392
1263.6,166.33971428571436
1265.76,165.42532380952392
1267.91,140.47578571428576
1270.06,129.68456190476195
1272.22,95.38819523809528
1274.37,90.2561333333334
1276.51,77.76824285714292
1278.66,87.97551428571434
1280.81,116.92865714285722
1282.95,107.01203809523815
1285.09,108.51492380952388
1287.23,105.39282380952385
1289.37,90.83990952380958
1291.51,82.09792857142862
1293.65,84.83684761904765
1295.78,54.9174666666667
1297.92,49.67681904761908
1300.05,46.30880952380956
1302.18,44.769414285714326
1304.31,65.44329523809529
1306.44,98.6673714285715
1308.57,116.68313809523816
1310.69,119.87506190476196
1312.82,117.96113333333338
1314.94,113.37339523809533
1317.06,118.40125714285723
1319.18,140.95281428571437
1321.3,137.31708571428578
1323.41,148.35466666666676
1325.53,195.97371428571444
1327.64,245.08233333333348
1329.75,304.96966666666685
1331.87,330.5438095238097
1333.98,309.045904761905
1336.08,296.2884761904764
1338.19,297.3220000000001
1340.3,263.62580952380966
1342.4,244.58385714285725
1344.5,197.0563333333334
1346.6,169.14087619047632
1348.7,144.6971857142858
1350.8,150.5849523809525
1352.9,136.80677619047626
1354.99,125.93662857142864
1357.09,103.8340333333334
1359.18,115.11970476190484
1361.27,125.08162857142868
1363.36,162.57900952380965
1365.45,173.89914285714295
1367.54,186.56771428571437
1369.62,178.63409523809537
1371.7,194.71833333333348
1373.79,227.77442857142873
1375.87,258.80338095238113
1377.95,275.5679047619049
1380.03,279.68800000000016
1382.1,269.06971428571444
1384.18,263.47504761904776
1386.25,236.95238095238108
1388.33,196.02514285714292
1390.4,154.26505238095245
1392.47,100.5767428571429
1394.54,68.53165238095242
1396.6,50.2241904761905
1398.67,48.17783333333338
1400.74,55.05802857142861
1402.8,72.67352380952386
1404.86,86.68969523809528
1406.92,76.53377619047622
1408.98,87.72801904761911
1411.04,96.46116666666671
1413.09,97.20760000000008
1415.15,111.63210952380959
1417.2,123.06567619047625
1419.25,102.1251476190477
1421.3,113.28426666666672
1423.35,84.77857619047623
1425.4,81.79608571428577
1427.45,75.14362857142861
1429.49,56.3896285714286
1431.54,49.38833809523814
1433.58,68.6606190476191
1435.62,70.6317971428572
1437.66,68.44159952380954
1439.7,62.896422857142895
1441.74,57.84994809523815
1443.77,59.77498952380959
1445.81,70.52540904761909
1447.84,98.33551619047624
1449.87,89.86871428571433
1451.9,81.93115714285719
1453.93,69.13818095238098
1455.96,44.62903333333337
1457.98,60.400133333333414
1460.01,94.06666190476199
1462.03,125.81560952380961
1464.05,160.88155714285725
1466.07,166.1176571428572
1468.09,159.94907619047632
1470.11,202.03883809523825
1472.13,231.76395238095256
1474.14,252.16876190476208
1476.16,254.44004761904773
1478.17,216.90757142857154
1480.18,165.9488476190477
1482.19,134.3698476190477
1484.2,109.40495714285721
1486.21,103.09885714285721
1488.21,87.82867142857148
1490.22,77.01998095238102
1492.22,80.38362380952385
1494.22,86.15456666666671
1496.22,74.9963428571429
1498.22,78.38228571428576
1500.22,67.40448571428574
1502.22,53.25061428571433
1504.21,54.63224285714289
1506.21,52.40377142857145
1508.2,55.895957142857185
1510.19,61.91585714285718
1512.18,66.5563428571429
1514.17,60.81514285714288
1516.16,69.78535714285718
1518.14,66.36971904761907
1520.13,41.18539047619048
1522.11,15.183033333333341
1524.09,14.218180952380976
1526.07,20.47980952380957
1528.05,64.10948571428577
1530.03,93.5821904761905
1532.01,79.84930476190479
1533.98,61.5766047619048
1535.96,65.90619523809528
1537.93,50.837409523809555
1539.9,58.084009523809556
1541.87,47.02648571428574
1543.84,61.52168095238102
1545.81,67.71216190476197
1547.78,97.40740476190484
1549.74,119.75003333333342
1551.7,128.93067619047628
1553.67,137.66349523809535
1555.63,155.23459047619053
1557.59,156.3584761904763
1559.55,173.32133333333343
1561.5,179.64714285714297
1563.46,169.76495238095248
1565.41,165.8655238095239
1567.37,152.42604761904772
1569.32,153.11390476190485
1571.27,147.88228571428579
1573.22,147.35090476190484
1575.17,140.52047619047624
1577.11,135.72519047619056
1579.06,140.58519047619058
1581.0,139.72042857142867
1582.95,152.9416380952382
1584.89,149.72609047619054
1586.83,138.027561904762
1588.77,133.94233809523817
1590.7,136.90022857142864
1592.64,121.42628095238103
1594.58,134.75997142857148
1596.51,154.71223571428575
1598.44,176.4511238095236
