Raman Shift,Processed Intensity
331.095,116.35436428571403
333.909,3.8835880952378403
336.721,-31.909704761904905
339.531,-23.240647619047614
342.339,-21.300957142857158
345.145,-11.2818
347.949,-15.372933333333354
350.751,-10.715242857142844
353.55,1.4086857142857117
356.348,12.193800000000008
359.144,18.169595238095255
361.937,14.962166666666672
364.729,9.246242857142908
367.518,49.88896666666676
370.306,147.47240952380972
373.091,296.29437142857165
375.874,403.0828571428574
378.656,434.0430095238097
381.435,372.3812285714287
384.212,239.63912952380957
386.988,120.12084857142861
389.761,51.51300476190479
392.532,-4.496112380952349
395.301,10.06841238095241
398.068,16.611636190476204
400.833,39.92084952380955
403.596,43.26094571428572
406.358,16.374326666666654
409.117,-23.518959047619067
411.874,-48.8165423809524
414.629,-41.72421809523806
417.382,19.553685238095284
420.133,55.95707238095242
422.882,91.76042428571435
425.629,100.14427428571436
428.374,143.33795238095254
431.117,208.7149571428573
433.858,275.3642571428573
436.597,254.13738095238105
439.334,229.88709523809533
442.069,173.9434761904763
444.802,151.63709523809536
447.533,166.96671428571443
450.262,216.9791904761906
452.989,238.3409047619049
455.714,279.242942857143
458.438,257.6871476190477
461.159,191.43737619047627
463.878,136.49650000000005
466.595,96.24892857142864
469.31,72.50796666666673
472.024,88.27799523809529
474.735,100.51639047619057
477.444,140.08558095238106
480.152,172.56239047619056
482.857,186.66757142857153
485.561,173.74100000000007
488.262,155.07519047619058
490.962,178.01068571428584
493.659,172.74506666666676
496.355,186.1905142857144
499.048,174.21221904761913
501.74,170.05594285714295
504.43,174.2058761904763
507.118,186.8608285714286
509.804,166.6001904761906
512.488,190.6232380952382
515.17,215.1761904761906
517.85,224.50547619047632
520.528,202.5240952380953
523.204,176.90690476190485
525.878,144.13866666666678
528.551,144.84660952380963
531.221,138.75299047619055
533.89,136.43755238095247
536.556,109.86027619047626
539.221,91.60039047619054
541.883,87.90390476190484
544.544,106.87297142857147
547.203,97.80097142857149
549.86,107.8380952380953
552.515,120.65754285714294
555.168,114.69463809523819
557.819,153.67029523809535
560.469,181.0666761904763
563.116,183.46123809523817
565.761,158.4790476190477
568.405,158.74438095238105
571.047,147.16709523809536
573.687,163.18090476190488
576.324,166.0285238095239
578.96,151.42819047619054
581.594,136.38416190476198
584.227,123.32880476190483
586.857,118.93208571428579
589.485,121.67352857142862
592.112,123.26994285714292
594.737,117.295280952381
597.359,127.79918095238102
599.98,123.83126190476199
602.599,106.72656666666671
605.216,107.10538380952386
607.831,87.20645523809527
610.445,54.64974857142861
613.056,45.57813047619051
615.666,41.325100952380986
618.274,39.318855238095296
620.88,84.17783619047626
623.484,117.32970952380961
626.086,152.53556666666677
628.686,181.17466666666678
631.284,189.15014285714298
633.881,212.41247619047633
636.476,210.62619047619057
639.068,210.02680952380967
641.659,214.18352380952393
644.249,196.47413333333344
646.836,162.8481476190477
649.421,150.87393333333338
652.005,104.78623809523815
654.587,78.01001904761908
657.166,57.77992142857145
659.745,26.616019047619048
662.321,-2.247269047619041
664.895,-8.908947619047606
667.468,35.15075476190482
670.038,49.54719047619051
672.607,77.99062285714291
675.174,72.38203761904765
677.739,36.38426761904764
680.303,21.326747142857187
682.864,60.49119523809527
685.424,61.82638333333339
687.982,83.32837800000003
690.538,65.66021014285717
693.092,35.913386476190496
695.645,19.988916285714296
698.195,9.692660761904769
700.744,9.259177047619058
703.291,3.970674666666671
705.836,12.156980238095272
708.38,47.100418571428605
710.921,51.84523000000002
713.461,50.72144095238098
715.999,48.39247952380954
718.535,51.85536476190482
721.069,70.58300142857146
723.602,82.71517047619051
726.133,62.24887809523812
728.662,40.752616190476196
731.189,16.2235342857143
733.714,9.420880952380962
736.238,-2.2297114285714215
738.759,23.507252380952423
741.279,48.96237238095242
743.798,60.56161619047623
746.314,74.5882066666667
748.829,81.94442580952385
751.342,50.91360176190479
753.853,59.63633209523813
756.362,48.01501204761907
758.869,40.523594000000045
761.375,62.20768271428577
763.879,84.96985914285719
766.381,74.76049047619051
768.882,74.29186190476193
771.38,67.65740000000005
773.877,75.47424761904767
776.372,78.78843333333339
778.866,99.3598952380953
781.357,106.99676476190481
783.847,76.93558619047622
786.335,82.69877238095243
788.821,86.380070952381
791.306,76.07342476190483
793.789,84.58690523809528
796.27,88.6338123809524
798.749,50.26064761904766
801.227,77.03769523809531
803.702,87.29730476190483
806.176,124.18144761904773
808.649,152.54686666666674
811.119,175.9639714285715
813.588,175.33690476190486
816.055,195.66514285714297
818.521,162.32897619047628
820.984,152.99442857142864
823.446,127.23316190476197
825.906,91.7112333333334
828.365,80.1428476190477
830.821,98.24248095238103
833.276,126.48620476190487
835.729,158.15955714285724
838.181,156.26280000000006
840.631,122.03427142857149
843.079,102.99792380952388
845.525,93.82119047619055
847.97,100.36181238095244
850.412,78.28699333333336
852.854,54.12115333333336
855.293,39.341282857142886
857.731,38.61473142857146
860.167,40.180761904761916
862.601,23.659439999999996
865.034,14.290017142857165
867.465,11.645146666666689
869.894,30.202344761904794
872.321,33.82022095238098
874.747,51.30969523809529
877.171,73.24390952380959
879.594,112.14839523809533
882.014,134.16764285714294
884.433,150.92286666666675
886.851,141.65385714285722
889.266,141.02923809523818
891.68,162.24152380952393
894.092,157.95938095238103
896.503,154.28052380952388
898.912,150.0167142857144
901.319,136.0750476190477
903.724,130.0767142857144
906.128,160.78614285714292
908.53,158.20542857142868
910.931,180.575761904762
913.329,197.9942857142858
915.726,180.41638095238102
918.122,156.12990476190484
920.516,144.99514285714292
922.908,129.3952380952382
925.298,118.95223809523817
927.687,126.14458095238102
930.074,93.2133428571429
932.459,86.7800190476191
934.843,74.27623333333337
937.225,61.894957142857166
939.605,43.40083809523813
941.984,50.74888095238098
944.361,27.51328095238099
946.736,57.887090476190515
949.11,64.96830000000003
951.482,59.283304761904795
953.853,57.59660952380955
956.222,63.387066666666705
958.589,62.75248571428577
960.954,81.26685714285719
963.318,84.50407142857148
965.68,85.79997142857147
968.041,69.34744761904766
970.4,75.29173333333338
972.757,85.92090000000005
975.113,82.09438571428574
977.467,53.67152380952381
979.819,24.654552380952385
982.17,8.521761904761936
984.519,21.846566666666707
986.866,55.63107619047625
989.212,93.73436190476197
991.556,132.96765238095247
993.899,156.52311904761913
996.24,166.06930476190485
998.579,169.84578095238103
1000.92,130.711280952381
1003.25,99.00065714285721
1005.59,92.33391904761909
1007.92,81.61688571428576
1010.25,64.04130476190481
1012.58,79.51254285714289
1014.91,81.88874761904768
1017.24,90.07542857142862
1019.56,78.64434761904766
1021.88,80.16745714285719
1024.2,81.50202857142865
1026.52,114.98170476190488
1028.84,180.17807619047633
1031.16,214.56729523809537
1033.48,203.577761904762
1035.79,226.39980952380967
1038.1,242.4613809523811
1040.41,266.9527142857145
1042.72,301.4925714285716
1045.03,311.5087142857144
1047.33,267.42938095238105
1049.64,243.39633333333342
1051.94,213.50404761904775
1054.24,186.56100000000012
1056.54,179.28090476190488
1058.84,191.4719047619049
1061.13,199.65700000000015
1063.43,221.35847619047632
1065.72,220.00380952380965
1068.01,217.16290476190488
1070.3,200.40614285714295
1072.59,195.3509047619049
1074.87,216.56723809523825
1077.16,236.52976190476207
1079.44,253.66523809523827
1081.72,272.4483809523811
1084.0,306.4490952380955
1086.28,373.8560000000003
1088.56,489.1913809523813
1090.84,632.739047619048
1093.11,748.5922857142862
1095.38,757.4160000000004
1097.65,708.5413333333336
1099.92,603.109285714286
1102.19,483.8326190476194
1104.46,415.6614761904765
1106.72,395.8323809523812
1108.98,394.0573333333336
1111.24,434.7151428571432
1113.5,472.89895238095266
1115.76,518.3690476190479
1118.02,559.694428571429
1120.28,597.3498571428574
1122.53,625.2854761904765
1124.78,618.1183333333337
1127.03,550.8460476190479
1129.28,457.8953809523811
1131.53,375.0260476190478
1133.77,306.4268095238097
1136.02,273.1436190476192
1138.26,253.6030952380954
1140.5,230.2313809523811
1142.74,199.6458095238097
1144.98,238.7014761904764
1147.22,278.3968571428573
1149.45,305.01604761904775
1151.69,302.8429523809525
1153.92,269.87528571428584
1156.15,211.77847619047628
1158.38,187.741142857143
1160.61,158.142761904762
1162.83,141.4105238095239
1165.06,137.06660000000008
1167.28,122.25217619047623
1169.5,101.82331904761911
1171.72,91.01654761904767
1173.94,89.02109047619055
1176.16,103.50273809523819
1178.37,121.6505095238096
1180.58,120.32046857142862
1182.8,85.27350904761907
1185.01,65.36583238095243
1187.22,50.35862428571432
1189.42,55.10835142857147
1191.63,35.23315666666668
1193.84,46.9707447619048
1196.04,42.082314285714325
1198.24,53.662680952380995
1200.44,72.4735190476191
1202.64,85.65738095238098
1204.84,68.73790952380958
1207.03,78.14380095238099
1209.23,59.77969619047621
1211.42,35.169601904761926
1213.61,25.266146666666675
1215.8,15.069582857142876
1217.99,25.342186666666695
1220.18,34.22722000000001
1222.36,47.058557142857175
1224.55,37.884357142857155
1226.73,26.609995238095262
1228.91,33.76004285714289
1231.09,55.668609523809565
1233.27,65.81269523809529
1235.44,88.81231428571431
1237.62,74.4303666666667
1239.79,68.95352857142863
1241.96,83.24009047619055
1244.13,98.76763333333338
1246.3,101.68051428571435
1248.47,121.17015238095246
1250.64,130.7144476190477
1252.8,138.17186666666674
1254.96,159.40081904761914
1257.13,171.49847619047628
1259.29,157.56157142857154
1261.44,174.82985714285724
1263.6,187.82900000000012
1265.76,190.60828571428584
1267.91,185.88395238095245
1270.06,173.32447619047628
1272.22,148.55066666666679
1274.37,166.04104761904776
1276.51,186.74961904761915
1278.66,186.82119047619057
1280.81,167.25785714285723
1282.95,149.20428571428582
1285.09,136.4724761904763
1287.23,171.2074761904763
1289.37,204.31585714285725
1291.51,199.99028571428585
1293.65,188.70900000000012
1295.78,166.09319047619056
1297.92,142.90733333333344
1300.05,154.58204761904773
1302.18,168.11920952380962
1304.31,145.14011428571436
1306.44,133.50418095238103
1308.57,119.8324095238096
1310.69,116.79384761904772
1312.82,149.77173333333346
1314.94,174.19673333333344
1317.06,171.26138095238105
1319.18,182.1107142857144
1321.3,203.22276190476202
1323.41,223.26666666666682
1325.53,279.1493333333335
1327.64,327.6820952380954
1329.75,356.2001904761907
1331.87,389.0388571428574
1333.98,417.77142857142877
1336.08,400.0670000000002
1338.19,372.0700952380954
1340.3,344.2113333333335
1342.4,312.5399047619049
1344.5,279.3432380952383
1346.6,269.00390476190495
1348.7,248.80933333333348
1350.8,242.18985714285733
1352.9,256.57571428571447
1354.99,245.5874761904763
1357.09,225.51238095238108
1359.18,200.16090476190487
1361.27,188.6296666666668
1363.36,207.9201904761906
1365.45,240.70019047619058
1367.54,250.44709523809536
1369.62,252.49557142857157
1371.7,260.46523809523825
1373.79,274.9762380952383
1375.87,300.45790476190496
1377.95,334.1013333333335
1380.03,341.4310952380954
1382.1,306.9716666666668
1384.18,265.43785714285724
1386.25,223.211142857143
1388.33,184.43442857142867
1390.4,175.58414285714295
1392.47,172.32717142857152
1394.54,134.4252190476191
1396.6,84.97348571428577
1398.67,96.63862857142865
1400.74,90.2773333333334
1402.8,115.46096190476199
1404.86,134.1411333333334
1406.92,121.41226666666674
1408.98,129.79760952380963
1411.04,156.01080000000007
1413.09,144.62195238095245
1415.15,144.34476190476195
1417.2,128.8923333333334
1419.25,118.92971428571437
1421.3,128.07523809523818
1423.35,151.7562380952382
1425.4,167.44706666666676
1427.45,161.28937619047628
1429.49,151.18646666666675
1431.54,145.2314714285715
1433.58,124.47074285714294
1435.62,125.66464285714292
1437.66,132.8586952380953
1439.7,146.62259047619057
1441.74,147.19274285714295
1443.77,155.70987619047625
1445.81,138.31506666666672
1447.84,109.10161904761911
1449.87,89.78151904761911
1451.9,96.73395238095245
1453.93,113.00427142857151
1455.96,143.68569523809535
1457.98,156.68075714285723
1460.01,168.7016285714287
1462.03,168.31785714285726
1464.05,174.6224285714287
1466.07,219.3748571428573
1468.09,259.2876190476192
1470.11,263.1200000000002
1472.13,267.2988095238097
1474.14,253.25033333333343
1476.16,250.30580952380967
1478.17,242.27252380952393
1480.18,230.52947619047632
1482.19,198.93141904761916
1484.2,143.90532380952388
1486.21,129.40106666666676
1488.21,112.55992857142863
1490.22,90.23680476190482
1492.22,86.38221428571433
1494.22,75.4227523809524
1496.22,49.26145619047624
1498.22,47.89639666666667
1500.22,33.278259047619066
1502.22,17.976783333333344
1504.21,26.609372380952415
1506.21,34.031578571428604
1508.2,55.765697142857185
1510.19,69.95311333333338
1512.18,70.73530142857145
1514.17,55.777660952380984
1516.16,34.65039428571429
1518.14,27.590460000000025
1520.13,15.45394857142858
1522.11,17.90660285714287
1524.09,16.89998714285716
1526.07,18.76673714285716
1528.05,30.077742857142905
1530.03,61.02299523809527
1532.01,62.9831047619048
1533.98,62.48167142857146
1535.96,57.61385238095241
1537.93,36.80818095238098
1539.9,38.779138095238125
1541.87,41.52684285714288
1543.84,35.575433333333365
1545.81,44.068166666666706
1547.78,54.9579428571429
1549.74,76.48321428571435
1551.7,109.69258095238104
1553.67,132.205661904762
1555.63,145.26122857142866
1557.59,140.14610952380957
1559.55,116.90868571428577
1561.5,116.7404714285715
1563.46,118.30938571428578
1565.41,106.75926190476196
1567.37,118.18618571428578
1569.32,100.02036666666672
1571.27,91.64364285714292
1573.22,110.15294761904768
1575.17,104.07326666666671
1577.11,100.0727476190477
1579.06,117.72389523809531
1581.0,107.88553333333341
1582.95,104.89220476190481
1584.89,93.69792380952384
1586.83,96.16128095238103
1588.77,99.9028095238096
1590.7,121.20969047619054
1592.64,118.98814285714292
1594.58,104.78727857142854
1596.51,96.46567142857148
1598.44,106.02477142857157
