Raman Shift,Processed Intensity
331.095,-29.61376371428582
333.909,-15.73649697619048
336.721,21.454253523809545
339.531,61.24784995238099
342.339,65.19523780952382
345.145,46.37171285714285
347.949,23.16304285714284
350.751,-16.09183761904761
353.55,-14.148148095238087
356.348,-2.665355714285718
359.144,-15.111236666666676
361.937,-12.809676666666654
364.729,3.392481428571486
367.518,67.45928476190488
370.306,168.1652000000002
373.091,285.7142619047621
375.874,369.8836285714288
378.656,415.59428571428595
381.435,376.7678285714287
384.212,249.89935238095242
386.988,131.00856666666672
389.761,40.116452380952396
392.532,-23.611295238095224
395.301,-15.246123809523786
398.068,21.189233333333345
400.833,20.150176190476223
403.596,57.47419523809526
406.358,50.4763476190476
409.117,8.949319047619042
411.874,-18.17003809523811
414.629,-24.229185714285716
417.382,-12.859976190476164
420.133,20.545142857142885
422.882,36.16640952380957
425.629,86.80408095238104
428.374,151.40298095238109
431.117,243.28950476190494
433.858,290.8866666666668
436.597,293.7135714285716
439.334,246.38528571428583
442.069,196.8987142857144
444.802,175.6811904761906
447.533,218.11204761904776
450.262,247.4295714285716
452.989,286.20523809523826
455.714,305.392523809524
458.438,292.8502190476192
461.159,247.8191761904763
463.878,181.06391904761912
466.595,128.6361476190477
469.31,104.96781428571437
472.024,98.25432380952387
474.735,121.26253809523816
477.444,113.18822380952385
480.152,117.51359047619056
482.857,113.76857619047625
485.561,105.24512380952388
488.262,118.42625714285722
490.962,134.08109523809532
493.659,120.9310095238096
496.355,148.17458095238104
499.048,143.62876190476197
501.74,145.8252000000001
504.43,157.8668571428572
507.118,131.09520000000006
509.804,122.70897142857153
512.488,137.4310285714287
515.17,177.6502285714287
517.85,220.75604761904776
520.528,211.94713333333343
523.204,163.23161904761912
525.878,132.42766666666674
528.551,119.11453333333341
531.221,115.96689047619054
533.89,119.51675238095245
536.556,109.96241428571435
539.221,98.97815238095245
541.883,97.61934761904769
544.544,106.36928571428578
547.203,118.09259047619055
549.86,130.0818095238096
552.515,122.01064761904769
555.168,126.36181904761912
557.819,122.57035238095246
560.469,113.40429523809533
563.116,132.53593333333345
565.761,157.44717142857155
568.405,188.429142857143
571.047,217.1535238095239
573.687,220.67274285714294
576.324,181.4199571428572
578.96,152.30394285714294
581.594,118.85257142857148
584.227,114.59301904761912
586.857,124.86180952380963
589.485,137.85227619047626
592.112,124.23410000000008
594.737,134.72369523809533
597.359,143.75142857142868
599.98,163.3190000000001
602.599,190.61790476190484
605.216,185.22057142857153
607.831,169.55661904761914
610.445,148.0071714285715
613.056,120.9531714285715
615.666,118.48963809523815
618.274,108.04433809523816
620.88,119.66421904761914
623.484,135.87161428571437
626.086,148.42733333333342
628.686,180.09141428571445
631.284,206.76620000000014
633.881,222.16419047619067
636.476,234.3302380952382
639.068,223.07100000000014
641.659,218.38371428571446
644.249,210.97938095238106
646.836,203.99743809523824
649.421,193.00590000000005
652.005,160.19105238095247
654.587,126.93026666666672
657.166,88.8859142857143
659.745,53.10156190476195
662.321,63.04930476190479
664.895,27.8198761904762
667.468,31.409042857142893
670.038,44.33611904761907
672.607,36.88239523809528
675.174,54.99585238095243
677.739,83.91026190476194
680.303,69.43068095238101
682.864,95.83858571428577
685.424,102.17720476190478
687.982,62.204176190476204
690.538,29.581904761904774
693.092,8.496752380952389
695.645,5.230166666666699
698.195,25.682804761904784
700.744,43.8030123809524
703.291,31.77726000000001
705.836,20.12538666666668
708.38,24.891173333333363
710.921,41.30890571428574
713.461,49.279540952380984
715.999,61.704141904761926
718.535,42.388589047619064
721.069,33.09119238095241
723.602,26.570349047619064
726.133,33.44165428571432
728.662,49.701684285714315
731.189,50.8233104761905
733.714,48.51753333333336
736.238,58.638304761904784
738.759,41.70626666666671
741.279,50.57572380952386
743.798,85.71972857142862
746.314,91.84971428571433
748.829,112.82008095238099
751.342,96.62813809523811
753.853,50.12850476190478
756.362,17.03321428571431
758.869,33.435019047619086
761.375,29.85565238095242
763.879,62.76910000000005
766.381,79.64960000000005
768.882,95.06704761904768
771.38,93.01962380952386
773.877,96.45811904761909
776.372,66.38111904761908
778.866,54.45375238095243
781.357,61.15085238095244
783.847,89.37655238095243
786.335,84.9391047619048
788.821,91.45653809523816
791.306,100.07091428571434
793.789,102.92455238095246
796.27,107.15956666666673
798.749,106.01378571428575
801.227,87.53449047619054
803.702,102.05423333333341
806.176,121.668261904762
808.649,146.75747142857153
811.119,157.9408095238096
813.588,151.78976190476197
816.055,171.2091904761906
818.521,176.6755238095239
820.984,160.95100000000008
823.446,143.41711428571435
825.906,110.97906666666672
828.365,88.44694285714291
830.821,103.63064761904768
833.276,108.05499047619055
835.729,129.5777238095239
838.181,132.62841428571434
840.631,128.5410857142858
843.079,114.74551904761911
845.525,106.19486666666674
847.97,105.27141904761912
850.412,102.69079047619051
852.854,77.07312857142861
855.293,70.46726380952384
857.731,46.54136142857146
860.167,40.05847523809527
862.601,36.44883380952382
865.034,32.713951428571455
867.465,29.760125238095267
869.894,32.06517523809525
872.321,30.86886571428574
874.747,34.22049809523811
877.171,37.35990380952385
879.594,53.47939714285718
882.014,73.43786380952386
884.433,87.09447619047624
886.851,101.403380952381
889.266,106.79517142857148
891.68,104.89063333333338
894.092,105.59670476190483
896.503,110.5822333333334
898.912,131.22997142857153
901.319,142.30414285714295
903.724,142.7590952380953
906.128,129.5013333333334
908.53,121.86690476190482
910.931,105.00090476190483
913.329,122.28598095238104
915.726,114.20090952380957
918.122,112.27139047619055
920.516,120.35658571428579
922.908,110.79255238095243
925.298,106.5339952380953
927.687,113.15431428571432
930.074,72.7033666666667
932.459,69.5168190476191
934.843,74.69191942857145
937.225,51.37392085714289
939.605,40.80328933333335
941.984,31.267786761904777
944.361,29.81731790476195
946.736,50.739930380952416
949.11,58.03774323809526
951.482,51.570100000000025
953.853,41.91062380952385
956.222,49.20423333333339
958.589,84.07231428571436
960.954,98.32643809523813
963.318,93.68302380952385
965.68,67.47744285714288
968.041,46.09270476190479
970.4,32.53074285714288
972.757,30.984215238095256
975.113,23.74071714285715
977.467,15.230775238095237
979.819,-8.067537619047613
982.17,9.704776190476215
984.519,15.073335714285733
986.866,35.42084095238099
989.212,63.27298523809528
991.556,74.53604761904766
993.899,89.06885714285721
996.24,114.44437619047625
998.579,109.3783333333334
1000.92,114.1578571428572
1003.25,100.02258571428575
1005.59,57.16413809523813
1007.92,44.82199523809527
1010.25,48.378071428571474
1012.58,60.30976190476196
1014.91,96.66561904761909
1017.24,91.87516190476192
1019.56,64.51059523809526
1021.88,44.95358095238099
1024.2,53.918833333333396
1026.52,78.54984285714295
1028.84,120.46604285714294
1031.16,146.38225714285724
1033.48,156.82234285714293
1035.79,164.69109523809536
1038.1,166.3219523809525
1040.41,180.61952380952394
1042.72,199.1074761904763
1045.03,208.0715238095239
1047.33,207.13028571428583
1049.64,192.0926190476191
1051.94,160.1012857142858
1054.24,144.34580952380963
1056.54,128.30200000000008
1058.84,131.4455238095239
1061.13,135.72771428571437
1063.43,140.10014285714294
1065.72,142.895380952381
1068.01,150.39790476190484
1070.3,142.79733333333343
1072.59,147.04514285714296
1074.87,153.6159047619049
1077.16,170.17523809523823
1079.44,182.00771428571443
1081.72,212.77871428571444
1084.0,263.6769523809526
1086.28,329.27285714285745
1088.56,440.088666666667
1090.84,560.6465238095242
1093.11,654.3259047619051
1095.38,689.9823809523813
1097.65,645.6140000000004
1099.92,527.6954285714288
1102.19,414.4158571428574
1104.46,346.43985714285736
1106.72,325.8131428571431
1108.98,347.96280952380977
1111.24,374.12485714285737
1113.5,400.20219047619076
1115.76,435.47861904761936
1118.02,465.52361904761926
1120.28,496.76366666666695
1122.53,513.1496666666669
1124.78,475.9650952380954
1127.03,396.5892857142859
1129.28,300.8770000000001
1131.53,205.63580952380963
1133.77,156.4351904761906
1136.02,164.98757142857156
1138.26,167.57638095238107
1140.5,177.29519047619058
1142.74,208.80814285714297
1144.98,229.82752380952394
1147.22,235.82804761904777
1149.45,258.52166666666676
1151.69,235.14476190476202
1153.92,212.4094761904763
1156.15,186.5042095238096
1158.38,158.23654952380957
1160.61,103.17611142857146
1162.83,77.79696571428576
1165.06,53.66886952380957
1167.28,57.7421228571429
1169.5,48.300830476190505
1171.72,59.29540666666669
1173.94,48.0097904761905
1176.16,56.918476190476234
1178.37,72.35304761904766
1180.58,75.88326190476194
1182.8,59.412280952380975
1185.01,44.79568000000001
1187.22,23.222413333333346
1189.42,16.548245714285734
1191.63,23.20033428571429
1193.84,10.93929523809524
1196.04,3.6686961904761937
1198.24,9.101655238095248
1200.44,10.856183809523824
1202.64,22.93138000000002
1204.84,30.278701904761913
1207.03,29.08790666666668
1209.23,27.45359333333335
1211.42,30.04190095238096
1213.61,17.042899047619052
1215.8,15.027740952380958
1217.99,12.948593333333346
1220.18,10.04348476190477
1222.36,9.502979523809529
1224.55,8.422526666666673
1226.73,12.707216666666694
1228.91,28.262285714285746
1231.09,54.850269047619086
1233.27,63.233761904761934
1235.44,58.080333333333364
1237.62,65.91468095238099
1239.79,64.78563333333337
1241.96,71.9799095238096
1244.13,96.49903809523816
1246.3,117.20159047619055
1248.47,112.99380000000006
1250.64,123.3058095238096
1252.8,119.09191904761914
1254.96,131.44868571428583
1257.13,166.71179523809536
1259.29,187.83539047619058
1261.44,186.5835238095239
1263.6,182.29157142857153
1265.76,174.20028571428583
1267.91,170.21621904761915
1270.06,156.38976666666673
1272.22,136.2467238095239
1274.37,130.40890000000007
1276.51,146.78329523809535
1278.66,158.99200476190487
1280.81,170.4661238095239
1282.95,155.63690476190484
1285.09,134.36395238095247
1287.23,130.1742380952382
1289.37,152.73671428571438
1291.51,145.14981428571437
1293.65,110.84510952380958
1295.78,80.06340000000004
1297.92,64.664680952381
1300.05,54.36645238095243
1302.18,95.02854761904769
1304.31,119.98741904761911
1306.44,116.72215238095247
1308.57,125.14045238095247
1310.69,138.10238095238103
1312.82,152.46828571428586
1314.94,196.95533333333347
1317.06,214.89966666666675
1319.18,192.20909523809533
1321.3,179.17214285714294
1323.41,161.03000000000011
1325.53,175.9286666666668
1327.64,235.1562857142859
1329.75,284.47742857142873
1331.87,286.0855714285716
1333.98,306.1738571428573
1336.08,306.3168571428573
1338.19,277.8979523809525
1340.3,268.4911904761906
1342.4,232.4320476190477
1344.5,168.9615238095239
1346.6,139.84395238095246
1348.7,124.74842857142865
1350.8,122.10566666666675
1352.9,127.2038095238096
1354.99,127.5686952380953
1357.09,106.5359571428572
1359.18,114.63134285714294
1361.27,110.28513809523815
1363.36,128.68986666666677
1365.45,160.085242857143
1367.54,187.04460000000012
1369.62,209.66466666666682
1371.7,240.99447619047632
1373.79,233.4163809523811
1375.87,237.93166666666684
1377.95,248.73166666666683
1380.03,238.34147619047633
1382.1,243.66661904761918
1384.18,228.61271428571436
1386.25,212.27568571428583
1388.33,167.51313809523816
1390.4,137.23020952380958
1392.47,91.42726190476193
1394.54,56.62808571428575
1396.6,35.594733333333366
1398.67,46.66021428571431
1400.74,37.586123809523855
1402.8,63.46731428571433
1404.86,78.49350952380956
1406.92,88.8544571428572
1408.98,88.31115238095241
1411.04,76.10064761904765
1413.09,75.31690952380957
1415.15,84.149180952381
1417.2,87.21504761904767
1419.25,98.27486190476195
1421.3,77.5174904761905
1423.35,74.36958095238101
1425.4,82.2578428571429
1427.45,85.0375571428572
1429.49,76.51609047619051
1431.54,66.1198285714286
1433.58,50.22749523809529
1435.62,60.45562857142861
1437.66,86.56397142857149
1439.7,95.31169523809528
1441.74,115.45829523809532
1443.77,114.04856666666672
1445.81,124.98461904761913
1447.84,127.31128095238104
1449.87,130.787780952381
1451.9,109.41108571428579
1453.93,103.845180952381
1455.96,87.18221428571434
1457.98,82.80025238095243
1460.01,92.88655714285721
1462.03,124.10494761904772
1464.05,149.35715238095247
1466.07,180.35417619047632
1468.09,224.04533333333347
1470.11,246.6183333333335
1472.13,254.2126666666668
1474.14,260.3014285714287
1476.16,256.8340952380954
1478.17,257.23580952380973
1480.18,269.64633333333353
1482.19,260.06290476190486
1484.2,236.1965809523811
1486.21,189.94915238095246
1488.21,133.84172857142863
1490.22,84.10928571428576
1492.22,44.60603333333336
1494.22,33.424271428571465
1496.22,35.9420904761905
1498.22,45.44260000000003
1500.22,57.1611666666667
1502.22,59.14274761904765
1504.21,59.384823809523844
1506.21,50.4086523809524
1508.2,44.1165847619048
1510.19,30.649141904761926
1512.18,37.956431428571456
1514.17,45.036281904761935
1516.16,54.79139809523811
1518.14,26.12456095238096
1520.13,26.795818095238108
1522.11,11.517690476190488
1524.09,16.71712380952384
1526.07,39.15453333333336
1528.05,55.30472857142858
1530.03,38.64264761904764
1532.01,45.9290666666667
1533.98,46.87728571428574
1535.96,52.24837619047623
1537.93,65.23203809523812
1539.9,59.82760952380954
1541.87,50.93931904761909
1543.84,40.80481904761907
1545.81,43.42371428571433
1547.78,60.272114285714345
1549.74,87.11155714285721
1551.7,105.22805238095245
1553.67,127.28829523809532
1555.63,134.0540857142858
1557.59,125.66860952380958
1559.55,128.56083809523818
1561.5,126.6832476190477
1563.46,132.3701238095239
1565.41,130.1458476190477
1567.37,142.4391333333334
1569.32,132.39395238095247
1571.27,134.34438095238102
1573.22,122.62419047619055
1575.17,127.99661904761912
1577.11,120.84371428571438
1579.06,116.1182857142858
1581.0,132.82180952380958
1582.95,135.62209523809528
1584.89,126.66280952380961
1586.83,131.75504761904773
1588.77,140.94761904761913
1590.7,136.28931428571437
1592.64,129.87700476190483
1594.58,103.35486190476229
1596.51,99.24784047619123
1598.44,143.05715714285841
