Raman Shift,Processed Intensity
331.095,1.6503845238095305
333.909,-9.496238095238104
336.721,-18.186059523809536
339.531,-21.295271428571436
342.339,-7.747871428571422
345.145,-3.6580857142857024
347.949,24.217712380952396
350.751,29.409442857142867
353.55,27.638133809523822
356.348,15.19688
359.144,-2.5252957142857184
361.937,-5.471992380952349
364.729,18.223485238095293
367.518,69.52393142857153
370.306,157.96437428571443
373.091,243.60424571428587
375.874,334.3614761904764
378.656,367.20252380952394
381.435,330.71359047619063
384.212,241.6727047619048
386.988,123.00163333333336
389.761,29.718300000000042
392.532,25.842266666666703
395.301,29.8703047619048
398.068,37.300212876190486
400.833,39.86947116190475
403.596,-7.397529104761934
406.358,-37.236912209523815
409.117,-28.95482481904763
411.874,-27.76076550476193
414.629,-39.10088664761906
417.382,-29.80084142857144
420.133,-23.637186190476164
422.882,23.61484000000007
425.629,81.80057619047626
428.374,156.2902904761906
431.117,201.8842285714287
433.858,249.86013333333347
436.597,229.92540000000014
439.334,206.8360857142858
442.069,159.30183809523817
444.802,135.08065714285723
447.533,116.69401904761914
450.262,162.99725714285725
452.989,170.27504761904774
455.714,210.6703333333335
458.438,235.99320952380964
461.159,205.29285238095247
463.878,165.9053714285715
466.595,154.73802380952387
469.31,113.98481904761913
472.024,107.1739380952382
474.735,129.7860952380953
477.444,124.06465714285723
480.152,143.72978095238105
482.857,180.21601904761914
485.561,178.91100000000012
488.262,180.91714285714295
490.962,189.62257142857152
493.659,188.9394857142858
496.355,158.16170000000005
499.048,120.72592380952386
501.74,101.25977619047626
504.43,110.39054285714298
507.118,140.74617619047632
509.804,187.71620000000013
512.488,197.92890476190487
515.17,222.393142857143
517.85,256.6420952380954
520.528,256.30328571428583
523.204,217.91042857142867
525.878,158.42438095238103
528.551,106.75928571428581
531.221,110.87650476190487
533.89,128.16575238095245
536.556,113.49278095238101
539.221,101.294980952381
541.883,74.34256190476195
544.544,64.73950476190483
547.203,88.58928571428578
549.86,100.1853952380953
552.515,107.67860952380961
555.168,151.21906190476201
557.819,169.19528571428583
560.469,189.80488095238107
563.116,225.81633333333343
565.761,227.33147619047634
568.405,207.8805238095239
571.047,215.56447619047628
573.687,184.91309523809534
576.324,159.9315142857144
578.96,141.05303809523815
581.594,123.52074285714295
584.227,99.57677142857149
586.857,112.51079047619055
589.485,118.51722857142865
592.112,128.02764761904768
594.737,119.75915238095244
597.359,101.7620952380953
599.98,103.94314285714293
602.599,123.39953333333341
605.216,134.41826666666677
607.831,149.952961904762
610.445,148.33743809523816
613.056,111.57210952380959
615.666,104.41902857142864
618.274,114.97298571428581
620.88,129.1853142857144
623.484,177.38834761904775
626.086,214.15170476190488
628.686,220.90238095238107
631.284,236.73342857142876
633.881,259.547142857143
636.476,270.293142857143
639.068,253.01580952380965
641.659,220.6640000000001
644.249,189.3290000000001
646.836,172.05438095238105
649.421,167.16890476190488
652.005,151.33476190476196
654.587,134.9759523809525
657.166,130.46811428571436
659.745,125.47247142857148
662.321,97.12660952380956
664.895,81.66247142857146
667.468,57.97923333333338
670.038,39.30918095238099
672.607,54.02681428571434
675.174,77.88802380952386
677.739,67.31505238095242
680.303,66.06330000000001
682.864,60.17414761904763
685.424,33.35541904761909
687.982,35.791142857142894
690.538,53.99887142857145
693.092,58.40090000000002
695.645,27.752923809523807
698.195,11.620362857142855
700.744,-3.6693442857142973
703.291,-26.16953142857143
705.836,-20.742846190476172
708.38,25.748416190476217
710.921,37.822865238095275
713.461,56.523315238095286
715.999,77.17839047619051
718.535,80.02202857142862
721.069,85.81171428571434
723.602,99.11499047619051
726.133,84.16601904761909
728.662,64.6279047619048
731.189,67.11610476190481
733.714,75.24676190476197
736.238,88.96887619047624
738.759,97.75580952380957
741.279,92.4143047619048
743.798,80.75130952380957
746.314,79.28808095238101
748.829,85.54632857142863
751.342,87.99993809523814
753.853,90.0279428571429
756.362,78.00945714285719
758.869,65.99043333333337
761.375,58.20746190476194
763.879,57.42110000000004
766.381,66.67757619047624
768.882,96.88066666666673
771.38,100.50551428571434
773.877,105.3132190476191
776.372,116.35059047619052
778.866,108.61706666666673
781.357,96.92168571428576
783.847,92.97854761904767
786.335,78.02532380952385
788.821,79.87146190476199
791.306,86.42170952380957
793.789,99.96210952380959
796.27,120.34999523809533
798.749,139.25227619047632
801.227,176.8596142857144
803.702,199.22025714285724
806.176,200.81100000000012
808.649,191.39476190476202
811.119,190.54377142857155
813.588,156.83020000000008
816.055,131.7789714285715
818.521,129.10551428571438
820.984,133.76311428571435
823.446,127.61034285714292
825.906,135.21996190476196
828.365,129.83118095238103
830.821,112.96958571428578
833.276,110.87479047619054
835.729,104.02472857142862
838.181,85.42101428571434
840.631,80.11305238095244
843.079,88.24526190476195
845.525,70.05776190476193
847.97,62.74291904761909
850.412,51.017176190476206
852.854,52.739580952381004
855.293,62.00740000000004
857.731,86.39423809523814
860.167,79.42602380952385
862.601,87.15256190476195
865.034,71.19516190476195
867.465,61.50850952380956
869.894,58.42836666666672
872.321,78.814080952381
874.747,83.00130476190483
877.171,103.08769047619052
879.594,93.4089666666667
882.014,63.63429047619051
884.433,54.05194761904766
886.851,69.14045238095245
889.266,98.47386190476199
891.68,139.00691904761914
894.092,153.12291428571436
896.503,166.5862857142858
898.912,140.7806428571429
901.319,117.47042857142866
903.724,139.94407142857153
906.128,140.4895714285715
908.53,161.87107142857153
910.931,184.32923809523817
913.329,169.39067619047626
915.726,131.29562857142867
918.122,139.4276857142858
920.516,118.40799047619056
922.908,128.85792380952387
925.298,130.8277714285715
927.687,130.32003333333338
930.074,117.14626666666673
932.459,105.49935714285718
934.843,73.7622666666667
937.225,56.50866190476194
939.605,50.12183333333338
941.984,62.889352380952445
944.361,81.33720000000004
946.736,100.13414761904767
949.11,74.32975952380954
951.482,54.54501428571432
953.853,39.49602142857146
956.222,58.61297619047624
958.589,75.56445285714292
960.954,78.68542904761907
963.318,67.12032000000004
965.68,54.68023285714289
968.041,64.98556761904769
970.4,74.56160523809528
972.757,97.31422190476195
975.113,90.72086666666671
977.467,89.87783809523813
979.819,59.26228095238099
982.17,78.58932380952385
984.519,61.47864761904766
986.866,82.69257142857151
989.212,99.08888571428578
991.556,117.90566666666675
993.899,128.0005238095239
996.24,157.65885714285722
998.579,158.8332857142858
1000.92,161.66619047619056
1003.25,141.252580952381
1005.59,115.97289047619054
1007.92,127.77911523809533
1010.25,99.4322985714286
1012.58,87.69415904761911
1014.91,80.99207761904766
1017.24,84.08694000000007
1019.56,85.45430333333341
1021.88,97.99773904761909
1024.2,90.38300000000007
1026.52,99.94247142857152
1028.84,140.1986761904763
1031.16,182.62628095238108
1033.48,224.74803809523823
1035.79,206.1339047619049
1038.1,220.30633333333347
1040.41,230.64490476190494
1042.72,251.76719047619068
1045.03,254.86204761904776
1047.33,257.9758095238097
1049.64,242.53519047619062
1051.94,241.30066666666679
1054.24,242.7942380952382
1056.54,222.72866666666678
1058.84,224.9590476190478
1061.13,212.0077142857144
1063.43,212.82509523809534
1065.72,195.88561904761917
1068.01,192.37800000000013
1070.3,198.7288571428573
1072.59,241.55542857142873
1074.87,247.66547619047634
1077.16,260.77138095238115
1079.44,265.1090952380954
1081.72,259.39128571428586
1084.0,300.47304761904786
1086.28,379.82885714285743
1088.56,477.07576190476226
1090.84,607.5929523809529
1093.11,709.7115238095242
1095.38,719.1443333333337
1097.65,663.3654761904766
1099.92,556.5159047619051
1102.19,471.59371428571455
1104.46,406.59723809523837
1106.72,390.42928571428604
1108.98,411.94542857142886
1111.24,442.33423809523845
1113.5,485.0229047619051
1115.76,552.295047619048
1118.02,586.3869523809527
1120.28,599.1068571428574
1122.53,569.9289523809526
1124.78,505.13766666666686
1127.03,423.30295238095255
1129.28,351.2328095238097
1131.53,312.02085714285727
1133.77,270.0946666666668
1136.02,231.54776190476204
1138.26,207.0932380952382
1140.5,197.7296666666668
1142.74,223.36095238095257
1144.98,281.0807619047621
1147.22,278.5073333333335
1149.45,271.87785714285724
1151.69,248.5723809523811
1153.92,220.11361904761918
1156.15,205.21533333333343
1158.38,211.20995238095247
1160.61,186.66819047619057
1162.83,176.35149523809534
1165.06,153.21169523809533
1167.28,113.48619047619053
1169.5,81.31795238095243
1171.72,80.7064571428572
1173.94,90.79448571428578
1176.16,112.67721904761912
1178.37,109.44989047619052
1180.58,93.49352857142863
1182.8,77.85613809523814
1185.01,50.823380952380965
1187.22,28.25313809523811
1189.42,30.90768095238097
1191.63,14.50198095238096
1193.84,9.46529523809525
1196.04,32.6556323809524
1198.24,29.93103380952383
1200.44,13.054416190476212
1202.64,50.7888728571429
1204.84,60.897403809523844
1207.03,59.47647571428577
1209.23,92.52740190476194
1211.42,78.09914571428573
1213.61,45.09788380952385
1215.8,57.334672380952405
1217.99,47.19187904761907
1220.18,33.43297428571431
1222.36,28.630943333333335
1224.55,20.406460095238117
1226.73,18.380197000000013
1228.91,13.363330904761916
1231.09,21.88140061904764
1233.27,31.84089185714288
1235.44,35.91019938095242
1237.62,61.37682842857147
1239.79,69.24258904761908
1241.96,69.27121428571434
1244.13,74.32168571428576
1246.3,83.20527619047625
1248.47,106.20977619047628
1250.64,122.14650000000007
1252.8,153.58890952380963
1254.96,190.15780952380962
1257.13,205.42661904761923
1259.29,256.2065714285716
1261.44,274.7379523809525
1263.6,268.92761904761926
1265.76,263.0634285714287
1267.91,226.67085714285724
1270.06,172.275761904762
1272.22,158.59442857142867
1274.37,129.86690476190486
1276.51,130.85742857142864
1278.66,133.7583333333334
1280.81,124.85714285714292
1282.95,114.29890476190482
1285.09,114.41901904761912
1287.23,104.21940000000008
1289.37,125.74965714285723
1291.51,130.20225238095244
1293.65,113.38876190476198
1295.78,103.64474761904766
1297.92,93.16247619047623
1300.05,71.51532380952386
1302.18,68.32418095238098
1304.31,74.40078571428577
1306.44,85.36585714285722
1308.57,100.45955714285721
1310.69,122.77898095238103
1312.82,126.6117714285715
1314.94,145.57904761904774
1317.06,168.87309523809535
1319.18,176.78128571428581
1321.3,179.78171428571443
1323.41,194.06671428571443
1325.53,219.49500000000018
1327.64,284.73514285714305
1329.75,315.07452380952395
1331.87,304.13380952380976
1333.98,299.2480952380954
1336.08,261.6097142857144
1338.19,249.3153809523811
1340.3,254.31876190476208
1342.4,235.52661904761916
1344.5,219.27314285714297
1346.6,208.84600952380958
1348.7,163.1990571428572
1350.8,134.28608571428578
1352.9,92.63196190476194
1354.99,64.47648571428577
1357.09,69.01108571428578
1359.18,98.85619047619058
1361.27,147.39401904761917
1363.36,180.29220952380962
1365.45,168.69500000000008
1367.54,169.6985714285715
1369.62,152.827761904762
1371.7,171.13100000000014
1373.79,209.03785714285726
1375.87,242.02528571428587
1377.95,256.3326190476192
1380.03,260.0556190476192
1382.1,241.528142857143
1384.18,202.89366666666677
1386.25,178.86714285714297
1388.33,160.5920952380953
1390.4,149.8786857142858
1392.47,124.06040000000006
1394.54,96.66127142857147
1396.6,51.25296190476194
1398.67,41.550257142857184
1400.74,44.41042380952386
1402.8,72.16696666666671
1404.86,84.39117619047623
1406.92,93.46401904761909
1408.98,82.67107619047623
1411.04,66.77407142857146
1413.09,61.344142857142906
1415.15,62.523876190476244
1417.2,86.1698857142858
1419.25,108.56752380952386
1421.3,113.95431904761911
1423.35,85.75823333333338
1425.4,79.83564761904766
1427.45,64.61436380952385
1429.49,54.188647142857164
1431.54,36.98621333333336
1433.58,47.48204333333336
1435.62,41.627580000000044
1437.66,60.18350904761909
1439.7,84.52930190476195
1441.74,82.94947619047622
1443.77,76.34733238095242
1445.81,61.76879428571431
1447.84,50.83144095238099
1449.87,40.819215238095275
1451.9,52.44441238095242
1453.93,60.514918095238144
1455.96,82.74297523809527
1457.98,90.41234285714292
1460.01,98.37812380952387
1462.03,110.20949047619055
1464.05,129.3328857142858
1466.07,154.31751428571442
1468.09,176.82787619047633
1470.11,205.67087619047632
1472.13,233.51104761904776
1474.14,270.01219047619065
1476.16,292.93409523809544
1478.17,293.75028571428584
1480.18,259.839380952381
1482.19,223.24609523809536
1484.2,190.15885714285724
1486.21,166.66985714285724
1488.21,149.58655238095244
1490.22,138.47736666666674
1492.22,114.53015714285718
1494.22,81.98033809523814
1496.22,60.87308761904765
1498.22,36.01513761904764
1500.22,29.261275238095266
1502.22,33.846859523809535
1504.21,21.57888666666667
1506.21,15.835755714285739
1508.2,23.47210476190478
1510.19,36.72355142857146
1512.18,32.968597142857156
1514.17,41.395350476190494
1516.16,36.001453333333345
1518.14,23.022720952380954
1520.13,4.3141228571428725
1522.11,18.58781142857144
1524.09,24.936939047619088
1526.07,53.07387714285718
1528.05,66.28243809523812
1530.03,52.41798571428573
1532.01,41.859776190476225
1533.98,39.653785714285746
1535.96,53.46507142857148
1537.93,68.768380952381
1539.9,70.65753809523814
1541.87,72.27406666666671
1543.84,62.092895238095274
1545.81,70.58919047619054
1547.78,77.76164761904768
1549.74,108.46642857142865
1551.7,123.1786095238096
1553.67,150.0878857142858
1555.63,133.24095238095245
1557.59,132.58979047619053
1559.55,113.3236857142858
1561.5,120.44220000000008
1563.46,141.08745714285726
1565.41,179.4018857142858
1567.37,181.52790476190484
1569.32,163.13195238095247
1571.27,139.30852380952388
1573.22,120.15271428571435
1575.17,114.99757142857149
1577.11,139.27161904761914
1579.06,154.06995238095246
1581.0,163.9639523809525
1582.95,168.14371428571437
1584.89,154.79995238095248
1586.83,145.55171428571438
1588.77,143.7800476190477
1590.7,152.34228571428582
1592.64,153.90528571428578
1594.58,150.5642857142858
1596.51,163.77214285714308
1598.44,207.6958571428575
