Raman Shift,Processed Intensity
331.095,43.04997476190429
333.909,-26.171330000000474
336.721,-21.613062857143284
339.531,21.682716190476235
342.339,58.00703428571431
345.145,67.36550095238097
347.949,35.90761428571428
350.751,22.736011428571445
353.55,10.096968571428581
356.348,14.904375238095257
359.144,18.406269523809534
361.937,28.137337142857152
364.729,13.585559047619093
367.518,58.525816190476284
370.306,134.92420476190492
373.091,257.843004761905
375.874,355.4408095238098
378.656,393.73487619047637
381.435,328.266761904762
384.212,208.00808571428576
386.988,105.64562857142862
389.761,34.48633333333335
392.532,8.743223809523833
395.301,8.154685714285709
398.068,-14.444938095238111
400.833,-19.219778095238087
403.596,-5.761254761904767
406.358,-1.611813809523799
409.117,2.6397938095237965
411.874,-19.78434142857146
414.629,-29.089386190476176
417.382,8.47320714285718
420.133,28.748487619047662
422.882,62.201847619047676
425.629,99.15705238095246
428.374,153.31992380952394
431.117,213.5403333333335
433.858,278.28800952380965
436.597,279.9387142857144
439.334,228.4407142857144
442.069,194.40971428571441
444.802,185.27209523809535
447.533,180.97833333333347
450.262,224.28928571428588
452.989,262.87185714285727
455.714,261.822142857143
458.438,250.23635238095247
461.159,194.688261904762
463.878,136.37057142857148
466.595,87.57223333333339
469.31,78.10670476190484
472.024,73.78780476190482
474.735,79.76271428571435
477.444,81.79880000000007
480.152,106.75863809523817
482.857,128.98125714285723
485.561,148.04459047619056
488.262,163.05014285714296
490.962,160.24319047619053
493.659,143.8690095238096
496.355,133.26817619047625
499.048,124.44786666666674
501.74,96.32100476190482
504.43,110.99019047619055
507.118,102.27342380952389
509.804,138.7502761904763
512.488,174.42860952380966
515.17,218.79256190476204
517.85,252.85071428571442
520.528,255.8014285714287
523.204,211.79588571428582
525.878,163.36631428571434
528.551,117.42536190476197
531.221,88.55238095238101
533.89,85.89822380952388
536.556,88.04202857142863
539.221,98.56289047619055
541.883,107.23032380952391
544.544,132.14681428571438
547.203,153.8434857142858
549.86,155.70823809523816
552.515,162.12890476190483
555.168,146.54061904761915
557.819,160.759142857143
560.469,177.0762380952382
563.116,185.49809523809532
565.761,193.07800000000015
568.405,190.9638095238096
571.047,172.7799047619049
573.687,167.34061904761916
576.324,141.93604761904766
578.96,117.57061904761912
581.594,94.29580952380957
584.227,89.30545714285722
586.857,91.22231428571436
589.485,104.66839047619055
592.112,111.40816190476198
594.737,130.96815238095246
597.359,119.54088571428578
599.98,123.31855238095245
602.599,119.58852380952389
605.216,137.35166666666677
607.831,158.99000000000012
610.445,165.36124285714294
613.056,146.94191428571435
615.666,111.30330000000006
618.274,89.58836190476197
620.88,85.17695714285722
623.484,99.63999047619055
626.086,139.69053333333343
628.686,166.27945714285727
631.284,200.83390476190488
633.881,226.78061904761915
636.476,222.49800000000013
639.068,214.12647619047635
641.659,227.6636190476192
644.249,210.48714285714297
646.836,194.68986666666677
649.421,170.9826523809524
652.005,107.83826190476194
654.587,54.30063809523813
657.166,20.651980952380967
659.745,15.840600000000036
662.321,39.33912380952386
664.895,72.1909666666667
667.468,67.39206190476193
670.038,61.84304761904764
672.607,34.44449523809527
675.174,45.3824952380953
677.739,66.93861428571434
680.303,84.77517619047624
682.864,103.26883333333339
685.424,88.46288190476193
687.982,44.54349142857144
690.538,22.411016190476197
693.092,9.20421809523813
695.645,29.91888285714291
698.195,73.5032866666667
700.744,71.62004047619048
703.291,49.07469857142857
705.836,15.10146428571428
708.38,-9.636830952380945
710.921,-7.143915714285698
713.461,16.671771904761925
715.999,22.711448571428583
718.535,35.44779238095241
721.069,53.49646190476194
723.602,56.99698095238098
726.133,72.8032590476191
728.662,66.62641142857144
731.189,50.987146666666696
733.714,40.358607619047646
736.238,44.02355142857145
738.759,41.12194000000004
741.279,53.46045428571432
743.798,75.8459095238096
746.314,93.46601428571435
748.829,103.84199047619055
751.342,94.16171428571433
753.853,76.04177142857145
756.362,49.8606428571429
758.869,59.04462857142861
761.375,56.067523809523856
763.879,82.1177190476191
766.381,79.95485238095243
768.882,77.3863666666667
771.38,60.3625904761905
773.877,43.2149285714286
776.372,49.22728095238101
778.866,77.44545238095243
781.357,82.01049523809529
783.847,89.34929523809528
786.335,72.17451428571432
788.821,66.91314285714293
791.306,100.89729523809531
793.789,105.88721428571436
796.27,121.83409047619057
798.749,133.97465238095245
801.227,135.68875238095248
803.702,139.35604285714297
806.176,160.64225714285723
808.649,157.68914285714297
811.119,168.16252380952392
813.588,170.77600000000012
816.055,191.67161904761917
818.521,192.03919047619058
820.984,183.21129523809532
823.446,161.90160000000006
825.906,128.15715238095243
828.365,87.69200000000005
830.821,100.07694285714294
833.276,109.21679047619055
835.729,128.82554285714298
838.181,142.71246666666676
840.631,147.2586952380953
843.079,121.55924761904768
845.525,117.42364761904768
847.97,89.94737142857147
850.412,80.1781952380953
852.854,82.11655238095244
855.293,96.95323333333339
857.731,92.92665238095243
860.167,88.846880952381
862.601,85.52414761904768
865.034,81.38749523809528
867.465,66.00927142857147
869.894,66.1994904761905
872.321,51.34015238095242
874.747,58.14636666666672
877.171,78.04780000000005
879.594,119.04571904761913
882.014,122.52194285714293
884.433,139.62069523809532
886.851,154.533761904762
889.266,160.21485714285723
891.68,151.3795238095239
894.092,154.79171428571436
896.503,137.3572857142858
898.912,119.7448095238096
901.319,146.52721904761913
903.724,138.18264761904766
906.128,131.76058095238102
908.53,125.73937142857147
910.931,99.83512380952385
913.329,102.81198095238105
915.726,133.95761904761912
918.122,120.89349047619054
920.516,118.14568571428576
922.908,114.47865238095244
925.298,87.46622857142864
927.687,94.25390476190482
930.074,86.36807619047623
932.459,69.14476666666673
934.843,75.11051428571434
937.225,87.12539047619052
939.605,84.8589428571429
941.984,78.98084761904765
944.361,56.58942380952383
946.736,43.16403333333336
949.11,38.4699142857143
951.482,13.081714285714282
953.853,-0.5685904761904643
956.222,1.8557904761904958
958.589,38.406071428571494
960.954,86.56200857142863
963.318,105.04156714285716
965.68,72.37230428571429
968.041,46.51033952380954
970.4,13.078534761904791
972.757,28.271204285714322
975.113,41.66351476190478
977.467,49.021146666666695
979.819,42.72878895238097
982.17,30.790183238095242
984.519,21.11379028571431
986.866,23.417510095238114
989.212,41.60971409523815
991.556,60.360573714285756
993.899,89.29260800000006
996.24,89.4091571428572
998.579,104.04676190476196
1000.92,98.97057619047624
1003.25,103.99322666666671
1005.59,67.92720285714287
1007.92,61.96583904761908
1010.25,48.82610190476194
1012.58,55.27241047619052
1014.91,66.11679333333338
1017.24,67.26625047619049
1019.56,55.389557142857186
1021.88,50.679052380952406
1024.2,54.850952380952435
1026.52,81.3353476190477
1028.84,113.60979047619054
1031.16,119.43735714285722
1033.48,132.914180952381
1035.79,103.75555238095245
1038.1,104.00989523809534
1040.41,142.24916190476202
1042.72,181.56901904761918
1045.03,218.49364761904775
1047.33,216.30852857142864
1049.64,173.0137142857144
1051.94,120.51367619047625
1054.24,105.85560000000007
1056.54,88.18202857142863
1058.84,100.92087619047625
1061.13,86.92855238095242
1063.43,92.4421714285715
1065.72,104.93710000000009
1068.01,119.2692333333334
1070.3,121.15175714285724
1072.59,137.63065238095245
1074.87,133.84737142857153
1077.16,162.94323333333347
1079.44,163.72630476190486
1081.72,158.05176190476203
1084.0,205.15600000000018
1086.28,292.5131428571431
1088.56,401.78766666666695
1090.84,554.4539047619052
1093.11,624.9857619047623
1095.38,651.571190476191
1097.65,608.7794761904764
1099.92,505.98923809523836
1102.19,403.91219047619074
1104.46,339.83161904761926
1106.72,317.0781904761907
1108.98,343.17285714285737
1111.24,376.20838095238116
1113.5,397.70576190476214
1115.76,422.2336190476193
1118.02,419.7888571428574
1120.28,444.9878095238098
1122.53,457.39914285714315
1124.78,450.6390000000002
1127.03,379.5137619047621
1129.28,302.49666666666684
1131.53,233.29871428571442
1133.77,191.58390476190488
1136.02,170.396761904762
1138.26,161.4962857142858
1140.5,139.8794285714287
1142.74,162.1619523809525
1144.98,202.29314285714298
1147.22,218.93685714285726
1149.45,220.42304761904774
1151.69,198.41580952380963
1153.92,170.29295238095247
1156.15,149.57509523809532
1158.38,134.2593428571429
1160.61,116.00961428571435
1162.83,97.25150000000006
1165.06,84.22040952380956
1167.28,93.38942380952386
1169.5,83.47017619047622
1171.72,76.50762857142861
1173.94,57.7371666666667
1176.16,57.72756666666671
1178.37,66.00009523809528
1180.58,83.17115714285717
1182.8,73.42891333333336
1185.01,53.866234761904764
1187.22,23.43314095238097
1189.42,15.508341428571452
1191.63,24.80399428571431
1193.84,31.222795238095255
1196.04,17.000853333333335
1198.24,24.183949047619073
1200.44,29.43687333333336
1202.64,48.75796523809528
1204.84,69.43135333333338
1207.03,70.83656666666668
1209.23,40.01991904761907
1211.42,36.02788095238097
1213.61,29.049785714285736
1215.8,21.03712857142858
1217.99,17.560563619047624
1220.18,7.524245047619045
1222.36,-1.5484860952380815
1224.55,8.532551142857162
1226.73,26.290999619047636
1228.91,33.72691076190478
1231.09,35.269029809523815
1233.27,13.346231904761908
1235.44,12.863728095238121
1237.62,28.39358809523813
1239.79,45.888954761904806
1241.96,63.969756666666704
1244.13,75.35149809523814
1246.3,84.55896190476197
1248.47,108.64112380952386
1250.64,117.69478571428579
1252.8,129.38786666666675
1254.96,147.67466666666678
1257.13,171.17604761904775
1259.29,199.98928571428587
1261.44,217.73538095238106
1263.6,212.36890476190487
1265.76,211.27280952380966
1267.91,205.0209047619049
1270.06,169.71090476190483
1272.22,145.20266666666674
1274.37,134.49866666666674
1276.51,138.26819047619057
1278.66,146.6095238095239
1280.81,155.81066666666675
1282.95,140.58942857142867
1285.09,137.23414285714296
1287.23,144.1288571428572
1289.37,148.13376190476203
1291.51,142.442761904762
1293.65,138.01100000000008
1295.78,132.36600000000007
1297.92,129.46314285714294
1300.05,136.68695238095248
1302.18,129.85019047619053
1304.31,119.19442857142863
1306.44,124.10407619047629
1308.57,120.43957619047626
1310.69,119.3950095238096
1312.82,120.68813809523817
1314.94,138.3702000000001
1317.06,167.5873380952382
1319.18,208.4860761904763
1321.3,207.26042857142866
1323.41,206.43804761904772
1325.53,203.87933333333348
1327.64,211.92128571428586
1329.75,241.32895238095253
1331.87,265.01071428571447
1333.98,279.30342857142875
1336.08,281.87733333333347
1338.19,275.16423809523826
1340.3,250.50095238095253
1342.4,216.9860476190477
1344.5,189.76571428571438
1346.6,172.46207619047627
1348.7,135.93567142857154
1350.8,122.42758095238102
1352.9,124.08404285714292
1354.99,125.33658095238103
1357.09,116.66433809523815
1359.18,116.40360000000005
1361.27,111.03347619047625
1363.36,117.69933333333343
1365.45,145.68980952380963
1367.54,163.9120000000001
1369.62,153.1779523809525
1371.7,174.8713809523811
1373.79,200.51828571428587
1375.87,246.45419047619066
1377.95,276.39580952380965
1380.03,275.20200000000017
1382.1,237.87461904761918
1384.18,201.3203333333334
1386.25,173.44577809523818
1388.33,137.58567571428577
1390.4,86.4083085714286
1392.47,65.01013380952385
1394.54,48.86843714285719
1396.6,54.5080471428572
1398.67,78.35877333333337
1400.74,77.56401904761908
1402.8,72.0768571428572
1404.86,77.56438571428575
1406.92,64.21745952380955
1408.98,43.51243809523811
1411.04,33.306540476190506
1413.09,39.45684285714289
1415.15,44.05828809523813
1417.2,60.82477142857146
1419.25,64.99384476190478
1421.3,41.136218571428586
1423.35,53.86994666666671
1425.4,54.57512666666669
1427.45,46.917213333333365
1429.49,40.7996923809524
1431.54,38.411582857142875
1433.58,22.132264285714324
1435.62,53.245433333333374
1437.66,67.60660000000004
1439.7,76.40420000000005
1441.74,93.11238095238102
1443.77,86.77643333333336
1445.81,73.20354761904765
1447.84,66.81968571428574
1449.87,50.24148095238097
1451.9,19.132921428571443
1453.93,18.348500000000016
1455.96,27.9328928571429
1457.98,54.12130952380958
1460.01,85.48206904761912
1462.03,116.01245238095245
1464.05,121.99507619047627
1466.07,139.95038095238107
1468.09,179.11338095238108
1470.11,210.05200000000013
1472.13,242.1438095238097
1474.14,260.8619523809525
1476.16,254.3936190476192
1478.17,229.4495238095239
1480.18,219.74080952380967
1482.19,196.74000952380962
1484.2,174.30067619047628
1486.21,124.895480952381
1488.21,81.71149523809527
1490.22,48.60240952380956
1492.22,30.088673809523836
1494.22,41.88114761904766
1496.22,46.2143404761905
1498.22,47.4182047619048
1500.22,61.394073809523846
1502.22,62.852914285714306
1504.21,45.60089523809526
1506.21,46.444242857142875
1508.2,44.57016666666671
1510.19,39.21350952380955
1512.18,64.56153809523813
1514.17,54.75405238095241
1516.16,66.31178952380957
1518.14,61.27936571428574
1520.13,48.463374285714295
1522.11,22.9085104761905
1524.09,31.659550476190493
1526.07,20.618570476190506
1528.05,55.06860380952384
1530.03,55.10234
1532.01,28.66964952380953
1533.98,26.625294285714308
1535.96,33.87170285714289
1537.93,44.64480857142863
1539.9,82.32347809523814
1541.87,88.76292571428576
1543.84,86.4372428571429
1545.81,88.01156190476195
1547.78,86.96027619047625
1549.74,103.23419047619056
1551.7,139.83179047619058
1553.67,155.6088333333334
1555.63,162.80209523809532
1557.59,146.02952380952388
1559.55,149.57566666666676
1561.5,155.3439523809525
1563.46,171.57171428571436
1565.41,165.5910952380953
1567.37,162.16366666666676
1569.32,141.52657142857151
1571.27,149.3460000000001
1573.22,143.430761904762
1575.17,148.63742857142864
1577.11,135.77514285714292
1579.06,159.6531904761906
1581.0,162.60457142857155
1582.95,158.53400000000008
1584.89,153.10804761904774
1586.83,169.85004761904773
1588.77,165.28433333333345
1590.7,181.60106666666675
1592.64,158.08637619047624
1594.58,116.76420952380977
1596.51,116.77751666666717
1598.44,199.29308095238216
