Raman Shift,Processed Intensity
331.095,50.74042380952362
333.909,36.23270000000001
336.721,40.92792857142862
339.531,51.61870952380956
342.339,30.049761904761922
345.145,52.56140952380953
347.949,27.11398571428572
350.751,13.525780952380961
353.55,10.234833333333341
356.348,15.63250504761905
359.144,-7.460402809523794
361.937,16.44426104761908
364.729,42.21682519047626
367.518,88.82379914285725
370.306,163.94677814285728
373.091,280.3634145714288
375.874,365.8999523809526
378.656,395.2409523809525
381.435,352.64351352380964
384.212,236.55638209523818
386.988,117.04827371428577
389.761,45.90305980952383
392.532,-6.1418119999999945
395.301,-6.823608380952358
398.068,1.3593754285714257
400.833,11.81502380952384
403.596,21.000019047619045
406.358,27.562747619047627
409.117,0.3909001904761924
411.874,6.373480666666661
414.629,-29.55162914285716
417.382,-6.588343523809499
420.133,3.679904190476229
422.882,49.38527590476198
425.629,114.27970019047629
428.374,189.21189523809537
431.117,243.4123523809525
433.858,266.1124000000001
436.597,234.97333333333344
439.334,179.51476190476197
442.069,128.97071428571437
444.802,102.86280952380963
447.533,144.8554761904763
450.262,190.61414285714298
452.989,220.23357142857154
455.714,228.99980952380963
458.438,200.6277238095239
461.159,150.02411428571435
463.878,118.14339523809531
466.595,108.27419047619053
469.31,71.84831904761909
472.024,59.15526666666671
474.735,71.15165238095244
477.444,81.84207619047626
480.152,118.37451428571438
482.857,142.0404095238096
485.561,150.32161904761915
488.262,156.22423809523818
490.962,151.80252380952388
493.659,136.25323809523815
496.355,128.96452380952388
499.048,107.32466666666673
501.74,111.43600000000006
504.43,113.06773809523814
507.118,104.84676190476199
509.804,124.73269047619057
512.488,152.59076190476202
515.17,185.71454761904775
517.85,215.96909523809535
520.528,208.26712380952387
523.204,172.28309047619055
525.878,122.54840476190483
528.551,101.64221428571437
531.221,117.81042380952391
533.89,151.06090000000012
536.556,153.591680952381
539.221,131.98140000000004
541.883,102.3804095238096
544.544,62.46212380952385
547.203,77.18615238095245
549.86,97.70213333333338
552.515,105.63569523809532
555.168,120.85021904761913
557.819,144.68571428571437
560.469,136.81427619047628
563.116,153.05156190476202
565.761,170.02185714285721
568.405,173.54023809523818
571.047,196.3732380952382
573.687,177.66873809523815
576.324,146.62142857142865
578.96,120.99745238095245
581.594,103.65750000000006
584.227,100.60541428571437
586.857,106.1298666666667
589.485,99.66227619047625
592.112,92.82470000000006
594.737,97.33358095238101
597.359,96.95265714285722
599.98,116.82676190476197
602.599,125.81437619047628
605.216,168.1543523809525
607.831,196.32385714285726
610.445,195.51357142857154
613.056,192.58052380952392
615.666,162.1916190476191
618.274,148.4892380952382
620.88,141.32938095238103
623.484,148.32995238095248
626.086,143.20366666666678
628.686,172.3299523809525
631.284,177.89752380952393
633.881,223.80861904761917
636.476,235.91790476190494
639.068,257.22240000000016
641.659,217.52868571428584
644.249,193.40513333333342
646.836,151.562361904762
649.421,145.28237142857154
652.005,138.65666666666675
654.587,129.77622857142862
657.166,98.20832857142862
659.745,88.85339047619051
662.321,64.84980238095241
664.895,36.43123047619048
667.468,12.259628095238087
670.038,-7.5744914285714104
672.607,6.447919523809556
675.174,42.56020857142862
677.739,75.75756380952386
680.303,84.41614000000003
682.864,63.95972857142859
685.424,46.6692904761905
687.982,43.15915238095241
690.538,35.281723809523825
693.092,27.175226190476202
695.645,13.78747619047619
698.195,3.4473214285714446
700.744,16.150380952380985
703.291,45.17807380952384
705.836,33.14520952380953
708.38,30.71440476190478
710.921,28.072190476190503
713.461,43.738480952380996
715.999,54.13811428571431
718.535,55.838933333333365
721.069,62.21819047619054
723.602,76.3679714285715
726.133,109.33241904761914
728.662,127.87033809523814
731.189,97.40716190476195
733.714,89.60677142857149
736.238,102.13239047619052
738.759,97.79103809523818
741.279,113.57954285714293
743.798,123.25763333333337
746.314,103.77490952380958
748.829,101.22430952380957
751.342,85.84119047619052
753.853,58.33766190476193
756.362,51.5684190476191
758.869,64.86500000000004
761.375,65.41556190476193
763.879,53.17055238095241
766.381,51.270933333333375
768.882,57.23870476190481
771.38,74.69116666666672
773.877,81.19812380952385
776.372,80.13893809523813
778.866,69.70262857142862
781.357,68.64970476190481
783.847,64.78840952380956
786.335,75.30792857142862
788.821,85.58821428571434
791.306,107.15187619047626
793.789,109.04558095238102
796.27,114.41152380952387
798.749,107.77238571428579
801.227,107.65127619047627
803.702,120.28609047619057
806.176,136.86644761904768
808.649,147.2490000000001
811.119,159.1478095238096
813.588,157.41957142857152
816.055,153.15947619047628
818.521,160.46265714285724
820.984,149.75759047619056
823.446,136.4727952380953
825.906,111.0369714285715
828.365,94.68864285714294
830.821,109.33280952380959
833.276,124.30309047619055
835.729,127.88583809523816
838.181,131.84347619047625
840.631,127.74792857142864
843.079,105.59995238095244
845.525,107.49550000000005
847.97,109.29277142857148
850.412,103.04040285714291
852.854,86.21569571428574
855.293,61.62920571428574
857.731,43.23457000000005
860.167,42.08065714285717
862.601,32.597484285714295
865.034,28.88172761904763
867.465,33.6970647619048
869.894,44.4735371428572
872.321,89.40323238095243
874.747,110.58339047619052
877.171,99.34926190476196
879.594,99.89325238095243
882.014,90.5034428571429
884.433,87.18159047619054
886.851,75.1205190476191
889.266,88.75111428571437
891.68,108.36154285714295
894.092,135.95422857142864
896.503,139.29318095238102
898.912,143.33327619047625
901.319,127.22028571428581
903.724,127.62314285714294
906.128,136.68754285714294
908.53,130.27328095238101
910.931,128.04951428571437
913.329,135.87637619047626
915.726,119.70890952380958
918.122,104.07350000000008
920.516,109.7824714285715
922.908,106.55295714285721
925.298,92.72128571428577
927.687,98.62360000000004
930.074,69.26256190476195
932.459,66.02196666666673
934.843,76.23797142857147
937.225,75.10387142857147
939.605,79.38426285714291
941.984,75.32011285714287
944.361,55.24749714285718
946.736,51.312015714285735
949.11,38.37354000000002
951.482,27.815650952381
953.853,53.1170866666667
956.222,67.99492857142862
958.589,80.3088190476191
960.954,107.48970476190482
963.318,107.63554285714291
965.68,86.65353809523813
968.041,62.73665238095241
970.4,42.93499523809527
972.757,22.441323809523837
975.113,36.591123809523836
977.467,46.52975714285716
979.819,37.21180000000001
982.17,16.115709523809524
984.519,17.14842380952383
986.866,15.597776190476223
989.212,44.46602857142863
991.556,77.8027047619048
993.899,98.99077142857148
996.24,84.98457142857148
998.579,94.40506190476196
1000.92,106.6825333333334
1003.25,105.96181904761909
1005.59,97.76823333333337
1007.92,70.24620000000002
1010.25,39.778119047619086
1012.58,45.84152857142862
1014.91,65.38992190476195
1017.24,54.376848095238124
1019.56,54.75564380952383
1021.88,33.05099000000003
1024.2,41.12053428571434
1026.52,63.39363380952386
1028.84,89.442040952381
1031.16,127.12345238095249
1033.48,169.00949523809533
1035.79,165.86192857142868
1038.1,178.6805714285715
1040.41,175.9892857142858
1042.72,187.4546190476192
1045.03,211.88581904761915
1047.33,192.9015095238096
1049.64,155.59606666666676
1051.94,144.44506190476199
1054.24,141.16217142857153
1056.54,137.07987619047628
1058.84,139.72093333333342
1061.13,129.65577619047627
1063.43,118.93063809523817
1065.72,139.3066523809525
1068.01,152.54434285714294
1070.3,164.69009523809532
1072.59,184.0757142857144
1074.87,191.36619047619058
1077.16,189.84552380952394
1079.44,201.75042857142867
1081.72,217.17438095238114
1084.0,264.8302857142859
1086.28,345.90638095238126
1088.56,451.35323809523845
1090.84,593.0260000000004
1093.11,688.0176190476195
1095.38,718.1359047619051
1097.65,648.8551428571432
1099.92,552.3157619047621
1102.19,443.5157619047621
1104.46,390.3574761904764
1106.72,378.410285714286
1108.98,377.5765238095241
1111.24,395.9492380952384
1113.5,445.24028571428596
1115.76,484.30442857142884
1118.02,510.0439523809527
1120.28,524.9327619047622
1122.53,496.920666666667
1124.78,469.71957142857167
1127.03,414.0889523809526
1129.28,332.45495238095253
1131.53,264.8151904761906
1133.77,214.59533333333343
1136.02,186.2218571428573
1138.26,188.40633333333344
1140.5,195.2416666666668
1142.74,181.86828571428583
1144.98,218.23600000000013
1147.22,228.53252380952395
1149.45,229.08914285714303
1151.69,212.76014285714297
1153.92,199.4484761904763
1156.15,177.00866666666678
1158.38,183.6284761904763
1160.61,167.25828571428582
1162.83,168.03858095238104
1165.06,133.3002047619048
1167.28,95.94602380952385
1169.5,59.021228571428594
1171.72,34.809266666666694
1173.94,30.212904761904813
1176.16,71.2301333333334
1178.37,90.9064428571429
1180.58,82.57315714285717
1182.8,68.99025238095241
1185.01,49.44156190476192
1187.22,34.49649047619051
1189.42,30.058414285714303
1191.63,30.12542857142859
1193.84,28.02927619047622
1196.04,35.81599523809526
1198.24,48.10321428571432
1200.44,63.46099523809527
1202.64,53.88809523809527
1204.84,62.38337142857148
1207.03,71.75532380952384
1209.23,50.669714285714306
1211.42,34.07818571428573
1213.61,27.313452380952384
1215.8,3.041690476190488
1217.99,-0.546942857142855
1220.18,1.166434761904757
1222.36,-11.246753333333329
1224.55,0.40413380952383626
1226.73,29.35749142857146
1228.91,58.185197619047656
1231.09,58.8878842857143
1233.27,48.894840952380974
1235.44,34.96882428571432
1237.62,46.30142761904767
1239.79,68.84602809523815
1241.96,91.93723047619054
1244.13,103.95733809523816
1246.3,114.90796666666675
1248.47,117.12391428571438
1250.64,146.2261380952382
1252.8,166.69241904761915
1254.96,181.42947619047632
1257.13,212.01080952380966
1259.29,224.7244285714287
1261.44,199.57219047619057
1263.6,200.65195238095248
1265.76,194.82309523809536
1267.91,180.8499523809525
1270.06,166.8303333333334
1272.22,146.95747619047626
1274.37,128.6148095238096
1276.51,142.13857142857154
1278.66,157.81704761904774
1280.81,159.41509523809532
1282.95,148.8405714285715
1285.09,137.47714285714292
1287.23,123.37580952380962
1289.37,124.20590476190485
1291.51,135.30401904761914
1293.65,127.7209714285715
1295.78,134.26951428571437
1297.92,128.4764571428572
1300.05,122.58341904761913
1302.18,123.83140000000009
1304.31,133.98587619047623
1306.44,126.19252380952388
1308.57,120.83590476190483
1310.69,116.72885714285724
1312.82,144.58904761904773
1314.94,160.13390476190486
1317.06,188.60509523809537
1319.18,216.57690476190487
1321.3,219.9576666666668
1323.41,241.2744285714287
1325.53,264.6731904761906
1327.64,266.34771428571446
1329.75,257.9679047619049
1331.87,251.96533333333352
1333.98,251.96214285714305
1336.08,277.4855714285716
1338.19,296.53852380952395
1340.3,285.5051904761906
1342.4,237.3405714285715
1344.5,185.85714285714295
1346.6,154.48633333333345
1348.7,142.75494285714294
1350.8,123.5703714285715
1352.9,124.17340952380961
1354.99,128.18562857142865
1357.09,123.70464761904772
1359.18,145.4473714285715
1361.27,151.4163714285715
1363.36,140.70885714285725
1365.45,153.04166666666677
1367.54,171.13114285714298
1369.62,177.4074761904763
1371.7,183.9679047619049
1373.79,187.90971428571441
1375.87,216.71052380952398
1377.95,248.94380952380968
1380.03,258.61071428571444
1382.1,240.37914285714294
1384.18,177.8220000000001
1386.25,135.32114285714295
1388.33,114.54452380952388
1390.4,131.6357838095239
1392.47,108.50020047619051
1394.54,81.32899619047622
1396.6,63.74170428571433
1398.67,48.595472380952415
1400.74,46.08126238095243
1402.8,65.19882190476193
1404.86,65.42426190476195
1406.92,54.18580952380956
1408.98,66.62580952380956
1411.04,65.26741428571434
1413.09,67.68123809523814
1415.15,76.77122857142864
1417.2,105.77438095238102
1419.25,107.59409047619053
1421.3,86.7052523809524
1423.35,81.77287619047624
1425.4,68.46220952380958
1427.45,72.34312857142864
1429.49,84.79477142857147
1431.54,87.52937619047623
1433.58,70.25925238095243
1435.62,67.17260952380957
1437.66,60.4578666666667
1439.7,61.39841428571431
1441.74,47.94426190476193
1443.77,42.90249047619051
1445.81,44.74676190476193
1447.84,40.474476190476224
1449.87,60.559257142857206
1451.9,79.23642857142862
1453.93,90.83653333333339
1455.96,82.45204761904766
1457.98,103.69913809523817
1460.01,95.43210952380959
1462.03,129.55270952380963
1464.05,160.39147142857152
1466.07,189.1359523809525
1468.09,201.97350000000014
1470.11,239.37728571428585
1472.13,239.63023809523827
1474.14,249.7768095238097
1476.16,263.5283333333335
1478.17,256.4532857142858
1480.18,229.69109523809536
1482.19,199.0963238095239
1484.2,160.09465714285722
1486.21,94.3022428571429
1488.21,68.81129047619052
1490.22,42.8094904761905
1492.22,37.769949523809565
1494.22,39.45217428571431
1496.22,34.04371904761905
1498.22,18.73243809523811
1500.22,24.89669904761906
1502.22,10.676816666666683
1504.21,25.68932857142859
1506.21,28.217583333333344
1508.2,28.164011428571456
1510.19,38.3835366666667
1512.18,58.87402000000004
1514.17,61.39523809523813
1516.16,66.99282666666669
1518.14,49.71246952380953
1520.13,24.88566285714287
1522.11,20.796349523809553
1524.09,25.204777142857168
1526.07,39.5378885714286
1528.05,55.841788571428594
1530.03,47.257866666666686
1532.01,40.54670000000003
1533.98,59.51644380952385
1535.96,49.11828428571432
1537.93,44.73202571428575
1539.9,49.16605857142861
1541.87,51.03840466666671
1543.84,40.39573252380955
1545.81,48.9989783809524
1547.78,45.94268557142862
1549.74,67.03545838095246
1551.7,107.84800538095247
1553.67,145.66533609523816
1555.63,146.15370476190483
1557.59,129.7408095238096
1559.55,126.90266666666676
1561.5,130.82919047619058
1563.46,128.3295238095239
1565.41,142.64147619047628
1567.37,155.47890476190486
1569.32,146.17495238095248
1571.27,155.2532380952382
1573.22,145.5230952380953
1575.17,124.41319047619055
1577.11,115.78061904761911
1579.06,117.00623809523817
1581.0,123.51890476190482
1582.95,131.27071428571438
1584.89,132.88071428571436
1586.83,147.5875238095239
1588.77,142.58171428571436
1590.7,133.14942857142864
1592.64,128.81452380952388
1594.58,114.19638095238099
1596.51,117.46202380952406
1598.44,154.61178571428624
