Raman Shift,Processed Intensity
331.095,5.494608095238171
333.909,51.8269042857144
336.721,62.804308571428656
339.531,49.884860952380954
342.339,14.359723809523816
345.145,13.282252380952393
347.949,1.4208571428571508
350.751,18.544638095238128
353.55,30.137642857142875
356.348,40.73226190476192
359.144,37.62356666666669
361.937,38.01219047619049
364.729,18.194785714285757
367.518,47.80219047619056
370.306,132.84708571428587
373.091,245.15276190476214
375.874,367.25761904761924
378.656,397.55791428571445
381.435,320.26080095238103
384.212,190.28865571428577
386.988,69.89836476190477
389.761,-17.12803809523808
392.532,-16.10278666666665
395.301,-11.384757142857143
398.068,-11.997816190476197
400.833,-1.9171014285714354
403.596,-18.830660952380956
406.358,5.6700447619048
409.117,38.61388047619049
411.874,43.269132380952385
414.629,11.667411904761885
417.382,-24.539410952380972
420.133,-35.36448238095234
422.882,20.989307142857218
425.629,88.08270380952392
428.374,175.9537280952382
431.117,209.35580666666678
433.858,230.9480952380954
436.597,258.67723809523824
439.334,261.01385714285726
442.069,228.19223809523822
444.802,214.5901904761906
447.533,163.39566666666678
450.262,170.17857142857156
452.989,203.98604761904775
455.714,236.43709523809537
458.438,223.5801904761906
461.159,191.08364285714293
463.878,133.90220952380957
466.595,95.22925714285722
469.31,98.30625714285723
472.024,109.80396190476196
474.735,104.53634285714291
477.444,83.50845238095243
480.152,111.29749523809531
482.857,108.81394285714293
485.561,135.15913333333344
488.262,142.81618095238102
490.962,128.55400000000006
493.659,113.23697142857154
496.355,144.4916380952382
499.048,135.32576190476198
501.74,146.50923809523817
504.43,128.28857142857146
507.118,110.14838095238102
509.804,131.33500000000012
512.488,169.80933333333348
515.17,214.9135714285716
517.85,242.7515714285715
520.528,215.951161904762
523.204,152.9972095238096
525.878,130.18413333333342
528.551,118.33021904761914
531.221,145.53945714285723
533.89,138.62970000000007
536.556,133.22864761904768
539.221,98.91596666666673
541.883,99.36675238095246
544.544,101.92231904761911
547.203,123.49538095238101
549.86,113.14137619047625
552.515,97.53461428571433
555.168,75.73000476190481
557.819,85.73465238095245
560.469,95.50800476190486
563.116,132.1995857142858
565.761,150.72041904761915
568.405,174.98152380952394
571.047,183.84580952380963
573.687,201.176161904762
576.324,176.16859047619053
578.96,153.7803714285715
581.594,110.11126666666672
584.227,103.07046666666673
586.857,105.85249523809532
589.485,124.27054285714293
592.112,150.7090000000001
594.737,152.5041952380953
597.359,119.1827190476191
599.98,91.88965238095244
602.599,100.43656666666675
605.216,117.396461904762
607.831,167.1517285714287
610.445,171.27475238095244
613.056,141.57568571428578
615.666,130.67354285714293
618.274,113.52064285714292
620.88,107.9262095238096
623.484,123.7939095238096
626.086,161.40872380952393
628.686,194.5785285714287
631.284,226.8249809523811
633.881,253.76528571428588
636.476,244.15904761904775
639.068,240.14600000000013
641.659,248.3424000000001
644.249,213.3637095238096
646.836,170.9678476190477
649.421,146.72268095238098
652.005,93.29084761904768
654.587,79.4773228571429
657.166,59.182151428571444
659.745,41.11477428571432
662.321,46.365167619047654
664.895,53.88063619047623
667.468,63.89386571428576
670.038,67.58975619047622
672.607,60.39119047619053
675.174,61.10196190476195
677.739,77.90660476190482
680.303,97.18023333333338
682.864,80.44074285714288
685.424,55.348833333333346
687.982,31.565176190476198
690.538,15.274376190476218
693.092,15.66094952380953
695.645,14.242985238095235
698.195,9.443320952380969
700.744,9.018281904761912
703.291,24.581376190476213
705.836,14.079646666666667
708.38,21.222217142857176
710.921,37.24202904761909
713.461,69.89605523809529
715.999,75.89383809523815
718.535,91.32604285714288
721.069,56.66445238095241
723.602,48.238209523809566
726.133,56.471761904761955
728.662,70.17071428571433
731.189,62.997933333333364
733.714,71.42601428571432
736.238,67.54669523809527
738.759,67.54711428571433
741.279,63.99557619047623
743.798,78.88906666666671
746.314,84.79613809523815
748.829,80.57120000000003
751.342,83.7354904761905
753.853,61.76277142857144
756.362,33.17458571428575
758.869,37.30214285714288
761.375,40.0958285714286
763.879,31.029990476190513
766.381,58.91246190476195
768.882,79.3132952380953
771.38,102.46897619047624
773.877,108.282980952381
776.372,79.8494666666667
778.866,68.54828571428577
781.357,58.569185714285766
783.847,74.48291428571434
786.335,87.90778571428575
788.821,98.41497142857148
791.306,99.62296190476198
793.789,111.81708571428577
796.27,98.47362380952386
798.749,101.73509523809531
801.227,114.50649523809533
803.702,127.50258095238104
806.176,141.39005714285724
808.649,164.502761904762
811.119,171.17442857142865
813.588,168.54838095238105
816.055,165.6252952380953
818.521,133.45384285714292
820.984,105.51120952380958
823.446,99.1316333333334
825.906,96.69692380952387
828.365,106.20831904761913
830.821,117.9525333333334
833.276,114.9785714285715
835.729,130.66912380952388
838.181,124.21581428571436
840.631,126.477161904762
843.079,107.64548095238099
845.525,89.34121904761909
847.97,84.66138933333339
850.412,75.22720885714288
852.854,63.802174857142894
855.293,62.007068285714304
857.731,32.463084380952395
860.167,22.26722314285717
862.601,30.27874171428573
865.034,27.11887142857146
867.465,46.694433333333365
869.894,61.245714285714314
872.321,59.72730476190478
874.747,49.189076190476214
877.171,66.44271904761911
879.594,81.06212380952388
882.014,102.24016190476199
884.433,128.55043333333342
886.851,133.09071428571437
889.266,129.14909523809533
891.68,130.82304761904766
894.092,128.54385714285723
896.503,131.12366666666674
898.912,138.2789523809525
901.319,151.67906666666676
903.724,136.6594952380953
906.128,110.3178476190477
908.53,118.41883809523819
910.931,118.01251428571436
913.329,131.5776857142858
915.726,153.45000000000007
918.122,127.86998095238103
920.516,111.6974095238096
922.908,98.50625238095243
925.298,97.0128857142858
927.687,98.0771571428572
930.074,102.79632380952386
932.459,99.83973838095243
934.843,80.40030195238099
937.225,41.28975628571432
939.605,47.6054775714286
941.984,32.445099142857174
944.361,51.04876290476195
946.736,58.704501714285726
949.11,47.36679333333335
951.482,26.75205571428574
953.853,31.86226476190478
956.222,24.699468095238128
958.589,51.74175619047624
960.954,65.94340952380956
963.318,72.02057619047623
965.68,70.3083666666667
968.041,60.47510952380954
970.4,56.332044761904804
972.757,54.78549476190478
975.113,39.694122857142865
977.467,22.154657619047626
979.819,1.5494180952380967
982.17,-1.7393290476190177
984.519,24.384887619047653
986.866,47.92325714285718
989.212,72.40064761904767
991.556,84.19902380952384
993.899,85.08123809523813
996.24,81.14338571428576
998.579,64.62431428571432
1000.92,67.71523333333337
1003.25,71.36917619047622
1005.59,73.11053809523814
1007.92,78.27315238095241
1010.25,84.8099571428572
1012.58,75.19736666666671
1014.91,94.29276666666672
1017.24,107.04875238095245
1019.56,111.03705714285721
1021.88,98.68632857142862
1024.2,104.47318095238101
1026.52,110.58756666666675
1028.84,124.31529523809532
1031.16,136.79908095238102
1033.48,137.467380952381
1035.79,130.89142857142866
1038.1,148.2614285714287
1040.41,184.24366666666677
1042.72,213.50433333333345
1045.03,202.80500000000012
1047.33,187.76414285714296
1049.64,167.38133333333343
1051.94,140.17971428571437
1054.24,149.15890476190486
1056.54,140.9368333333334
1058.84,125.08442857142865
1061.13,142.79116666666675
1063.43,164.77090476190483
1065.72,161.6893095238096
1068.01,179.2122380952382
1070.3,171.62457142857153
1072.59,160.35361904761916
1074.87,179.6363809523811
1077.16,188.18642857142868
1079.44,182.52642857142868
1081.72,189.03628571428587
1084.0,230.66742857142876
1086.28,282.9897619047622
1088.56,424.24033333333375
1090.84,550.6558095238099
1093.11,634.9017619047623
1095.38,645.4053333333336
1097.65,589.1654761904765
1099.92,497.9903809523812
1102.19,437.30728571428597
1104.46,398.87661904761933
1106.72,378.93514285714303
1108.98,387.5292380952383
1111.24,393.03814285714316
1113.5,431.93666666666695
1115.76,471.27100000000024
1118.02,516.2300000000002
1120.28,527.9550952380955
1122.53,522.9213809523812
1124.78,464.5552380952383
1127.03,379.998523809524
1129.28,306.72576190476207
1131.53,231.44947619047633
1133.77,195.12066666666678
1136.02,173.64261904761915
1138.26,156.1562380952382
1140.5,149.18433333333346
1142.74,180.34414285714297
1144.98,203.1578571428573
1147.22,252.10019047619062
1149.45,267.8361904761906
1151.69,252.36416190476206
1153.92,207.30173333333346
1156.15,165.59960952380962
1158.38,128.92274285714294
1160.61,117.46041904761914
1162.83,115.54451428571436
1165.06,116.2684952380953
1167.28,92.72601428571433
1169.5,77.05839047619052
1171.72,64.97833333333338
1173.94,55.57986190476194
1176.16,47.432842857142894
1178.37,73.34543238095243
1180.58,71.8398204761905
1182.8,58.10507904761907
1185.01,44.66355571428572
1187.22,34.75196476190478
1189.42,17.79749142857146
1191.63,26.084722380952385
1193.84,18.516896666666675
1196.04,18.140365238095256
1198.24,15.525304285714304
1200.44,29.194338571428595
1202.64,38.62247523809526
1204.84,47.189596190476216
1207.03,45.98991190476192
1209.23,35.165285714285716
1211.42,18.905358571428582
1213.61,16.20932666666668
1215.8,11.266953809523821
1217.99,14.601482857142862
1220.18,17.545735238095247
1222.36,19.57552380952383
1224.55,32.976341904761924
1226.73,34.08133476190477
1228.91,29.27142476190477
1231.09,10.737163333333338
1233.27,4.431151428571445
1235.44,21.306055714285748
1237.62,42.029047619047645
1239.79,51.31493142857148
1241.96,68.92630761904766
1244.13,75.72105714285718
1246.3,88.1288333333334
1248.47,112.53147619047625
1250.64,130.64441904761912
1252.8,139.70682857142867
1254.96,162.52947619047632
1257.13,178.54257142857153
1259.29,200.93809523809537
1261.44,225.52700000000013
1263.6,233.50157142857154
1265.76,239.72057142857156
1267.91,228.2808571428572
1270.06,175.89885714285722
1272.22,150.48133333333345
1274.37,151.4111904761906
1276.51,169.59533333333346
1278.66,185.70285714285723
1280.81,182.92590476190483
1282.95,143.17166666666674
1285.09,121.96642857142865
1287.23,106.83642857142866
1289.37,128.1646190476191
1291.51,138.71582857142866
1293.65,129.92068571428575
1295.78,119.25827619047625
1297.92,104.25488571428576
1300.05,98.15122857142867
1302.18,131.33043809523818
1304.31,135.8907952380953
1306.44,137.7396476190477
1308.57,139.2133190476191
1310.69,126.64764761904769
1312.82,132.33068095238107
1314.94,161.40813333333344
1317.06,186.16857142857157
1319.18,225.7098095238097
1321.3,247.03457142857158
1323.41,253.9073333333335
1325.53,254.61661904761922
1327.64,268.07000000000016
1329.75,280.1272857142859
1331.87,290.1719047619049
1333.98,304.20633333333353
1336.08,287.4239047619049
1338.19,281.9702380952383
1340.3,276.56190476190494
1342.4,248.6296666666668
1344.5,223.27123809523817
1346.6,189.2032857142858
1348.7,137.5715238095239
1350.8,127.47338095238104
1352.9,124.00627619047627
1354.99,109.60072857142865
1357.09,113.78279047619057
1359.18,142.50689047619056
1361.27,163.1086000000001
1363.36,195.16134761904777
1365.45,199.04794285714294
1367.54,186.67490476190488
1369.62,197.66300000000015
1371.7,207.68057142857157
1373.79,216.49095238095254
1375.87,245.81000000000017
1377.95,261.78180952380967
1380.03,264.16985714285727
1382.1,247.68961904761912
1384.18,209.58023809523823
1386.25,190.74728571428585
1388.33,175.572761904762
1390.4,154.2478428571429
1392.47,122.53538095238099
1394.54,90.38810476190481
1396.6,81.7112571428572
1398.67,95.93340952380959
1400.74,113.5789428571429
1402.8,97.0287285714286
1404.86,86.85412380952386
1406.92,68.24539047619051
1408.98,59.58327142857148
1411.04,65.39081904761909
1413.09,72.04857142857146
1415.15,64.98436190476197
1417.2,86.33992380952387
1419.25,99.82857142857151
1421.3,113.30647142857148
1423.35,124.91522857142864
1425.4,111.08200000000006
1427.45,97.3768952380953
1429.49,104.17880952380958
1431.54,95.67679047619053
1433.58,86.48820952380957
1435.62,71.70638571428573
1437.66,50.61498571428575
1439.7,61.59311904761912
1441.74,96.5907952380953
1443.77,115.84394761904768
1445.81,118.20736666666672
1447.84,93.4882285714286
1449.87,67.5888571428572
1451.9,66.74507619047624
1453.93,68.66861428571434
1455.96,75.68991428571435
1457.98,100.23529047619056
1460.01,111.53985714285723
1462.03,124.64872857142866
1464.05,151.082761904762
1466.07,172.64895238095247
1468.09,192.4869047619049
1470.11,223.975142857143
1472.13,238.91985714285727
1474.14,250.89000000000019
1476.16,274.8824761904763
1478.17,281.2752857142858
1480.18,253.30361904761915
1482.19,220.25033333333346
1484.2,189.49334285714295
1486.21,141.98242857142864
1488.21,101.95270476190483
1490.22,80.30579047619052
1492.22,58.27717142857148
1494.22,68.48290571428576
1496.22,68.39632476190478
1498.22,54.63379714285716
1500.22,42.38298952380955
1502.22,39.49836857142859
1504.21,39.215362857142885
1506.21,44.29327714285717
1508.2,36.63429523809526
1510.19,36.37878095238098
1512.18,46.5719266666667
1514.17,39.83045047619049
1516.16,41.81876285714287
1518.14,30.439487619047625
1520.13,11.166772380952386
1522.11,4.903440952380967
1524.09,14.504845714285725
1526.07,16.112147619047644
1528.05,35.05716190476192
1530.03,23.243209523809526
1532.01,16.811942857142878
1533.98,20.476495238095254
1535.96,27.950233333333358
1537.93,41.184719047619076
1539.9,48.70313809523812
1541.87,53.79066190476195
1543.84,57.304076190476216
1545.81,54.05266190476195
1547.78,50.17916666666671
1549.74,68.92185238095244
1551.7,95.70931904761913
1553.67,140.11331428571435
1555.63,136.37217619047624
1557.59,122.67686666666673
1559.55,115.93282380952388
1561.5,119.28349523809531
1563.46,129.53950952380958
1565.41,135.27291428571434
1567.37,133.38954285714294
1569.32,116.46180476190483
1571.27,104.72899047619053
1573.22,91.62057619047626
1575.17,84.23337142857149
1577.11,81.1399952380953
1579.06,108.00859047619053
1581.0,110.50723809523815
1582.95,120.49469523809532
1584.89,119.73421904761912
1586.83,120.51315238095246
1588.77,118.73787619047626
1590.7,127.17167619047626
1592.64,120.2451714285715
1594.58,127.9123380952381
1596.51,131.53203809523805
1598.44,124.43930476190457
