Raman Shift,Processed Intensity
331.095,-37.930619047618734
333.909,60.53808809523808
336.721,83.566988095238
339.531,60.780947619047616
342.339,34.63792857142858
345.145,18.07246190476192
347.949,3.757882857142861
350.751,-7.584093333333322
353.55,5.483222857142847
356.348,-1.4122495238095016
359.144,27.929708571428613
361.937,47.995901904761936
364.729,68.13103047619053
367.518,90.72843809523819
370.306,144.2300809523811
373.091,234.2215380952383
375.874,317.9084095238097
378.656,332.5925714285716
381.435,316.76755238095245
384.212,227.26118571428577
386.988,133.04523809523815
389.761,89.33053809523814
392.532,65.61472857142861
395.301,53.4920285714286
398.068,17.843719047619018
400.833,-9.495480000000004
403.596,-30.7848
406.358,-15.853541904761896
409.117,2.565511428571423
411.874,0.5028933333333088
414.629,-36.438227142857144
417.382,-11.843804761904746
420.133,-5.82238904761903
422.882,39.99515238095245
425.629,86.93115952380958
428.374,135.69027142857155
431.117,181.5019190476192
433.858,242.8824476190478
436.597,251.96828571428586
439.334,247.658761904762
442.069,194.13971428571438
444.802,172.21695238095248
447.533,156.5065714285716
450.262,186.29209523809538
452.989,243.85800000000015
455.714,255.060761904762
458.438,232.75766666666675
461.159,181.56828571428576
463.878,115.35114285714293
466.595,91.29842857142867
469.31,115.8884761904763
472.024,148.4579523809525
474.735,183.91461904761914
477.444,174.92890476190487
480.152,177.21957142857153
482.857,178.17180952380966
485.561,186.7901904761906
488.262,195.60395238095248
490.962,193.85661904761915
493.659,157.4110000000001
496.355,147.2256380952382
499.048,109.21101428571431
501.74,74.6115571428572
504.43,86.95728095238103
507.118,111.06470952380961
509.804,128.03550952380962
512.488,182.78110952380965
515.17,207.02259047619057
517.85,205.9574761904763
520.528,216.40184761904771
523.204,182.7913095238096
525.878,129.37065714285723
528.551,103.76571904761911
531.221,100.84020952380959
533.89,103.93446190476197
536.556,127.768761904762
539.221,144.8737714285715
541.883,135.4938238095239
544.544,118.6828952380953
547.203,97.35157619047625
549.86,96.886961904762
552.515,137.2468142857144
555.168,164.72270476190488
557.819,193.60540000000012
560.469,168.7574333333334
563.116,167.37410476190487
565.761,160.12709047619057
568.405,173.30653333333345
571.047,183.4881476190477
573.687,200.19969523809533
576.324,165.49261904761914
578.96,175.32271428571437
581.594,152.0268095238096
584.227,138.13166666666675
586.857,141.7354476190477
589.485,116.79297142857148
592.112,78.06832380952386
594.737,71.80190476190481
597.359,60.99536666666672
599.98,67.88853333333338
602.599,95.81602380952387
605.216,108.34998095238102
607.831,102.58674761904769
610.445,106.19346666666671
613.056,102.69440476190482
615.666,76.47072380952386
618.274,73.80811904761912
620.88,105.94384380952388
623.484,85.54444380952386
626.086,78.79927809523817
628.686,108.56501809523817
631.284,118.17357333333345
633.881,154.71895333333347
636.476,211.15187238095248
639.068,202.70885714285725
641.659,179.81661904761916
644.249,188.7591333333334
646.836,154.20063809523816
649.421,116.04357142857147
652.005,95.52363333333336
654.587,49.82856666666669
657.166,18.241457142857183
659.745,42.71197619047622
662.321,58.046686666666716
664.895,56.33787000000004
667.468,70.10623523809527
670.038,66.49170142857147
672.607,64.58610666666672
675.174,81.05287000000006
677.739,107.93631047619053
680.303,97.75677142857148
682.864,81.51080000000005
685.424,77.48075714285717
687.982,71.56767619047623
690.538,66.24416000000004
693.092,58.98293619047622
695.645,48.2564723809524
698.195,30.727816190476215
700.744,45.440929523809565
703.291,48.582674285714305
705.836,41.482726666666686
708.38,26.280371428571456
710.921,41.876800000000046
713.461,50.88764761904768
715.999,102.9759190476191
718.535,100.94794761904765
721.069,88.22893333333337
723.602,57.29178571428575
726.133,76.2759752380953
728.662,50.46425619047623
731.189,90.85356000000007
733.714,107.63141047619054
736.238,83.6043742857143
738.759,59.38865142857147
741.279,66.74341333333336
743.798,57.999466666666734
746.314,79.05943809523814
748.829,75.58748571428573
751.342,53.91470000000004
753.853,47.277171428571464
756.362,50.00633809523814
758.869,60.433590476190496
761.375,54.89065238095241
763.879,56.09017504761909
766.381,55.84010885714289
768.882,54.32964628571432
771.38,47.3669920952381
773.877,36.71293200000004
776.372,54.89003742857149
778.866,80.89751790476194
781.357,77.78213333333338
783.847,86.87645714285719
786.335,74.51311428571431
788.821,54.78678571428575
791.306,56.79206666666669
793.789,43.90966190476194
796.27,57.75821904761912
798.749,100.5757095238096
801.227,144.40976190476198
803.702,163.7837333333334
806.176,165.7931333333334
808.649,143.48567619047623
811.119,108.24241428571432
813.588,91.92073333333339
816.055,93.75949047619055
818.521,108.94886666666675
820.984,112.06119047619055
823.446,134.287561904762
825.906,130.1999857142858
828.365,131.22750476190484
830.821,131.27578571428577
833.276,114.25004761904765
835.729,103.00859047619055
838.181,113.0284952380953
840.631,113.8822714285715
843.079,116.23754285714293
845.525,104.90482380952385
847.97,75.17102380952386
850.412,68.70409523809528
852.854,64.17175238095243
855.293,54.861066666666694
857.731,43.44000952380954
860.167,34.81467619047621
862.601,26.034109523809548
865.034,35.29023333333337
867.465,43.29877619047621
869.894,49.25173333333336
872.321,51.00779333333336
874.747,42.711348095238115
877.171,34.45923904761908
879.594,43.15785190476193
882.014,29.332662857142886
884.433,55.03294333333339
886.851,71.16517428571433
889.266,76.254880952381
891.68,87.82751428571433
894.092,100.55161904761911
896.503,91.85756190476198
898.912,120.84237142857151
901.319,128.22180952380958
903.724,134.80738095238104
906.128,152.60085714285722
908.53,154.84223809523814
910.931,145.19994285714293
913.329,112.58058571428575
915.726,101.17621904761913
918.122,97.3697476190477
920.516,124.06791428571438
922.908,116.84390476190482
925.298,109.12799047619052
927.687,71.68387142857148
930.074,78.41809523809532
932.459,106.0943380952382
934.843,137.09528571428578
937.225,125.08924761904768
939.605,125.12560000000005
941.984,98.72979523809528
944.361,72.61783809523813
946.736,63.743900000000025
949.11,45.49037142857146
951.482,54.763642857142926
953.853,78.5177190476191
956.222,92.94455714285719
958.589,83.52184761904765
960.954,70.87009523809526
963.318,53.943109523809575
965.68,69.74229523809528
968.041,73.69758095238099
970.4,71.04838571428573
972.757,55.70070952380955
975.113,22.179595238095246
977.467,15.724300000000023
979.819,11.764502380952393
982.17,19.253666666666685
984.519,20.716650000000016
986.866,28.868752380952408
989.212,43.23474047619054
991.556,93.95830476190484
993.899,121.9451476190477
996.24,146.43419047619057
998.579,150.80678095238102
1000.92,134.06372857142864
1003.25,120.34852380952387
1005.59,92.37596190476194
1007.92,57.575247619047644
1010.25,35.04201904761908
1012.58,39.87148571428577
1014.91,94.15943333333342
1017.24,134.00114761904769
1019.56,129.11096190476198
1021.88,121.82230000000006
1024.2,87.89696666666671
1026.52,83.28716666666676
1028.84,138.75474761904772
1031.16,170.63278095238107
1033.48,189.778042857143
1035.79,228.95216190476202
1038.1,223.82123809523821
1040.41,242.33723809523826
1042.72,266.9279047619049
1045.03,247.54509523809537
1047.33,222.759761904762
1049.64,204.38061904761915
1051.94,163.69290476190488
1054.24,161.2196666666668
1056.54,167.3882380952382
1058.84,177.05480952380964
1061.13,182.59947619047628
1063.43,182.97333333333341
1065.72,174.89042857142866
1068.01,166.11114285714297
1070.3,161.34895238095248
1072.59,167.41190476190488
1074.87,161.3940476190477
1077.16,186.29423809523823
1079.44,203.7306190476192
1081.72,235.93942857142878
1084.0,298.8247142857145
1086.28,358.8610476190479
1088.56,455.71380952380986
1090.84,555.4769523809528
1093.11,618.7681904761909
1095.38,627.157523809524
1097.65,580.9294285714288
1099.92,480.79657142857167
1102.19,410.9001904761907
1104.46,363.9533333333336
1106.72,345.38314285714307
1108.98,359.85514285714305
1111.24,382.93900000000025
1113.5,426.34742857142885
1115.76,467.88852380952403
1118.02,481.6084761904765
1120.28,464.12495238095266
1122.53,450.34142857142876
1124.78,403.1133809523812
1127.03,370.6772380952383
1129.28,330.793523809524
1131.53,254.88923809523823
1133.77,211.3444761904763
1136.02,180.63385714285727
1138.26,163.94638095238108
1140.5,173.0425238095239
1142.74,194.82552380952393
1144.98,198.3891904761906
1147.22,206.54209523809538
1149.45,205.8541904761906
1151.69,207.37180952380965
1153.92,200.90357142857155
1156.15,179.06686666666673
1158.38,144.67010476190484
1160.61,111.23606666666674
1162.83,111.28746666666675
1165.06,118.63261904761913
1167.28,121.84198571428577
1169.5,105.77145714285719
1171.72,77.99169047619051
1173.94,60.16840000000004
1176.16,58.91982857142861
1178.37,63.57835238095242
1180.58,58.286074761904786
1182.8,31.89936761904763
1185.01,23.322326190476208
1187.22,12.316166190476196
1189.42,13.785086190476218
1191.63,34.39520523809526
1193.84,41.81274000000002
1196.04,46.894383333333366
1198.24,48.02076238095239
1200.44,26.14397095238096
1202.64,14.31141666666667
1204.84,3.4277257142857147
1207.03,-4.078602380952363
1209.23,16.45905619047621
1211.42,26.850323809523832
1213.61,44.190560476190505
1215.8,66.81329619047622
1217.99,54.909300000000016
1220.18,40.24080476190478
1222.36,32.66542380952383
1224.55,27.326552380952407
1226.73,24.081909523809546
1228.91,44.07505238095241
1231.09,43.64013333333337
1233.27,62.20640952380958
1235.44,76.96547619047625
1237.62,93.34680476190482
1239.79,97.30407619047625
1241.96,95.55256190476196
1244.13,92.23632380952387
1246.3,99.88043809523815
1248.47,119.2482095238096
1250.64,130.76939047619055
1252.8,156.8742000000001
1254.96,157.61176190476198
1257.13,158.2220000000001
1259.29,167.18270476190486
1261.44,161.63830000000007
1263.6,143.3048857142858
1265.76,137.04103333333342
1267.91,133.99155238095244
1270.06,135.2540238095239
1272.22,141.4013571428572
1274.37,123.15011428571435
1276.51,115.78777619047627
1278.66,116.07820952380962
1280.81,136.64264285714293
1282.95,136.53097619047628
1285.09,129.50679047619056
1287.23,132.62041428571436
1289.37,142.8734095238096
1291.51,155.74447142857153
1293.65,154.66459047619054
1295.78,134.7310952380953
1297.92,100.32706190476193
1300.05,72.59790000000004
1302.18,72.54552857142863
1304.31,76.83891428571434
1306.44,86.43293809523817
1308.57,106.32999047619055
1310.69,124.4844095238096
1312.82,114.08918571428578
1314.94,136.52734285714294
1317.06,148.61086666666677
1319.18,144.3421238095239
1321.3,141.00941904761916
1323.41,180.37651428571442
1325.53,199.49347619047631
1327.64,262.505142857143
1329.75,299.1755714285716
1331.87,296.74504761904774
1333.98,285.59704761904777
1336.08,266.11485714285726
1338.19,247.77671428571443
1340.3,241.87023809523822
1342.4,223.73095238095246
1344.5,175.21795238095245
1346.6,162.61900000000009
1348.7,138.269580952381
1350.8,125.17155714285722
1352.9,117.13619047619055
1354.99,113.7847428571429
1357.09,77.97603809523815
1359.18,103.33094285714293
1361.27,111.89876190476197
1363.36,100.49057619047626
1365.45,114.10823809523819
1367.54,139.51513333333344
1369.62,151.37960952380962
1371.7,205.22689523809538
1373.79,233.39147619047634
1375.87,242.96995238095252
1377.95,234.34490476190487
1380.03,228.4220000000001
1382.1,207.10742857142867
1384.18,194.30685714285724
1386.25,199.64014285714296
1388.33,198.3940190476191
1390.4,146.47432857142863
1392.47,122.92915238095244
1394.54,88.18805714285719
1396.6,51.20398095238101
1398.67,57.88217619047624
1400.74,69.2227428571429
1402.8,81.6550476190477
1404.86,115.3694571428572
1406.92,118.509180952381
1408.98,99.40755714285717
1411.04,74.25502857142861
1413.09,69.00377619047626
1415.15,78.22508571428577
1417.2,91.34700476190483
1419.25,84.2739047619048
1421.3,70.43376190476194
1423.35,59.54020000000005
1425.4,67.8307047619048
1427.45,67.49464761904765
1429.49,67.72150000000002
1431.54,44.60538571428573
1433.58,32.66878571428575
1435.62,48.95800952380957
1437.66,71.90006190476196
1439.7,80.06468571428577
1441.74,82.06917142857145
1443.77,62.05450000000003
1445.81,38.256742857142896
1447.84,47.7215190476191
1449.87,51.92276190476194
1451.9,67.95318571428578
1453.93,90.8107428571429
1455.96,103.34992857142863
1457.98,101.47296666666674
1460.01,102.22490000000006
1462.03,92.0790333333334
1464.05,108.746861904762
1466.07,133.22583333333344
1468.09,178.94164761904776
1470.11,227.03433333333345
1472.13,259.9769523809525
1474.14,271.6711904761906
1476.16,258.4474761904763
1478.17,217.8264285714287
1480.18,192.8527142857144
1482.19,168.04692380952392
1484.2,144.02510476190483
1486.21,126.11769047619053
1488.21,92.89310000000005
1490.22,80.87190000000007
1492.22,93.67012857142862
1494.22,83.23698571428575
1496.22,85.33168095238099
1498.22,84.80820000000003
1500.22,56.61597619047624
1502.22,60.65675714285719
1504.21,63.023066666666686
1506.21,46.80733333333337
1508.2,54.57837619047623
1510.19,55.523857142857175
1512.18,53.59359047619052
1514.17,69.30890476190481
1516.16,64.38163333333335
1518.14,58.04751904761907
1520.13,32.018571428571434
1522.11,17.86405714285716
1524.09,11.34382857142859
1526.07,18.455938095238118
1528.05,37.00806190476194
1530.03,51.903252380952395
1532.01,44.99701619047622
1533.98,32.62118285714286
1535.96,31.298151428571458
1537.93,36.836121904761946
1539.9,51.56718952380957
1541.87,80.20464000000005
1543.84,100.98543047619052
1545.81,93.09910000000006
1547.78,109.78280952380959
1549.74,120.0359190476191
1551.7,122.04816666666677
1553.67,148.05707142857153
1555.63,158.728761904762
1557.59,152.39610476190484
1559.55,135.01093809523817
1561.5,123.76359047619056
1563.46,106.60615714285721
1565.41,125.82420952380964
1567.37,152.41784285714297
1569.32,176.19658095238105
1571.27,166.4937142857144
1573.22,156.6425238095239
1575.17,122.50019047619055
1577.11,131.63866666666678
1579.06,147.96319047619056
1581.0,160.28333333333342
1582.95,160.6950476190477
1584.89,138.2460952380953
1586.83,115.22266666666675
1588.77,117.72066666666674
1590.7,129.645761904762
1592.64,139.80771428571438
1594.58,158.2076666666668
1596.51,174.91759523809546
1598.44,185.10483333333352
