Raman Shift,Processed Intensity
331.095,49.98678809523805
333.909,-4.592661904761933
336.721,-28.352954761904748
339.531,-29.33272380952381
342.339,-19.785104761904755
345.145,5.56085238095241
347.949,43.71507142857147
350.751,71.02150333333337
353.55,68.11041166666669
356.348,50.13661857142857
359.144,21.25566214285715
361.937,-8.042914761904742
364.729,19.921864047619106
367.518,58.6886557142858
370.306,146.93959523809542
373.091,236.83430952380968
375.874,319.58079047619066
378.656,314.00657142857153
381.435,291.4644666666668
384.212,207.97420000000005
386.988,125.2232142857143
389.761,55.18609523809527
392.532,28.790569523809538
395.301,2.822295714285736
398.068,2.877881904761908
400.833,10.50704238095238
403.596,-3.596358095238096
406.358,0.4054604761904791
409.117,4.732360952380942
411.874,-24.299498095238132
414.629,-42.753520952380974
417.382,-48.83485952380954
420.133,-24.033321904761866
422.882,33.54352428571434
425.629,98.3131895238096
428.374,142.3605376190477
431.117,175.29564476190484
433.858,199.63438095238106
436.597,200.17909523809533
439.334,175.4475714285715
442.069,153.6250476190477
444.802,143.85000000000008
447.533,137.54700000000014
450.262,188.09438095238107
452.989,215.77576190476205
455.714,223.542161904762
458.438,202.3452571428572
461.159,165.8041714285715
463.878,118.53810476190483
466.595,103.40544761904769
469.31,86.55063809523816
472.024,90.5947428571429
474.735,96.1117238095239
477.444,110.34285714285721
480.152,132.67257142857153
482.857,142.3905333333334
485.561,138.4530000000001
488.262,148.2932380952382
490.962,150.20138095238102
493.659,133.80200000000008
496.355,135.10038095238102
499.048,122.81656190476197
501.74,88.90851428571432
504.43,77.57279047619053
507.118,92.91077142857151
509.804,124.64312380952391
512.488,157.5380857142858
515.17,183.88792380952387
517.85,156.31811904761915
520.528,120.69232857142863
523.204,97.92228571428576
525.878,82.15737619047624
528.551,70.40464761904768
531.221,107.24186190476198
533.89,116.3900428571429
536.556,104.61774761904766
539.221,91.55051428571431
541.883,70.95668571428577
544.544,71.89066666666673
547.203,97.07249047619052
549.86,87.12760000000006
552.515,97.01419047619055
555.168,120.30971428571438
557.819,139.40066190476202
560.469,164.48359047619056
563.116,150.56371428571433
565.761,139.83647619047628
568.405,145.87823809523817
571.047,146.93200000000007
573.687,142.00190476190485
576.324,131.37847619047625
578.96,109.63695238095247
581.594,114.35246666666674
584.227,110.62422857142865
586.857,111.40795238095244
589.485,101.89705238095243
592.112,94.28515238095244
594.737,91.38396190476196
597.359,98.14805714285721
599.98,109.29400000000007
602.599,121.9663571428572
605.216,109.88096666666674
607.831,92.42012857142862
610.445,87.63230476190482
613.056,78.94659047619052
615.666,73.93502857142862
618.274,83.35950000000004
620.88,79.45817619047625
623.484,91.75425238095247
626.086,117.39013809523819
628.686,146.1269238095239
631.284,168.24912857142868
633.881,156.18358095238102
636.476,169.5003523809525
639.068,173.43537142857153
641.659,161.08163809523822
644.249,179.19910476190483
646.836,146.73731904761908
649.421,101.36012380952388
652.005,96.96943333333338
654.587,81.84767619047625
657.166,69.80074285714291
659.745,81.44447142857146
662.321,74.96533809523815
664.895,77.5025285714286
667.468,77.57577142857147
670.038,65.32384761904764
672.607,37.50439523809527
675.174,46.20841428571434
677.739,77.28844666666672
680.303,73.1210585714286
682.864,54.13025047619048
685.424,33.54960809523811
687.982,9.660226666666698
690.538,44.79107285714292
693.092,92.93731333333339
695.645,95.80868095238098
698.195,54.30539523809525
700.744,33.23245714285716
703.291,11.10919428571431
705.836,13.598003809523835
708.38,33.59913142857144
710.921,29.632086666666673
713.461,21.692626666666694
715.999,40.34795142857146
718.535,46.49865142857145
721.069,43.47400952380956
723.602,53.17471904761908
726.133,43.26353333333337
728.662,83.1173857142858
731.189,116.78021428571432
733.714,114.7720571428572
736.238,92.18457142857146
738.759,78.6330047619048
741.279,54.92365238095243
743.798,61.291071428571456
746.314,56.065452380952415
748.829,82.67236190476196
751.342,73.20381428571433
753.853,114.65674285714294
756.362,107.5047523809524
758.869,73.17370000000004
761.375,40.80403333333337
763.879,72.72678571428578
766.381,75.74926190476198
768.882,123.91716666666673
771.38,114.56197142857147
773.877,98.20561904761911
776.372,96.27530952380963
778.866,127.76953333333344
781.357,157.87755714285723
783.847,166.0267714285715
786.335,159.5018571428572
788.821,127.4923333333334
791.306,99.56915714285721
793.789,97.96981904761913
796.27,103.07474761904768
798.749,115.02634285714295
801.227,152.9198238095239
803.702,166.66001904761916
806.176,166.38971428571438
808.649,177.10885714285723
811.119,184.81785714285726
813.588,185.0881904761906
816.055,199.1109523809525
818.521,200.41076190476198
820.984,190.797761904762
823.446,189.65352380952393
825.906,185.0745238095239
828.365,171.6329523809525
830.821,167.32952380952392
833.276,162.02271428571436
835.729,153.0474000000001
838.181,131.21411428571434
840.631,118.14375238095246
843.079,116.5516952380953
845.525,113.29651428571437
847.97,122.09412380952386
850.412,108.75611904761908
852.854,71.90308571428577
855.293,64.20376666666671
857.731,61.61209047619053
860.167,61.79686666666671
862.601,60.188557142857164
865.034,55.31315238095241
867.465,49.74414761904765
869.894,46.95989523809527
872.321,59.867380952381
874.747,73.27836190476195
877.171,75.52848571428576
879.594,90.00117619047624
882.014,107.50812380952385
884.433,110.00414761904767
886.851,131.3965238095239
889.266,130.49724761904767
891.68,110.59439047619054
894.092,120.78592380952388
896.503,119.50277142857149
898.912,118.8906476190477
901.319,144.90421904761914
903.724,172.26047619047628
906.128,174.6284761904763
908.53,204.39180952380963
910.931,179.88652380952388
913.329,142.44871428571437
915.726,118.31871428571435
918.122,124.4995714285715
920.516,112.5174190476191
922.908,106.27958571428576
925.298,88.97907619047623
927.687,98.66604285714294
930.074,96.1526952380953
932.459,100.63223809523815
934.843,80.48796190476193
937.225,65.91267142857149
939.605,66.76608571428578
941.984,87.66961904761911
944.361,114.43536190476198
946.736,114.16080952380956
949.11,89.133980952381
951.482,84.21410952380957
953.853,60.97513809523812
956.222,51.65720000000006
958.589,69.97691428571432
960.954,78.07896666666672
963.318,95.82273333333339
965.68,113.82923333333338
968.041,99.05280000000006
970.4,79.11430952380955
972.757,70.01565238095243
975.113,68.85353809523814
977.467,45.153652380952394
979.819,48.86980952380956
982.17,37.47988095238097
984.519,41.27102380952386
986.866,46.95896190476193
989.212,70.4495285714286
991.556,55.02973333333337
993.899,67.08147142857146
996.24,71.22505238095243
998.579,88.98490952380956
1000.92,94.4572095238096
1003.25,106.2613428571429
1005.59,99.01683809523814
1007.92,88.8671571428572
1010.25,89.67001904761912
1012.58,94.37803809523817
1014.91,107.94362857142863
1017.24,104.84291904761912
1019.56,118.2187333333334
1021.88,103.4996952380953
1024.2,107.20962857142865
1026.52,123.44354285714294
1028.84,130.91486666666677
1031.16,134.33755238095247
1033.48,165.3778857142858
1035.79,160.60657142857153
1038.1,179.97557142857158
1040.41,214.6271904761906
1042.72,231.846142857143
1045.03,213.20309523809533
1047.33,193.83976190476199
1049.64,171.32638095238107
1051.94,180.6146190476192
1054.24,191.89376190476202
1056.54,194.44847619047627
1058.84,169.51571428571435
1061.13,147.90342857142866
1063.43,132.18166666666673
1065.72,151.0161904761906
1068.01,155.88142857142867
1070.3,193.06171428571446
1072.59,214.17452380952395
1074.87,240.64671428571444
1077.16,228.33404761904777
1079.44,220.33033333333344
1081.72,210.2528571428573
1084.0,251.38538095238115
1086.28,306.25014285714315
1088.56,404.3214285714289
1090.84,528.550047619048
1093.11,630.3627142857147
1095.38,652.6147619047622
1097.65,633.1137619047622
1099.92,543.0007142857145
1102.19,448.55947619047646
1104.46,416.4072380952383
1106.72,396.970523809524
1108.98,383.0569523809526
1111.24,412.9980952380955
1113.5,420.45847619047646
1115.76,445.531666666667
1118.02,505.3107619047622
1120.28,535.8411904761907
1122.53,522.978285714286
1124.78,453.33904761904773
1127.03,370.68361904761923
1129.28,287.29571428571444
1131.53,249.45923809523825
1133.77,228.98157142857156
1136.02,204.71814285714296
1138.26,187.42861904761918
1140.5,197.8734285714287
1142.74,199.19323809523823
1144.98,205.0530000000001
1147.22,222.73657142857155
1149.45,241.00428571428586
1151.69,231.90176190476203
1153.92,209.37961904761914
1156.15,192.2932857142858
1158.38,161.97414285714297
1160.61,165.80195238095249
1162.83,176.44180952380958
1165.06,151.8442857142858
1167.28,128.76971428571437
1169.5,121.31192380952388
1171.72,100.18366190476198
1173.94,106.47902857142864
1176.16,100.95836666666672
1178.37,89.42981904761909
1180.58,83.1302666666667
1182.8,66.91558571428574
1185.01,51.594266666666705
1187.22,44.26050952380954
1189.42,35.77030476190479
1191.63,42.64654000000004
1193.84,48.36450666666669
1196.04,39.304337142857165
1198.24,42.17952571428573
1200.44,27.132237619047633
1202.64,10.399915714285727
1204.84,26.458195714285736
1207.03,23.211381904761918
1209.23,19.087658095238115
1211.42,23.46767714285715
1213.61,14.875033809523813
1215.8,14.166785238095262
1217.99,19.676256666666667
1220.18,20.64164761904763
1222.36,6.396542857142856
1224.55,8.036544761904775
1226.73,7.228811428571442
1228.91,17.831146666666676
1231.09,16.7967123809524
1233.27,27.269218095238116
1235.44,29.964001904761947
1237.62,71.97747809523815
1239.79,86.83470476190482
1241.96,101.39407619047626
1244.13,94.70480476190481
1246.3,80.05415238095244
1248.47,84.15807619047627
1250.64,101.35187619047626
1252.8,113.11343333333343
1254.96,148.8254095238096
1257.13,141.29971428571437
1259.29,146.63380952380965
1261.44,184.3058571428573
1263.6,199.84223809523823
1265.76,220.67361904761916
1267.91,224.27838095238104
1270.06,182.8972857142858
1272.22,153.39023809523817
1274.37,142.85495238095245
1276.51,141.8182380952382
1278.66,145.9014761904763
1280.81,139.34576190476199
1282.95,135.820180952381
1285.09,114.85170476190483
1287.23,110.20507619047629
1289.37,117.74045714285722
1291.51,118.22246190476197
1293.65,110.368680952381
1295.78,110.41987142857147
1297.92,75.56973333333337
1300.05,73.34503333333339
1302.18,57.74880000000003
1304.31,65.64140952380959
1306.44,92.02592857142864
1308.57,115.19080952380959
1310.69,124.37730476190485
1312.82,145.96964761904772
1314.94,126.6372857142858
1317.06,149.33609523809534
1319.18,173.40228571428582
1321.3,198.505142857143
1323.41,231.55266666666677
1325.53,232.83338095238108
1327.64,233.06466666666682
1329.75,272.63042857142875
1331.87,276.1050000000002
1333.98,290.0624285714287
1336.08,301.7436666666668
1338.19,270.34161904761913
1340.3,255.6689523809525
1342.4,233.87095238095247
1344.5,175.66442857142866
1346.6,143.6233238095239
1348.7,119.13099047619053
1350.8,97.90407619047626
1352.9,97.65924761904768
1354.99,96.20840952380959
1357.09,118.93427619047628
1359.18,146.7438476190477
1361.27,147.82971428571437
1363.36,139.66980952380962
1365.45,137.45628571428583
1367.54,146.71500000000012
1369.62,159.11409523809533
1371.7,179.1309523809525
1373.79,198.33880952380966
1375.87,216.83366666666683
1377.95,259.7597142857145
1380.03,268.4038571428573
1382.1,250.05295238095252
1384.18,225.13590476190487
1386.25,184.9869523809525
1388.33,146.46371428571436
1390.4,138.66196190476197
1392.47,103.67706190476198
1394.54,99.98544761904766
1396.6,73.06304285714289
1398.67,55.48115238095241
1400.74,39.00150000000002
1402.8,44.909247619047655
1404.86,33.82284285714289
1406.92,59.026980952380995
1408.98,79.3304571428572
1411.04,77.77974285714289
1413.09,78.94505714285718
1415.15,82.15827619047622
1417.2,51.32255238095242
1419.25,52.95979523809528
1421.3,69.21116666666671
1423.35,58.455580952381
1425.4,74.59575238095243
1427.45,76.24841428571432
1429.49,73.31582380952385
1431.54,72.79562380952385
1433.58,82.35188571428576
1435.62,84.22002380952385
1437.66,69.25437619047622
1439.7,56.88066190476195
1441.74,51.429057142857175
1443.77,66.2778095238096
1445.81,85.80454761904767
1447.84,107.6252333333334
1449.87,95.21273809523815
1451.9,96.03996190476197
1453.93,87.67507619047625
1455.96,80.40065714285718
1457.98,65.54651904761909
1460.01,66.8711428571429
1462.03,76.75192857142865
1464.05,122.66190476190488
1466.07,160.31198571428584
1468.09,208.3176571428573
1470.11,253.29442857142874
1472.13,273.14352380952397
1474.14,242.9090476190477
1476.16,210.73119047619053
1478.17,147.89190476190484
1480.18,141.43561904761916
1482.19,154.3590476190477
1484.2,150.65894285714293
1486.21,117.09399047619054
1488.21,100.13762380952384
1490.22,67.1197428571429
1492.22,49.94245714285718
1494.22,48.793395238095265
1496.22,50.00305238095242
1498.22,56.99736666666671
1500.22,59.44045714285716
1502.22,56.425123809523825
1504.21,38.282328571428586
1506.21,20.67654761904764
1508.2,43.36758095238099
1510.19,45.16298666666667
1512.18,29.584791428571446
1514.17,27.96468285714286
1516.16,17.777270476190488
1518.14,14.68790190476194
1520.13,27.409629523809524
1522.11,26.608077142857162
1524.09,27.472847619047638
1526.07,36.28890000000003
1528.05,41.19849047619051
1530.03,60.62969523809527
1532.01,58.48694761904765
1533.98,56.53195238095241
1535.96,45.81228571428572
1537.93,25.804123809523816
1539.9,21.888591428571452
1541.87,23.732572380952398
1543.84,19.33646380952383
1545.81,38.17680380952385
1547.78,58.58755428571433
1549.74,75.85486285714293
1551.7,110.69374380952388
1553.67,119.96214285714294
1555.63,119.75618095238102
1557.59,110.74339047619054
1559.55,87.97235238095243
1561.5,73.87256190476197
1563.46,84.20693333333341
1565.41,84.07172857142864
1567.37,124.56340952380958
1569.32,131.73086190476198
1571.27,135.67047619047625
1573.22,119.2885428571429
1575.17,106.39569523809527
1577.11,77.13621904761911
1579.06,98.13072380952389
1581.0,94.7138952380953
1582.95,103.26803333333336
1584.89,77.41379047619051
1586.83,79.34293809523815
1588.77,75.3428952380953
1590.7,101.03421428571436
1592.64,109.51358095238102
1594.58,116.54458809523815
1596.51,114.7242595238096
1598.44,100.05432857142856
