Raman Shift,Processed Intensity
331.095,52.873145116127944
333.909,-21.63452427352786
336.721,-67.88385365552358
339.531,-84.54150441453658
342.339,-59.10746070460527
345.145,-21.319786071896942
347.949,29.107286589176056
350.751,31.36431269889954
353.55,64.11806984568011
356.348,132.22584878233147
359.144,199.59260156521168
361.937,275.59951826479073
364.729,317.86593700955063
367.518,328.3922064108542
370.306,366.6073098925581
373.091,457.89268049683733
375.874,527.2488728328622
378.656,555.1050921683322
381.435,518.1763425686258
384.212,414.7015274169062
386.988,267.3005975532683
389.761,174.78408036626615
392.532,82.29594221778552
395.301,18.742165153618316
398.068,-2.73305733832467
400.833,-14.79493409361794
403.596,1.5105004392712544
406.358,8.470676912014369
409.117,-9.579219823597214
411.874,-28.637199548770695
414.629,-57.98684316693607
417.382,-45.19729934524048
420.133,-15.647094212727552
422.882,36.66633681582698
425.629,86.8885397180643
428.374,175.0699305352823
431.117,277.68959306485385
433.858,394.4171809766158
436.597,469.3033913578306
439.334,516.160914448622
442.069,483.70728813931373
444.802,439.46965722967707
447.533,402.45143745009455
450.262,398.0846937684314
452.989,433.5158520302339
455.714,442.46283917036317
458.438,447.9293662817554
461.159,413.68111644609417
463.878,379.4362182787572
466.595,370.5795289975831
469.31,390.1150127297219
472.024,382.18954738991715
474.735,418.4262553683102
477.444,421.4483104087235
480.152,419.4503635345609
482.857,409.3890165937478
485.561,415.22091485129977
488.262,447.42655386758724
490.962,492.5817054242384
493.659,523.5002720214566
496.355,556.5199985182026
499.048,571.8358028199968
501.74,625.9759637095726
504.43,707.3259277251564
507.118,748.652116038736
509.804,822.1019218105239
512.488,897.5370408767608
515.17,937.9620405327546
517.85,1012.0481664111553
520.528,1075.942863645943
523.204,1132.9364408935526
525.878,1198.9382581635314
528.551,1257.476724172996
531.221,1270.5088175106084
533.89,1293.1819887529423
536.556,1277.215110199892
539.221,1265.6603779910483
541.883,1252.0461666030155
544.544,1251.4246452515058
547.203,1236.3717752458033
549.86,1250.796831152768
552.515,1265.6090648179816
555.168,1273.1938931964182
557.819,1315.2700385640678
560.469,1358.84190682479
563.116,1382.2948229600393
565.761,1406.7283617166777
568.405,1435.4325354376638
571.047,1405.1258866546264
573.687,1404.669771156653
576.324,1364.1635934400101
578.96,1345.6114707292995
581.594,1305.3984208081374
584.227,1293.5284546117314
586.857,1245.0055259623246
589.485,1258.9287670189187
592.112,1213.6353427746267
594.737,1247.1290198397273
597.359,1217.2706399866393
599.98,1214.8257365520217
602.599,1233.7978651246076
605.216,1270.1905056615979
607.831,1288.911821747909
610.445,1371.8222769982867
613.056,1405.8298705070288
615.666,1492.2710865834279
618.274,1642.3394635348313
620.88,1757.8474957830322
623.484,1882.8456788377994
626.086,1991.6225066513634
628.686,2078.133040401475
631.284,2152.903667750649
633.881,2215.1273382958843
636.476,2207.6635609231435
639.068,2155.6098297332583
641.659,2023.1111452059345
644.249,1816.4552496494698
646.836,1544.0250055076108
649.421,1276.5364879521371
652.005,1031.3246965230487
654.587,822.7245048639961
657.166,658.7849437910468
659.745,525.8882462662114
662.321,394.6546066566775
664.895,324.7040828512072
667.468,267.5137364717525
670.038,219.75096356127824
672.607,175.3687300334741
675.174,164.12937855104383
677.739,147.84272111827977
680.303,170.22317929269093
682.864,158.985019634722
685.424,137.27092249080624
687.982,80.74721744308363
690.538,55.175309235306486
693.092,18.173579889220036
695.645,6.598346672103162
698.195,-18.884697867668365
700.744,-17.467139025076904
703.291,1.183126748059749
705.836,49.159999102731945
708.38,43.55727897781753
710.921,54.325821536787316
713.461,49.46402243774355
715.999,49.54163743679737
718.535,72.93788770572655
721.069,68.65099372106624
723.602,58.821994867488684
726.133,56.972854755465505
728.662,47.33980463417038
731.189,47.49240109008815
733.714,9.47639326944227
736.238,-10.329124185100682
738.759,-4.640272483432
741.279,9.922097582036713
743.798,12.880034763557887
746.314,20.517545056666222
748.829,-25.786064886922304
751.342,-54.79427291783213
753.853,-59.98475988088421
756.362,-41.597018583137924
758.869,-39.7275874608581
761.375,-30.80624284143596
763.879,-38.786476919597135
766.381,-58.812166209792395
768.882,-7.8842399985974225
771.38,31.0440797743222
773.877,51.54346720667445
776.372,74.18468112400114
778.866,59.776658532046895
781.357,42.556989021505615
783.847,34.85857964896195
786.335,28.681081722591443
788.821,29.786127111672613
791.306,75.03065979418989
793.789,98.17645788062555
796.27,165.36632230441683
798.749,240.83836075051158
801.227,333.73550967916117
803.702,435.53410396876006
806.176,501.6629227491667
808.649,516.6936638064531
811.119,519.674275130511
813.588,513.7956197959893
816.055,489.7724265575189
818.521,454.3194785401697
820.984,387.72304002515375
823.446,334.50752133075684
825.906,281.8164294075659
828.365,265.26950890988473
830.821,221.53416898143996
833.276,165.18262432680194
835.729,135.1204648542307
838.181,117.91998722329026
840.631,109.29638353532664
843.079,102.82202526203127
845.525,73.59312812639564
847.97,10.086893174132001
850.412,-1.5527807263270006
852.854,-8.181965336217672
855.293,6.295676120220378
857.731,12.309839550971901
860.167,14.71881630576263
862.601,-10.952413371567673
865.034,-4.988372604974302
867.465,-5.721184910024931
869.894,-3.8162902653311903
872.321,-24.3676849935091
874.747,-48.85030449927763
877.171,-36.54859648375077
879.594,-22.651760825393467
882.014,5.127201015212904
884.433,24.551484209652017
886.851,34.146193061677195
889.266,45.81738684054926
891.68,68.23303037627625
894.092,65.82299227390081
896.503,80.15999550874744
898.912,78.3405680216606
901.319,75.74694569520557
903.724,102.6184991393875
906.128,117.90887476308353
908.53,122.61932632166918
910.931,125.27490360749516
913.329,104.68635542607808
915.726,95.42631828657363
918.122,108.54360033035073
920.516,98.99175097385364
922.908,127.39096388480016
925.298,124.88521805361688
927.687,98.28513315059718
930.074,80.16320583543029
932.459,81.18714130483795
934.843,76.50080388782703
937.225,119.05754859332365
939.605,125.5726002768572
941.984,118.38019471200414
944.361,104.19548156659448
946.736,94.25737975986385
949.11,102.32857567675637
951.482,85.21933090602852
953.853,68.31128997835458
956.222,68.74795477109774
958.589,80.57753986546572
960.954,68.94344695128143
963.318,94.17950113652182
965.68,83.2385205901885
968.041,88.97802904231844
970.4,82.25549209352039
972.757,73.21402971498651
975.113,46.949081129455635
977.467,28.36554588264653
979.819,0.03492491469569359
982.17,6.766747345871181
984.519,11.846663928962471
986.866,31.988826219615476
989.212,40.05017120996581
991.556,43.17327860673686
993.899,53.786370966487084
996.24,64.36521859275649
998.579,53.29028252845478
1000.92,61.70385754824838
1003.25,50.700548484280716
1005.59,22.8986989328464
1007.92,35.05943900868351
1010.25,38.27716167069161
1012.58,54.64619184202388
1014.91,72.64174124445594
1017.24,91.50086323276241
1019.56,71.17483620052053
1021.88,61.66249936686904
1024.2,66.1531123727882
1026.52,84.93111963929232
1028.84,92.42377186846898
1031.16,122.58208087786511
1033.48,129.30939348248035
1035.79,137.08044156724395
1038.1,158.8461064452017
1040.41,177.12865940618167
1042.72,151.54557369402937
1045.03,152.85714600765573
1047.33,149.15697514493627
1049.64,126.53863112280806
1051.94,131.66708620212444
1054.24,166.92157448394119
1056.54,152.34797531532422
1058.84,170.94453002848763
1061.13,169.32851106089015
1063.43,156.87908155151808
1065.72,170.49920255621532
1068.01,222.13944502491836
1070.3,252.32180177889313
1072.59,271.2349280593926
1074.87,261.924620171553
1077.16,236.57953222353035
1079.44,207.6740357227793
1081.72,228.73012679137378
1084.0,262.4602857622915
1086.28,339.5293843947379
1088.56,434.7451645180497
1090.84,537.8201452470237
1093.11,630.4668635305839
1095.38,685.4454956528248
1097.65,641.9924311150141
1099.92,545.7250369937822
1102.19,441.3083270612108
1104.46,381.12163090492913
1106.72,372.3062154291554
1108.98,394.14623968907745
1111.24,419.4497097252406
1113.5,440.9294333979208
1115.76,503.7744514119868
1118.02,543.6500397703307
1120.28,573.2691407987281
1122.53,600.1066513135606
1124.78,592.2565679323943
1127.03,542.8605609559859
1129.28,492.06035777409716
1131.53,419.5215548427402
1133.77,356.8145725185602
1136.02,332.4146575122695
1138.26,323.08283772304117
1140.5,329.4849723109837
1142.74,380.3346112934373
1144.98,431.48823609364786
1147.22,457.18335723229484
1149.45,465.03851678092997
1151.69,436.10090986302794
1153.92,407.9892442502726
1156.15,396.2270761493214
1158.38,363.38566979808843
1160.61,327.9411427763166
1162.83,302.7506589351958
1165.06,243.8143356127016
1167.28,213.41810322988545
1169.5,178.37180298239696
1171.72,150.056808341536
1173.94,134.7593608410159
1176.16,114.28962014944386
1178.37,96.4102379523249
1180.58,78.55064611977559
1182.8,50.33086868376313
1185.01,22.752000482012818
1187.22,-18.232361817138326
1189.42,-43.85897440417148
1191.63,-41.17399149400558
1193.84,-18.890107688851003
1196.04,7.375342259325862
1198.24,1.7194218467577684
1200.44,12.429772020770542
1202.64,21.74650542453196
1204.84,18.528862725818044
1207.03,37.58853688092563
1209.23,38.832523387848596
1211.42,29.263115275125756
1213.61,41.120755233551336
1215.8,46.64593536693087
1217.99,71.7934808244845
1220.18,96.80397629039567
1222.36,105.15614485431229
1224.55,119.61446497708675
1226.73,104.9910731708012
1228.91,100.62195239308176
1231.09,102.08121567950411
1233.27,90.56205644267197
1235.44,70.4481749617687
1237.62,104.40901439591676
1239.79,144.97118727372663
1241.96,215.0422829352242
1244.13,293.81562735473585
1246.3,380.2940905828102
1248.47,464.43294180720477
1250.64,597.4255615567154
1252.8,750.4653443812088
1254.96,936.8885539125945
1257.13,1122.69813030676
1259.29,1318.9922595902501
1261.44,1505.107228721245
1263.6,1612.3793282695885
1265.76,1658.6686598587103
1267.91,1588.978181702797
1270.06,1461.6441827153863
1272.22,1287.669613760827
1274.37,1144.29551414383
1276.51,1020.8581523847377
1278.66,932.455690804311
1280.81,816.852945346614
1282.95,735.7670977828545
1285.09,659.9629317247482
1287.23,649.2052114950252
1289.37,672.2586800455567
1291.51,696.1737711611922
1293.65,690.3342264255066
1295.78,684.1237598055955
1297.92,670.9736746178219
1300.05,680.4104804935641
1302.18,678.2939865354424
1304.31,684.8649182830632
1306.44,711.7925346787611
1308.57,764.127006938101
1310.69,784.394654563242
1312.82,821.4074670705756
1314.94,854.1678638136132
1317.06,884.630596663003
1319.18,916.0360812579788
1321.3,920.1961092101931
1323.41,880.5414650694468
1325.53,857.788590908475
1327.64,837.8919651934461
1329.75,819.7107673687474
1331.87,788.2945900608113
1333.98,744.7405798533796
1336.08,662.812482824675
1338.19,598.9882615131448
1340.3,517.8410452165358
1342.4,452.13436600526006
1344.5,408.91739473575194
1346.6,373.667796111456
1348.7,316.5774408866671
1350.8,277.4571656894202
1352.9,211.54629474914145
1354.99,138.2745425766782
1357.09,147.88105950147383
1359.18,159.74776292302386
1361.27,169.73266856233658
1363.36,174.4556026657683
1365.45,172.5839142088587
1367.54,145.49913948112317
1369.62,159.05890476607988
1371.7,177.35882902127992
1373.79,208.6849027488115
1375.87,234.5134859134257
1377.95,267.5589249082807
1380.03,268.63069333020985
1382.1,241.8238660883169
1384.18,208.32864113162373
1386.25,167.47795641480707
1388.33,139.08082114964918
1390.4,92.99374229458613
1392.47,89.31119866330505
1394.54,84.88944836666883
1396.6,43.20366958798422
1398.67,10.157482310645946
1400.74,-12.726577573256463
1402.8,-31.25943683702326
1404.86,-5.3473861757095165
1406.92,28.91268372153877
1408.98,35.94756612431456
1411.04,51.89821208357148
1413.09,87.71496917106788
1415.15,139.44330007572785
1417.2,171.12854881904946
1419.25,224.4349926847974
1421.3,260.0267989105987
1423.35,291.9966004271646
1425.4,331.3893096927443
1427.45,320.1545039561511
1429.49,269.5750009959834
1431.54,233.26686343126948
1433.58,215.32226017497237
1435.62,209.45232788749172
1437.66,202.22527052540886
1439.7,179.1616017473698
1441.74,149.68653017711927
1443.77,124.89186847605379
1445.81,142.01222813006075
1447.84,152.56788090301916
1449.87,158.22190600458725
1451.9,178.30400392465162
1453.93,205.57240550587562
1455.96,231.54720958767894
1457.98,287.4151492216424
1460.01,324.45816741072576
1462.03,390.52961189610323
1464.05,509.86376327733296
1466.07,660.9329821801489
1468.09,893.2572373766288
1470.11,1160.213633905372
1472.13,1430.6078459535722
1474.14,1721.0550735486174
1476.16,1977.4086182973076
1478.17,2138.1408400774526
1480.18,2196.2479232532814
1482.19,2110.821309557523
1484.2,1946.1905595449007
1486.21,1724.5900235694514
1488.21,1415.8255127618365
1490.22,1121.7028747685613
1492.22,831.2184742530951
1494.22,603.4163400636637
1496.22,467.72150287722343
1498.22,365.89238046249056
1500.22,219.35411532392004
1502.22,130.6747694885421
1504.21,67.75580500708315
1506.21,34.59399302652105
1508.2,34.852846672161604
1510.19,32.10072059638014
1512.18,1.5251010035472063
1514.17,-5.686437658372597
1516.16,-6.441466482410988
1518.14,-11.599840649093949
1520.13,-10.640362352998636
1522.11,0.9582699088418849
1524.09,-1.61587008440938
1526.07,-9.841268779554184
1528.05,-14.767733922942853
1530.03,0.22170150878923778
1532.01,-6.6844589542988615
1533.98,-1.1547483889196428
1535.96,3.2852618365473063
1537.93,-7.747040297424519
1539.9,17.03249970281263
1541.87,34.52718143697916
1543.84,30.354684561359363
1545.81,54.46611326310472
1547.78,75.66980263929872
1549.74,113.25036317125682
1551.7,157.34962996073295
1553.67,172.20475482327015
1555.63,186.00534600059632
1557.59,219.5125126349285
1559.55,230.86838543375438
1561.5,261.1675420965155
1563.46,259.26652797939096
1565.41,254.06956723626968
1567.37,248.9095120549614
1569.32,222.0716490362629
1571.27,194.31750557302666
1573.22,168.88484670541857
1575.17,147.8210053095088
1577.11,127.07811704776987
1579.06,129.32264103385978
1581.0,108.88773764026178
1582.95,106.9637415440227
1584.89,97.69339667725126
1586.83,95.50518641570943
1588.77,82.01809233883523
1590.7,68.422543465952
1592.64,74.14707977819376
1594.58,79.76311097852613
1596.51,70.15158001367013
1598.44,31.479150405547216
