Raman Shift,Processed Intensity
331.095,56.206805627286485
333.909,-7.822462503499082
336.721,8.272996954498922
339.531,68.49318961938752
342.339,123.45717996451185
345.145,135.6650016984886
347.949,192.25956814520123
350.751,205.43143976665806
353.55,231.8950202572987
356.348,294.2218954954319
359.144,361.7932201137296
361.937,389.8473421649501
364.729,424.908380168627
367.518,434.59575253870435
370.306,440.9098974873714
373.091,489.70846911937815
375.874,584.1825335263493
378.656,619.9518125001546
381.435,573.2551653415044
384.212,444.7124992399881
386.988,306.70572727315175
389.761,170.99782164366252
392.532,83.49472405935285
395.301,57.57868468466995
398.068,33.72731537785876
400.833,4.513595309094853
403.596,-14.203647230915067
406.358,-42.6130625461351
409.117,-54.426963923952826
411.874,-6.786085024460135
414.629,6.073752835787218
417.382,14.821633196516359
420.133,-13.111320960323155
422.882,-13.72243097704768
425.629,55.133960171919625
428.374,169.222670844797
431.117,263.7371952851213
433.858,360.06160524232973
436.597,392.151499211393
439.334,392.39114214863866
442.069,377.11727185423524
444.802,364.23814344992024
447.533,344.8525738567314
450.262,371.3927957965452
452.989,429.8625498888546
455.714,473.17041484278843
458.438,466.60599479199254
461.159,457.17324948664555
463.878,393.54287210452185
466.595,344.14752420492187
469.31,324.0865944921279
472.024,301.50714805504776
474.735,279.6991613211371
477.444,309.4288522484303
480.152,336.6529628985086
482.857,360.61399439043635
485.561,394.93544185468545
488.262,430.5741722441999
490.962,457.1061354787971
493.659,498.34540892289806
496.355,530.2489561489756
499.048,533.1070999867197
501.74,572.6387574769578
504.43,661.1342938731996
507.118,732.2174242622386
509.804,804.3214008990326
512.488,896.6890100653977
515.17,996.7059022620324
517.85,1141.9005890672165
520.528,1294.230154281218
523.204,1340.794536499286
525.878,1350.7412878750993
528.551,1378.0750947889983
531.221,1386.4196794685786
533.89,1420.5892254188198
536.556,1443.0169457093425
539.221,1391.0884131664366
541.883,1333.0939381841304
544.544,1316.7999941543112
547.203,1268.3539762301812
549.86,1288.8080077087593
552.515,1321.5951273657715
555.168,1370.5292863143354
557.819,1424.04344010173
560.469,1490.8085931871206
563.116,1498.5433196097574
565.761,1538.5375693714636
568.405,1567.605046247691
571.047,1586.5117760747767
573.687,1608.7856274181295
576.324,1576.3353560499654
578.96,1527.5934589508288
581.594,1464.8018854539887
584.227,1423.9167960088662
586.857,1381.8466542778078
589.485,1357.833176375707
592.112,1338.0227563000972
594.737,1332.323605646965
597.359,1310.786702850372
599.98,1336.1295995649275
602.599,1360.784036572085
605.216,1392.8483215911992
607.831,1448.7063737572566
610.445,1462.0277204795498
613.056,1541.4341609670291
615.666,1659.5950011822129
618.274,1799.79847927128
620.88,1984.9041433751258
623.484,2143.5333246785
626.086,2287.021515221062
628.686,2481.8945552322402
631.284,2606.7257728470495
633.881,2659.4693142980864
636.476,2619.412521726585
639.068,2500.1283109934616
641.659,2295.856120918942
644.249,2034.9304815698001
646.836,1742.4476777847062
649.421,1428.789555556697
652.005,1124.7663760347114
654.587,890.6168123822663
657.166,690.1508037789886
659.745,528.9876475173824
662.321,451.3179006234195
664.895,358.8081386199756
667.468,295.6961904807458
670.038,227.74351644131184
672.607,167.28282390543654
675.174,140.40854049422023
677.739,151.7387156666905
680.303,137.5102556737288
682.864,130.864634702461
685.424,96.80027268733011
687.982,49.45824645449011
690.538,31.074667532875992
693.092,43.45686948907405
695.645,57.26912435370332
698.195,55.41360055566429
700.744,49.1732301942975
703.291,36.783153504634356
705.836,17.57359189409499
708.38,4.77938764583314
710.921,-9.079024077146187
713.461,-9.243212818391385
715.999,15.94993580819073
718.535,38.163479198548885
721.069,53.917580609716424
723.602,56.446673606786135
726.133,54.79472174796774
728.662,44.81524017441416
731.189,11.837983866708328
733.714,-16.616745051032012
736.238,-50.50474238800416
738.759,-61.06740410642351
741.279,-56.35551591961939
743.798,-43.37209592296858
746.314,-31.45333910879026
748.829,7.5885273415069605
751.342,-0.15380616811671644
753.853,-13.539877111961232
756.362,-32.1433582109853
758.869,-23.394917182148674
761.375,-9.915552678238782
763.879,3.5786412008742445
766.381,-4.104480079203768
768.882,-1.6331140938818862
771.38,-5.056275970833212
773.877,21.243818051135804
776.372,26.218414682266484
778.866,59.580792403932264
781.357,87.23483029072759
783.847,125.84643397540094
786.335,129.1292473280896
788.821,130.84464984983197
791.306,119.80175406608578
793.789,168.04787911071844
796.27,243.01140526238305
798.749,337.59700943327334
801.227,460.85232922930527
803.702,565.3965317722
806.176,637.801263473948
808.649,680.2096950493637
811.119,688.5269951000746
813.588,662.5631846508873
816.055,627.747420257585
818.521,556.5089437813926
820.984,494.4675559729635
823.446,427.8621852944566
825.906,354.97945674162656
828.365,340.4870225706627
830.821,305.10022635836185
833.276,273.53448134801783
835.729,270.695744033404
838.181,250.58527345704442
840.631,212.96629527038795
843.079,200.45923722255975
845.525,169.1607741729158
847.97,146.3104921512263
850.412,126.62421908451506
852.854,125.05592695247606
855.293,121.60725299050773
857.731,82.27987803561246
860.167,72.83742868181707
862.601,41.80547467369979
865.034,14.757240585619002
867.465,36.31360321523789
869.894,40.23832707227848
872.321,53.86663320061507
874.747,67.7718632384508
877.171,53.67023871659694
879.594,43.563715594842506
882.014,54.07331498880421
884.433,39.62959675391903
886.851,77.94884735515143
889.266,109.31879154622447
891.68,130.6938278583766
894.092,126.45693075578583
896.503,137.7529813624251
898.912,122.91733628415113
901.319,129.09487262126913
903.724,134.5733186953821
906.128,151.11658477624997
908.53,157.77428428483108
910.931,184.26268356775404
913.329,200.01231833845486
915.726,198.31084821355194
918.122,170.20781601112708
920.516,164.70512133472107
922.908,135.66177987161268
925.298,137.31773031014382
927.687,148.7224031618082
930.074,140.829956250004
932.459,132.88022448449715
934.843,136.44633630255998
937.225,141.29185391961778
939.605,155.8469611989599
941.984,159.01798485477025
944.361,153.90167755992252
946.736,153.9280724823475
949.11,159.28905210711446
951.482,147.27167896327046
953.853,139.35343111258385
956.222,125.10696144781468
958.589,116.29533318146514
960.954,121.96725533452991
963.318,114.83803251097197
965.68,122.57527657694573
968.041,147.27509453051016
970.4,141.65256208562369
972.757,117.85124487518215
975.113,96.91938632074175
977.467,55.33371454985104
979.819,48.047058837198165
982.17,30.393108902900394
984.519,14.372126591743836
986.866,9.793800409568576
989.212,28.086766726314863
991.556,58.82241817971067
993.899,82.76252262823891
996.24,118.81160683463486
998.579,135.15981633986053
1000.92,127.18768009898531
1003.25,109.79944654563792
1005.59,72.47070537074569
1007.92,51.10553311079775
1010.25,51.94125778372654
1012.58,78.78655685812055
1014.91,107.5928885557712
1017.24,133.35925648755256
1019.56,109.98935524168883
1021.88,104.43443025772422
1024.2,109.69328055764504
1026.52,118.9551186198521
1028.84,134.36147787218147
1031.16,141.1490725658764
1033.48,122.79265764955994
1035.79,131.24312673844656
1038.1,150.73703865497373
1040.41,145.17757254086496
1042.72,169.5631020168073
1045.03,163.9871979135612
1047.33,157.6386310030723
1049.64,153.56327949149136
1051.94,151.235560321712
1054.24,186.55843190448832
1056.54,223.10149208763642
1058.84,208.81526660143072
1061.13,216.17406893257112
1063.43,211.98552686481412
1065.72,203.86677568627215
1068.01,210.0539847300456
1070.3,214.59283629580068
1072.59,194.24329028564352
1074.87,202.86053931617698
1077.16,217.34739240199315
1079.44,235.892372924877
1081.72,255.3982927934942
1084.0,315.672731364984
1086.28,389.85660960464133
1088.56,507.80514519799044
1090.84,613.1830933771341
1093.11,709.6076067947256
1095.38,733.314904921747
1097.65,675.7793243976773
1099.92,590.5704646187514
1102.19,502.78176189765054
1104.46,407.17334933747225
1106.72,373.6482500390398
1108.98,376.7761893558254
1111.24,419.2697881012598
1113.5,504.5559938512838
1115.76,551.2046551040348
1118.02,604.880904963356
1120.28,660.0118305365772
1122.53,675.7388566180232
1124.78,653.8225103248853
1127.03,613.451947637863
1129.28,515.959241846564
1131.53,434.72414818537845
1133.77,383.84077323126326
1136.02,352.87948239676257
1138.26,368.50595028016596
1140.5,409.57640149186295
1142.74,433.70904195688513
1144.98,476.3792997412627
1147.22,500.5864944498044
1149.45,538.3776494810218
1151.69,549.5617804725205
1153.92,519.3289456511577
1156.15,479.10739142129296
1158.38,452.6111741435104
1160.61,390.6020676276396
1162.83,323.2705182448183
1165.06,243.23564765862648
1167.28,193.45001746096023
1169.5,159.9139176174465
1171.72,142.48489300808546
1173.94,113.21107949170619
1176.16,96.75977806565766
1178.37,91.4174575969314
1180.58,99.85166231519383
1182.8,82.7300621629563
1185.01,23.67283647908107
1187.22,-16.65208517485894
1189.42,-34.100448854884235
1191.63,-41.004054455869436
1193.84,-12.408849998741516
1196.04,20.02030360990102
1198.24,27.523434582222535
1200.44,42.19783235497789
1202.64,35.188514933435954
1204.84,17.307267663874654
1207.03,21.365967720358412
1209.23,10.557527639131877
1211.42,-12.68696890618935
1213.61,1.2064898860867288
1215.8,25.431030610790458
1217.99,85.70365134547365
1220.18,165.26521656521254
1222.36,187.2614070435368
1224.55,155.26652689621483
1226.73,129.5215963393266
1228.91,105.64863492352424
1231.09,102.22208762543528
1233.27,107.483108081929
1235.44,139.86336563389546
1237.62,174.1278999890801
1239.79,216.32749969443034
1241.96,281.60822346558757
1244.13,351.40187389733205
1246.3,456.9974235549821
1248.47,613.255298208649
1250.64,794.7026124484437
1252.8,1008.4379291092077
1254.96,1234.7026853619066
1257.13,1458.9764283288348
1259.29,1677.5006221273932
1261.44,1869.0405501519617
1263.6,2004.5995983081527
1265.76,2050.419252532789
1267.91,1998.7886201233891
1270.06,1846.901570115284
1272.22,1642.332921277767
1274.37,1461.0384396340683
1276.51,1283.8310264575025
1278.66,1145.3807157914366
1280.81,1019.5003862549647
1282.95,890.1933776104927
1285.09,801.9868216170319
1287.23,751.5983062168309
1289.37,713.5549206743792
1291.51,727.7646816677977
1293.65,749.3260546183265
1295.78,770.242236924574
1297.92,822.0402031015346
1300.05,852.7230832529349
1302.18,877.6749224959606
1304.31,861.4702022907468
1306.44,866.0643141508201
1308.57,890.7935571630594
1310.69,916.8989450314755
1312.82,952.0976321686019
1314.94,974.5829112154661
1317.06,969.8337343710737
1319.18,993.376615674287
1321.3,1036.0713428095019
1323.41,1028.587165102801
1325.53,1040.9742196133434
1327.64,1028.1873381771334
1329.75,962.2765211174587
1331.87,911.3869347648476
1333.98,864.2350994532233
1336.08,770.9660298970009
1338.19,709.9151374729463
1340.3,609.036799168704
1342.4,483.3805455789461
1344.5,415.71010604437924
1346.6,339.55102521931826
1348.7,278.6668510678328
1350.8,241.4877038122686
1352.9,172.9197972627244
1354.99,153.6787696703343
1357.09,164.00396696150096
1359.18,142.08701168641505
1361.27,145.35751482472028
1363.36,149.00688282927058
1365.45,149.46450562227528
1367.54,162.68346840095796
1369.62,145.42626344322525
1371.7,148.36002572285224
1373.79,176.86605423895685
1375.87,212.7064762026189
1377.95,264.78614931873426
1380.03,282.86694502025216
1382.1,228.09155551192453
1384.18,194.74539605215818
1386.25,132.4946977110494
1388.33,105.8626953665123
1390.4,111.65819665279014
1392.47,106.11843662324532
1394.54,77.86145622268464
1396.6,34.3146712358689
1398.67,-12.380368287778765
1400.74,-27.367980514232386
1402.8,-8.030731558043271
1404.86,13.391516641656835
1406.92,36.65874556385597
1408.98,46.0069660300162
1411.04,65.81488179921348
1413.09,90.88960460403109
1415.15,139.1333262368405
1417.2,198.59094301704
1419.25,250.83101359162129
1421.3,313.89814530717103
1423.35,372.40823772472504
1425.4,405.3580118489124
1427.45,416.36311078567337
1429.49,384.4676289714032
1431.54,320.9060223544816
1433.58,266.9126376244167
1435.62,219.0550509648026
1437.66,181.7578829967449
1439.7,170.7313756270562
1441.74,145.44758794407016
1443.77,139.85468735154632
1445.81,144.61505022638175
1447.84,158.77193400490341
1449.87,179.79710165010374
1451.9,211.11463659506944
1453.93,234.7199957816499
1455.96,275.65620555627106
1457.98,340.6329147086035
1460.01,430.21687608166303
1462.03,506.3081424676193
1464.05,632.378167265517
1466.07,822.4698099008942
1468.09,1094.7211507692177
1470.11,1419.3178776078903
1472.13,1774.0171004396811
1474.14,2092.242595087587
1476.16,2391.7990943087407
1478.17,2614.4913408330794
1480.18,2734.2193308782007
1482.19,2680.5497481404122
1484.2,2469.144540642919
1486.21,2127.4752118697425
1488.21,1726.156159518667
1490.22,1336.6589666351495
1492.22,1023.9790736985994
1494.22,781.8262602324794
1496.22,571.196078795343
1498.22,418.5127175433138
1500.22,287.4385294592248
1502.22,186.15975205795144
1504.21,120.67222709174484
1506.21,73.54331073175877
1508.2,32.864259940045486
1510.19,14.82166646059909
1512.18,-0.3501568086487623
1514.17,25.1546391275956
1516.16,21.09439716255497
1518.14,-1.534326207290178
1520.13,4.5984826326539405
1522.11,-23.081795403384604
1524.09,-32.72107350259603
1526.07,-7.17941083082701
1528.05,-4.935771607440756
1530.03,-19.80231152126794
1532.01,0.2660970267434095
1533.98,0.31472013264465204
1535.96,17.388958376689743
1537.93,33.29624759914236
1539.9,62.17748351721502
1541.87,68.93558919914244
1543.84,53.61646349064199
1545.81,64.40897706042233
1547.78,84.12115892188535
1549.74,125.65638295482358
1551.7,176.727649665218
1553.67,220.66710604026798
1555.63,208.9498511177094
1557.59,220.38440822180473
1559.55,261.39843529457016
1561.5,302.13395903652486
1563.46,345.6378471426792
1565.41,377.0046614909079
1567.37,354.90046371127187
1569.32,318.70566837439105
1571.27,301.32456284648083
1573.22,250.042446192012
1575.17,226.43038712398675
1577.11,204.82141052564452
1579.06,180.31049349598015
1581.0,155.99265663335018
1582.95,148.77248389051738
1584.89,136.07840433444358
1586.83,153.81506914419015
1588.77,141.36334765642823
1590.7,114.34222817285786
1592.64,98.46595686286423
1594.58,93.99641476141164
1596.51,79.02882810026676
1598.44,39.563192924939585
