Raman Shift,Processed Intensity
331.095,65.89813090347889
333.909,48.040062199952445
336.721,49.214478802358826
339.531,68.25472063162033
342.339,103.04175983142977
345.145,157.31373116538816
347.949,206.54689098551353
350.751,212.21752858173795
353.55,196.1353061028185
356.348,242.01469371534677
359.144,298.71307142943624
361.937,342.0402594958264
364.729,408.66328689823786
367.518,460.05877889334806
370.306,500.60820169362114
373.091,573.9788214358578
375.874,663.5046631497448
378.656,666.0912792502195
381.435,619.9300418393609
384.212,511.1648159606493
386.988,347.7491090437238
389.761,183.63655368244508
392.532,111.82853327011435
395.301,57.37418858708497
398.068,34.41804343598051
400.833,13.200011229309894
403.596,-22.849360327685645
406.358,-67.25173979227657
409.117,-57.100051664823695
411.874,-38.439423416213685
414.629,-8.505283944537041
417.382,1.0861497697410414
420.133,8.242619339879639
422.882,24.11009445500804
425.629,91.54894725193253
428.374,189.32441337318596
431.117,297.48753200984265
433.858,377.1846666495917
436.597,444.65750201528635
439.334,417.2906600511096
442.069,400.9926492420691
444.802,379.86252821921425
447.533,362.80895031723594
450.262,372.9311128939562
452.989,417.7568495069586
455.714,420.242626852134
458.438,453.82116074983105
461.159,409.3537940357869
463.878,381.6066839758514
466.595,368.3936563473867
469.31,350.3381071397148
472.024,355.2539518736053
474.735,357.76467015885964
477.444,354.0652073947508
480.152,387.5886383752322
482.857,391.7204499417644
485.561,404.8461569694764
488.262,411.494156448568
490.962,436.2881053752362
493.659,481.80406054736795
496.355,498.5704755030861
499.048,513.3062926973939
501.74,573.9209404407202
504.43,620.8476631707977
507.118,738.995899343578
509.804,841.9893736098629
512.488,910.832760420516
515.17,1028.8164428697637
517.85,1140.5165096337287
520.528,1235.4137995280162
523.204,1326.8938984462507
525.878,1390.485231536708
528.551,1404.2400125218064
531.221,1396.686621589034
533.89,1372.115316615204
536.556,1415.7687062954728
539.221,1439.2226994628422
541.883,1465.0055496457448
544.544,1454.3597567684965
547.203,1423.7182545660394
549.86,1400.5615503796244
552.515,1434.7034363810826
555.168,1448.386224606586
557.819,1492.8997915142381
560.469,1543.7720511130751
563.116,1595.8165709492246
565.761,1618.3230452349194
568.405,1624.2001489298896
571.047,1612.6422013465694
573.687,1625.7482107076798
576.324,1612.8075853704859
578.96,1574.490606955806
581.594,1542.7055701436948
584.227,1499.4559224691202
586.857,1467.6974041176336
589.485,1417.004711530581
592.112,1343.857208629342
594.737,1330.9246380395825
597.359,1347.8766418393134
599.98,1398.9065680212411
602.599,1456.4457531455955
605.216,1471.4968526120047
607.831,1473.7766947408913
610.445,1526.0019919977317
613.056,1602.3655284077772
615.666,1720.5837755422053
618.274,1881.6111751709414
620.88,2056.592517153563
623.484,2212.4343649492694
626.086,2361.424100174453
628.686,2529.9442052555255
631.284,2660.0913079865054
633.881,2728.580940372309
636.476,2702.4618212815726
639.068,2596.8777581470918
641.659,2378.4962153329225
644.249,2137.746406311012
646.836,1868.2002429806844
649.421,1561.9056659404991
652.005,1272.6247366648863
654.587,1028.9764915855358
657.166,798.4369390299353
659.745,592.434294255147
662.321,455.92040495776746
664.895,333.1326529743751
667.468,239.02252264863864
670.038,188.68416919843185
672.607,198.92584422580103
675.174,196.26989265550355
677.739,218.90513062592754
680.303,182.21065195144092
682.864,121.85106315616758
685.424,64.72886136490342
687.982,52.17490743213966
690.538,45.710327642505945
693.092,45.37985053544662
695.645,22.98991100648118
698.195,13.680092463595884
700.744,-3.838759710344675
703.291,-14.713088915746994
705.836,-26.803748052048377
708.38,-13.209787325236903
710.921,32.82680391035319
713.461,64.63539986358137
715.999,110.92627766203032
718.535,115.50491861230967
721.069,92.41488088892265
723.602,72.22352936599282
726.133,96.64109878232648
728.662,70.4254711921867
731.189,51.90600103510769
733.714,28.793054491438397
736.238,8.511358361683051
738.759,-15.514270101769398
741.279,2.6172828275639404
743.798,-9.668938056106072
746.314,-21.900133388034646
748.829,-30.55573525394766
751.342,-44.82929797294901
753.853,-41.295152995259286
756.362,-29.146495501865047
758.869,7.852238557643432
761.375,21.88918160368621
763.879,3.6288406238372772
766.381,-19.502191868138652
768.882,-10.124764968473755
771.38,14.330922528018164
773.877,67.00627118222565
776.372,92.7095156793107
778.866,118.29667388299504
781.357,119.76678160412939
783.847,163.59522260736685
786.335,155.97182052258495
788.821,164.56274028012967
791.306,168.03429430795222
793.789,196.57674872875396
796.27,227.1424152714153
798.749,341.96945746813253
801.227,443.05807780394025
803.702,574.0752762948064
806.176,656.1167519228648
808.649,687.1354707383193
811.119,709.4654720565795
813.588,694.8218651315938
816.055,679.7770163053738
818.521,620.8557837765616
820.984,564.678371416624
823.446,471.293658776523
825.906,454.3220549029061
828.365,400.09835215429894
830.821,366.3383895411084
833.276,302.23428749419645
835.729,262.0734921572648
838.181,193.90543872686567
840.631,198.73202431621985
843.079,198.17427129523003
845.525,200.66280015430493
847.97,192.58068332056018
850.412,165.2634418311659
852.854,124.04666105430942
855.293,90.98027307683378
857.731,60.82855337758656
860.167,43.30821273886204
862.601,46.85029868164975
865.034,64.83828737707745
867.465,52.322366034034985
869.894,34.25752481061636
872.321,35.45593443983944
874.747,39.82503814108168
877.171,54.27231019818464
879.594,62.657633585172334
882.014,35.55520140150065
884.433,39.872561164443596
886.851,54.18394481576979
889.266,74.30169396651354
891.68,96.60958990365498
894.092,137.53904073966032
896.503,147.2357447525019
898.912,164.27397277328964
901.319,172.08513628819492
903.724,172.957784111798
906.128,160.79950382234802
908.53,201.75596605416104
910.931,179.49663545668955
913.329,172.9290530821545
915.726,139.8178806779424
918.122,130.35632593138826
920.516,126.64232961931111
922.908,138.01189561469755
925.298,119.27718279814462
927.687,126.34554935025562
930.074,130.21954942498587
932.459,139.61597744203982
934.843,145.01348380783975
937.225,132.36685730315867
939.605,99.10702175647702
941.984,90.8076993839968
944.361,101.56635984395507
946.736,117.28993119568759
949.11,122.07574895393782
951.482,138.35440990506595
953.853,110.50881639945283
956.222,100.49322064390208
958.589,102.45226899403997
960.954,130.0543319610074
963.318,133.96769136100102
965.68,146.62244175052615
968.041,142.5438204330901
970.4,117.82839460873902
972.757,94.85834376169419
975.113,58.63478966703724
977.467,32.11112639738917
979.819,14.812064615306099
982.17,9.690771103770885
984.519,-1.5854202747445925
986.866,14.269751504021542
989.212,10.970997608200378
991.556,13.804335498323326
993.899,32.150898904685846
996.24,32.439320353850235
998.579,52.19335318998037
1000.92,78.88901740570168
1003.25,85.33555499676709
1005.59,57.29448055482135
1007.92,64.86053662206564
1010.25,72.84264904593078
1012.58,77.43059661944994
1014.91,85.4331092930654
1017.24,94.27787114834496
1019.56,88.4400948002667
1021.88,79.91871484712647
1024.2,87.3792479871031
1026.52,73.20141503958962
1028.84,69.38390582366537
1031.16,70.68723927466044
1033.48,76.82424260834205
1035.79,91.07910191366773
1038.1,125.11688893601831
1040.41,151.98356405089635
1042.72,162.10597923762975
1045.03,157.95854771974723
1047.33,135.25372312915738
1049.64,112.13247867033579
1051.94,70.5452624749853
1054.24,81.15676248050568
1056.54,96.29829035608373
1058.84,124.25349876211476
1061.13,144.591717657245
1063.43,159.59652870064656
1065.72,147.55148251144487
1068.01,192.69248259480446
1070.3,220.0173121251628
1072.59,208.42849406279083
1074.87,175.16186555606737
1077.16,136.50086662946524
1079.44,101.58606696677793
1081.72,148.41516888481965
1084.0,201.2239626880796
1086.28,302.1053772614698
1088.56,406.7237687583163
1090.84,504.4101616692942
1093.11,582.4479660818463
1095.38,622.1682187491267
1097.65,567.2353003494227
1099.92,516.4564622693915
1102.19,439.44849624443236
1104.46,397.0186897133515
1106.72,385.87911450635465
1108.98,380.503772675901
1111.24,405.8428851846911
1113.5,458.18003773652003
1115.76,523.4655170833212
1118.02,601.6496473322097
1120.28,665.9685072049069
1122.53,671.0391711066943
1124.78,653.6216168620226
1127.03,577.380633450123
1129.28,484.98106207395085
1131.53,418.7544658005579
1133.77,368.1753230109923
1136.02,329.8134113263916
1138.26,326.952858200744
1140.5,340.4969057993694
1142.74,376.9202949250164
1144.98,435.8883156106251
1147.22,471.35204818828174
1149.45,480.59598531054803
1151.69,500.85708254322253
1153.92,483.1342851485813
1156.15,456.61710248766553
1158.38,429.3998967082848
1160.61,381.4342666711202
1162.83,317.3385747329669
1165.06,267.6360449585559
1167.28,210.3261946656994
1169.5,179.3610278752069
1171.72,165.12122876079502
1173.94,162.13045033709182
1176.16,128.24579362383406
1178.37,94.75304871482058
1180.58,63.604792989726775
1182.8,54.65848932591916
1185.01,23.96220335789326
1187.22,10.564130260524507
1189.42,-17.201687991493145
1191.63,-26.33440726896424
1193.84,-16.21399630532119
1196.04,-5.648853554562265
1198.24,-9.209141225240273
1200.44,-12.750597252301532
1202.64,-18.557395485173856
1204.84,-1.1040544812460666
1207.03,18.754080888513727
1209.23,22.257022449831766
1211.42,66.4067978080027
1213.61,56.11030183121875
1215.8,69.13167422114725
1217.99,84.23515327398809
1220.18,99.2803105939131
1222.36,111.98395247317376
1224.55,159.25344984364028
1226.73,129.28197299024032
1228.91,121.9770595977327
1231.09,84.34156374985628
1233.27,87.28317635704502
1235.44,94.2810884412902
1237.62,171.3383687067144
1239.79,222.6486268244323
1241.96,286.54839100312734
1244.13,363.8504379405704
1246.3,497.6533132513366
1248.47,639.4841852278503
1250.64,838.5845557442838
1252.8,1011.1007330652237
1254.96,1209.6552570352897
1257.13,1464.4421337925503
1259.29,1719.2268323867142
1261.44,1942.6319956830296
1263.6,2098.470770313796
1265.76,2123.1753747251296
1267.91,2061.9399529379943
1270.06,1925.2919997378165
1272.22,1740.7114049117201
1274.37,1553.4875927238577
1276.51,1373.5290423431254
1278.66,1178.50614160421
1280.81,1016.8035645781658
1282.95,905.7107443810883
1285.09,845.3266316970626
1287.23,821.2263580630286
1289.37,842.8421848679282
1291.51,836.9873094947075
1293.65,852.474909557558
1295.78,865.499091901069
1297.92,864.3491749327084
1300.05,874.981113812448
1302.18,916.6841637376351
1304.31,917.2713527516667
1306.44,927.2699545526625
1308.57,930.1595803497585
1310.69,931.0864611955906
1312.82,981.292016033057
1314.94,1045.065229265901
1317.06,1102.3616949959505
1319.18,1134.851232688932
1321.3,1148.6797885545639
1323.41,1141.1837178790404
1325.53,1129.4135911670376
1327.64,1088.9437145694415
1329.75,1037.157840787254
1331.87,947.392022832651
1333.98,871.6965154090824
1336.08,806.9786286723302
1338.19,730.6217724677515
1340.3,662.2473577103738
1342.4,558.2862215745154
1344.5,455.1214812548394
1346.6,381.8980543940652
1348.7,281.7607509392601
1350.8,231.04474595050624
1352.9,222.8470047905248
1354.99,237.50247021905716
1357.09,233.53643996344067
1359.18,203.7121823844202
1361.27,154.17379023720264
1363.36,136.06522490870066
1365.45,128.57793208334533
1367.54,144.56988598032626
1369.62,151.04177644797028
1371.7,167.8036722485956
1373.79,216.76073196240964
1375.87,276.008438700929
1377.95,304.97545386802585
1380.03,288.9950423495345
1382.1,252.87649770287499
1384.18,217.95275782285444
1386.25,179.65183013128194
1388.33,153.25869295706798
1390.4,118.34386358297843
1392.47,85.95387105430723
1394.54,36.8493480351583
1396.6,17.171694093300403
1398.67,-4.55692768165045
1400.74,-5.624066363556267
1402.8,-8.317456990793971
1404.86,25.21783844340871
1406.92,28.12228935732287
1408.98,49.20284923273584
1411.04,72.64724426318526
1413.09,130.97636017592276
1415.15,179.710914768159
1417.2,253.2762256814101
1419.25,345.430787699647
1421.3,409.45675480935165
1423.35,493.44566035481125
1425.4,541.9650895743655
1427.45,504.91582832712265
1429.49,437.38901181968527
1431.54,383.80898761859225
1433.58,299.3142739008538
1435.62,276.99566056162985
1437.66,243.8485960362068
1439.7,208.10652650291854
1441.74,193.3837588955996
1443.77,191.24689534460754
1445.81,171.97674380831722
1447.84,160.04451441890978
1449.87,149.06420630434013
1451.9,198.60213726744905
1453.93,239.462663941262
1455.96,305.49771146810417
1457.98,355.1782079406182
1460.01,421.68932836659906
1462.03,503.97811958620514
1464.05,674.2296966177444
1466.07,877.5339151939324
1468.09,1142.3615681076737
1470.11,1463.3739148911682
1472.13,1823.2798305426497
1474.14,2145.8834304435914
1476.16,2452.3697905140107
1478.17,2677.495429272533
1480.18,2736.683551801228
1482.19,2689.5002460913856
1484.2,2483.702107960732
1486.21,2177.9981516849357
1488.21,1828.0021968195747
1490.22,1464.32811216498
1492.22,1110.5422025882092
1494.22,818.0203577497848
1496.22,571.9956770209089
1498.22,381.034665829249
1500.22,259.46581295710575
1502.22,160.2367392681474
1504.21,122.1046797674785
1506.21,70.58887042361084
1508.2,57.39912546662799
1510.19,32.531081353016816
1512.18,25.266202635258423
1514.17,9.362264021903002
1516.16,11.005737199546502
1518.14,-15.807250916622024
1520.13,-7.556626598938237
1522.11,6.087350848049027
1524.09,-6.4978114429936795
1526.07,-14.220169773163207
1528.05,-26.844768986393774
1530.03,-27.660306334070583
1532.01,3.187536522317714
1533.98,23.31513960093139
1535.96,11.386654401922215
1537.93,21.542570852636572
1539.9,27.97114139567043
1541.87,48.67028126740456
1543.84,50.54280210987213
1545.81,60.25355034453628
1547.78,54.27702173654097
1549.74,92.51640453039431
1551.7,122.3035749666019
1553.67,136.06575946497424
1555.63,139.8969587126926
1557.59,209.41508603808757
1559.55,268.9048200701295
1561.5,318.6509335884052
1563.46,354.7954318968982
1565.41,340.766119769193
1567.37,294.4670731555934
1569.32,267.3262537473752
1571.27,233.05740925533155
1573.22,178.6124498787899
1575.17,172.8957295365367
1577.11,149.76404138345674
1579.06,115.26470856526385
1581.0,131.44510354466297
1582.95,151.7812150465545
1584.89,143.22526262229053
1586.83,139.25331121392946
1588.77,99.5795523851582
1590.7,63.3943950760231
1592.64,60.745413500521636
1594.58,62.63258075847875
1596.51,60.38921673314212
1598.44,44.848650274482
