Raman Shift,Processed Intensity
331.095,51.750782142857176
333.909,31.007752380952386
336.721,3.955838095238107
339.531,-16.116319047619044
342.339,11.508245238095267
345.145,15.04680952380953
347.949,27.836668095238107
350.751,19.834984761904746
353.55,-4.381140952380962
356.348,-11.66222142857142
359.144,-16.048175238095272
361.937,-42.720711904761906
364.729,-31.717531428571412
367.518,13.020006190476256
370.306,77.50437523809536
373.091,205.177523809524
375.874,268.7686333333335
378.656,310.5795047619049
381.435,299.9606523809525
384.212,230.0732833333334
386.988,109.03253809523812
389.761,43.24025952380954
392.532,-13.233454761904747
395.301,-8.174477714285683
398.068,11.108741571428583
400.833,26.832826000000004
403.596,27.78718747619049
406.358,16.572064095238083
409.117,-13.353922714285723
411.874,-20.91182295238096
414.629,-9.497561904761879
417.382,10.875133333333366
420.133,45.71754285714289
422.882,71.63739047619052
425.629,83.10076190476198
428.374,121.52734285714295
431.117,182.19468095238105
433.858,206.38141904761918
436.597,219.98638095238104
439.334,215.00442857142866
442.069,187.14580952380965
444.802,168.55025714285725
447.533,140.59601904761914
450.262,127.51932380952391
452.989,153.0333142857144
455.714,170.13794285714297
458.438,180.5476380952382
461.159,184.40621904761915
463.878,148.2867238095239
466.595,118.5722095238096
469.31,123.69375238095245
472.024,115.17830476190483
474.735,124.36253333333343
477.444,148.8696761904763
480.152,158.89447619047627
482.857,156.1562380952382
485.561,149.46938095238102
488.262,134.93411428571437
490.962,121.9374476190477
493.659,117.00910476190484
496.355,95.5361428571429
499.048,85.09664761904769
501.74,87.9825714285715
504.43,117.43839047619056
507.118,109.18554285714293
509.804,133.13554285714292
512.488,157.24780952380965
515.17,189.19628571428586
517.85,226.74976190476204
520.528,240.43899047619055
523.204,184.84277619047626
525.878,153.06362857142867
528.551,126.58447619047625
531.221,87.3648571428572
533.89,83.0304571428572
536.556,69.73108571428575
539.221,83.75926190476197
541.883,86.97894285714291
544.544,106.34896190476198
547.203,126.11354285714293
549.86,137.08840000000006
552.515,120.3273714285715
555.168,126.9792190476191
557.819,106.2873238095239
560.469,126.30520952380962
563.116,163.89497142857152
565.761,164.25209523809534
568.405,163.42897142857151
571.047,139.81128095238103
573.687,131.30774285714293
576.324,119.63704285714293
578.96,122.13640000000007
581.594,137.3804333333334
584.227,143.65811904761912
586.857,141.59141904761913
589.485,139.0403952380953
592.112,124.34082857142866
594.737,118.39955238095246
597.359,105.74204761904767
599.98,90.41769047619054
602.599,99.95126666666674
605.216,107.15368095238105
607.831,131.69221904761915
610.445,142.23386666666673
613.056,130.7312190476191
615.666,104.18433809523813
618.274,82.35472380952386
620.88,99.622661904762
623.484,140.93929523809535
626.086,175.77986190476204
628.686,221.85721904761917
631.284,222.83628571428582
633.881,230.57276190476205
636.476,242.01652380952396
639.068,271.9745714285716
641.659,265.58747619047637
644.249,254.66190476190485
646.836,213.76611428571437
649.421,171.5639333333334
652.005,118.1946714285715
654.587,92.55974761904766
657.166,64.60816571428575
659.745,40.76482047619049
662.321,33.64496952380955
664.895,25.244784285714296
667.468,8.131839047619042
670.038,-11.650081428571433
672.607,-0.8191742857142774
675.174,-0.09358428571427013
677.739,20.570457142857162
680.303,37.883422380952396
682.864,30.46057333333335
685.424,39.82196142857148
687.982,60.392406666666695
690.538,52.97775714285718
693.092,44.05050000000002
695.645,52.84510000000003
698.195,48.596058095238135
700.744,50.347447619047635
703.291,41.571937619047624
705.836,9.456537380952382
708.38,1.7120880952381246
710.921,28.43046119047622
713.461,44.846418571428586
715.999,45.24241071428574
718.535,40.75807952380952
721.069,14.771228571428587
723.602,13.040657142857173
726.133,51.3254790476191
728.662,55.09874809523812
731.189,70.16711238095243
733.714,55.05161333333335
736.238,41.559057142857185
738.759,44.59160095238099
741.279,77.48028542857146
743.798,62.27011709523812
746.314,61.38736561904762
748.829,32.30599233333335
751.342,9.357174809523821
753.853,16.062668333333363
756.362,37.706234809523835
758.869,44.09552504761908
761.375,39.895418714285725
763.879,46.10419704761907
766.381,20.91076333333335
768.882,25.646890476190514
771.38,50.64462238095243
773.877,68.5691685714286
776.372,70.51448047619051
778.866,66.1460542857143
781.357,39.31998571428574
783.847,53.46367619047625
786.335,69.71933809523814
788.821,84.51457619047625
791.306,83.1343142857143
793.789,61.2921904761905
796.27,36.03516190476196
798.749,77.50555238095247
801.227,110.2268857142858
803.702,142.29376666666676
806.176,156.37260000000006
808.649,144.22496190476198
811.119,119.75566666666674
813.588,113.58369047619054
816.055,131.85199047619057
818.521,109.56034761904768
820.984,112.04212380952389
823.446,109.91664761904768
825.906,100.94634761904767
828.365,84.41711428571435
830.821,82.61517142857146
833.276,46.77896190476195
835.729,54.575509523809565
838.181,64.91033809523813
840.631,63.26029047619053
843.079,80.29275238095242
845.525,81.19893809523813
847.97,70.21779523809528
850.412,68.58831428571432
852.854,59.120966666666696
855.293,57.340606666666716
857.731,53.629242380952405
860.167,58.79750476190479
862.601,37.98942285714287
865.034,31.825291428571454
867.465,31.21116285714288
869.894,42.38648000000002
872.321,25.162155714285735
874.747,36.063405714285736
877.171,49.949033333333375
879.594,69.01090952380957
882.014,87.58390952380958
884.433,91.76491904761907
886.851,84.2222333333334
889.266,103.00519523809533
891.68,112.25862857142863
894.092,105.98411904761912
896.503,119.51690952380959
898.912,108.52550000000006
901.319,116.01150952380961
903.724,129.119880952381
906.128,120.37656190476196
908.53,105.30714761904768
910.931,110.86600000000007
913.329,97.62658095238102
915.726,85.73356666666672
918.122,82.8560190476191
920.516,85.80550000000005
922.908,88.82192380952388
925.298,114.85970000000007
927.687,123.49258571428578
930.074,91.19888095238102
932.459,101.21887142857149
934.843,95.50698571428578
937.225,85.68431428571436
939.605,104.0863571428572
941.984,110.66769047619054
944.361,88.23992380952386
946.736,85.09084285714289
949.11,58.0798142857143
951.482,26.256490476190503
953.853,35.38509047619053
956.222,72.56288095238102
958.589,95.744180952381
960.954,93.1691904761905
963.318,71.03041904761906
965.68,46.99657619047623
968.041,59.21280952380959
970.4,77.01436190476196
972.757,79.06977619047623
975.113,66.61911428571432
977.467,30.66432380952381
979.819,8.826380952380969
982.17,12.34533333333335
984.519,28.889634285714315
986.866,28.175400952380965
989.212,43.91867809523812
991.556,43.26407523809526
993.899,46.30847333333336
996.24,41.053481904761924
998.579,47.119624761904774
1000.92,20.460714285714303
1003.25,34.982814285714326
1005.59,52.68714761904765
1007.92,63.479504761904806
1010.25,69.31316666666672
1012.58,90.18900952380959
1014.91,92.1076190476191
1017.24,102.68857142857148
1019.56,100.59895714285717
1021.88,96.31528571428578
1024.2,79.12335238095244
1026.52,92.8330095238096
1028.84,123.634561904762
1031.16,145.9561714285715
1033.48,149.7501238095239
1035.79,150.4446476190477
1038.1,130.65842857142866
1040.41,158.91461904761917
1042.72,191.92685714285724
1045.03,241.69409523809537
1047.33,229.50171428571437
1049.64,206.44376190476203
1051.94,179.1862380952382
1054.24,177.01342857142868
1056.54,166.16209523809536
1058.84,184.67871428571436
1061.13,177.89552380952392
1063.43,177.71557142857154
1065.72,182.66157142857156
1068.01,200.01785714285725
1070.3,192.25857142857154
1072.59,158.23938095238105
1074.87,150.62533333333343
1077.16,149.2239047619049
1079.44,181.08133333333348
1081.72,211.48157142857156
1084.0,233.6128571428573
1086.28,272.37790476190503
1088.56,342.013285714286
1090.84,457.8501428571432
1093.11,572.3625714285718
1095.38,586.1676190476193
1097.65,560.9298095238098
1099.92,502.503904761905
1102.19,434.74547619047644
1104.46,381.842523809524
1106.72,369.60233333333355
1108.98,340.1182380952383
1111.24,370.9593333333336
1113.5,395.5040952380955
1115.76,460.75042857142887
1118.02,473.6006190476194
1120.28,492.2434285714288
1122.53,475.4862380952384
1124.78,463.945904761905
1127.03,423.7626190476193
1129.28,386.5057142857145
1131.53,319.268142857143
1133.77,240.57185714285723
1136.02,187.98609523809534
1138.26,171.08038095238106
1140.5,159.09042857142867
1142.74,159.10957142857154
1144.98,179.80209523809535
1147.22,187.83276190476204
1149.45,220.6759047619049
1151.69,231.75819047619058
1153.92,213.74476190476204
1156.15,197.20495238095248
1158.38,171.37485714285725
1160.61,154.77661904761916
1162.83,147.59909523809532
1165.06,121.36430476190483
1167.28,104.68999523809529
1169.5,98.66980000000005
1171.72,95.11186190476198
1173.94,114.25275238095246
1176.16,127.94832857142863
1178.37,128.5783333333334
1180.58,95.09393333333338
1182.8,83.68479047619053
1185.01,76.77837142857148
1187.22,74.8973742857143
1189.42,59.56489333333335
1191.63,47.637316190476206
1193.84,18.161600000000018
1196.04,12.803978571428582
1198.24,9.754386666666674
1200.44,11.060086190476198
1202.64,21.054190476190506
1204.84,40.40321000000002
1207.03,38.58331619047619
1209.23,25.023157142857148
1211.42,22.246763809523824
1213.61,10.349704285714301
1215.8,15.28486571428573
1217.99,29.862376666666687
1220.18,39.51158380952384
1222.36,39.90000571428573
1224.55,36.21914761904762
1226.73,19.66061285714286
1228.91,-0.298125714285705
1231.09,13.534829047619079
1233.27,22.732429047619068
1235.44,46.53438857142861
1237.62,51.03769380952384
1239.79,54.672740952380984
1241.96,44.346230000000034
1244.13,57.06015142857147
1246.3,73.6736714285715
1248.47,100.61772380952385
1250.64,111.08515238095245
1252.8,112.03071428571435
1254.96,139.59941904761916
1257.13,181.03182857142872
1259.29,230.56863809523827
1261.44,258.49819047619064
1263.6,248.58514285714296
1265.76,220.64209523809538
1267.91,216.14757142857155
1270.06,211.3427142857144
1272.22,196.65909523809535
1274.37,185.71847619047628
1276.51,159.8095238095239
1278.66,154.69720000000007
1280.81,138.52734285714294
1282.95,127.96992380952388
1285.09,115.36135238095244
1287.23,107.32386666666673
1289.37,84.71769523809529
1291.51,86.68871428571433
1293.65,81.33554285714291
1295.78,77.32805714285719
1297.92,73.38363809523814
1300.05,91.07716190476195
1302.18,68.98309523809527
1304.31,74.5808571428572
1306.44,82.01653333333338
1308.57,108.4838476190477
1310.69,120.9382857142858
1312.82,156.95480952380962
1314.94,143.67919047619054
1317.06,153.35271428571437
1319.18,144.597761904762
1321.3,156.84585714285726
1323.41,169.76657142857152
1325.53,200.17271428571442
1327.64,220.7335714285716
1329.75,244.30971428571445
1331.87,256.6182857142859
1333.98,276.995523809524
1336.08,296.68204761904775
1338.19,282.0620000000001
1340.3,274.0900952380954
1342.4,228.72167619047633
1344.5,175.81640476190486
1346.6,123.94843333333338
1348.7,85.6437523809524
1350.8,65.61951904761912
1352.9,81.02053809523815
1354.99,84.75370000000007
1357.09,109.48814285714292
1359.18,114.84480952380959
1361.27,124.34972857142867
1363.36,139.00473333333338
1365.45,125.47806666666673
1367.54,109.34314285714296
1369.62,139.55419047619057
1371.7,151.44561904761915
1373.79,179.97152380952394
1375.87,211.41871428571437
1377.95,214.88357142857157
1380.03,210.74838095238107
1382.1,203.1570952380953
1384.18,182.20550476190485
1386.25,140.5611476190477
1388.33,131.03394285714293
1390.4,114.33870952380957
1392.47,94.33287142857147
1394.54,70.11193333333337
1396.6,68.10450000000002
1398.67,33.69141904761907
1400.74,34.68179047619051
1402.8,42.69439523809527
1404.86,49.25248571428574
1406.92,47.545814285714314
1408.98,57.8592285714286
1411.04,52.048823809523846
1413.09,56.5420428571429
1415.15,74.05163809523815
1417.2,94.24318095238102
1419.25,106.11486190476197
1421.3,127.28416190476196
1423.35,106.36813333333338
1425.4,101.84101142857146
1427.45,78.08145904761906
1429.49,54.563746666666695
1431.54,48.19008857142861
1433.58,50.6725085714286
1435.62,68.62735619047625
1437.66,79.0520061904762
1439.7,79.13419428571433
1441.74,75.72815761904765
1443.77,66.59288952380956
1445.81,57.439642380952435
1447.84,68.97964000000003
1449.87,59.44784761904768
1451.9,79.55524285714291
1453.93,93.29867619047624
1455.96,97.15095238095245
1457.98,101.82311904761912
1460.01,122.168761904762
1462.03,149.70845238095248
1464.05,175.2004761904763
1466.07,202.0699523809525
1468.09,230.40857142857158
1470.11,251.21300000000016
1472.13,274.8603809523811
1474.14,289.39490476190497
1476.16,295.9560000000002
1478.17,286.58747619047637
1480.18,256.5716666666668
1482.19,218.04809523809533
1484.2,167.87014285714292
1486.21,124.51071428571436
1488.21,110.29973333333339
1490.22,96.61470952380958
1492.22,90.16666190476195
1494.22,83.04754285714291
1496.22,81.4920190476191
1498.22,80.44944285714291
1500.22,82.91647619047623
1502.22,53.22349523809526
1504.21,52.51052857142861
1506.21,43.96494285714289
1508.2,29.86963333333337
1510.19,49.26942380952386
1512.18,80.92365238095242
1514.17,67.68680000000005
1516.16,94.65186190476194
1518.14,106.19717619047623
1520.13,63.55854285714288
1522.11,48.30511428571432
1524.09,45.101519047619064
1526.07,35.51713333333338
1528.05,65.21662380952385
1530.03,94.43636190476195
1532.01,79.55559047619053
1533.98,95.04890000000006
1535.96,77.86713809523812
1537.93,77.43752380952387
1539.9,84.52051428571433
1541.87,92.87665714285718
1543.84,90.6003952380953
1545.81,123.83352380952388
1547.78,133.5749000000001
1549.74,156.53801904761914
1551.7,167.9602380952382
1553.67,184.22152380952394
1555.63,184.0834761904763
1557.59,185.7836666666668
1559.55,193.27380952380963
1561.5,206.12533333333346
1563.46,219.09980952380968
1565.41,224.2444761904763
1567.37,218.55909523809538
1569.32,202.8531904761906
1571.27,199.46000000000015
1573.22,198.90357142857152
1575.17,195.6125238095239
1577.11,193.0157142857144
1579.06,190.20861904761915
1581.0,212.90595238095256
1582.95,221.9651904761906
1584.89,225.81528571428584
1586.83,222.3613809523811
1588.77,221.69957142857152
1590.7,209.49704761904775
1592.64,222.56380952380962
1594.58,216.68635714285716
1596.51,214.10342857142874
1598.44,222.14902380952424
