Raman Shift,Processed Intensity
331.095,28.103079999999988
333.909,-3.53042238095243
336.721,-6.056387738095271
339.531,4.813614761904768
342.339,6.0105549999999885
345.145,-12.938917619047633
347.949,-16.602261904761903
350.751,5.215980952380972
353.55,8.093333333333325
356.348,-6.105885714285732
359.144,-16.56379714285716
361.937,-43.27083047619049
364.729,-20.168503809523767
367.518,35.51725904761912
370.306,125.94274380952396
373.091,241.59890761904782
375.874,321.692321904762
378.656,358.66876190476205
381.435,338.69000000000005
384.212,248.20471428571437
386.988,151.51993809523813
389.761,57.65835238095239
392.532,-12.832199999999972
395.301,-11.355114285714267
398.068,0.2593952380952529
400.833,7.087099999999996
403.596,19.72885714285715
406.358,-1.7845095238095237
409.117,-7.039971428571414
411.874,14.519823809523837
414.629,53.881614285714335
417.382,62.70050952380957
420.133,90.25172857142861
422.882,107.62110000000007
425.629,94.27654285714294
428.374,128.73450952380966
431.117,192.94096190476202
433.858,220.12880952380968
436.597,228.15077142857155
439.334,205.52715238095246
442.069,150.6364476190477
444.802,106.5241095238096
447.533,105.8558761904763
450.262,158.39298571428583
452.989,214.4216285714287
455.714,241.94245238095252
458.438,256.3859238095239
461.159,207.22998095238103
463.878,133.52485714285723
466.595,104.9400476190477
469.31,89.81283809523816
472.024,94.24208571428579
474.735,126.08966666666676
477.444,137.12219523809532
480.152,119.77341904761913
482.857,128.61981428571437
485.561,137.85799047619057
488.262,151.0649000000001
490.962,166.81840000000008
493.659,154.74404761904768
496.355,153.46723809523817
499.048,147.6612857142858
501.74,145.66666666666674
504.43,143.01366666666675
507.118,127.66195238095244
509.804,114.57104761904772
512.488,159.31957142857155
515.17,198.1526666666668
517.85,218.8395714285715
520.528,228.6250476190477
523.204,195.32590476190484
525.878,153.42526666666674
528.551,132.2160571428572
531.221,118.0858190476191
533.89,80.3748571428572
536.556,80.61316190476197
539.221,96.90278095238104
541.883,122.29751428571436
544.544,135.04186190476196
547.203,118.80846666666669
549.86,82.69830000000005
552.515,74.6216190476191
555.168,79.67924285714292
557.819,95.73361904761913
560.469,128.02788571428582
563.116,144.80497142857155
565.761,167.02134285714294
568.405,180.96720000000008
571.047,165.07528571428577
573.687,136.20647619047625
576.324,120.88819047619056
578.96,128.6952380952382
581.594,131.1538095238096
584.227,146.88614285714297
586.857,162.94233333333344
589.485,137.89571428571435
592.112,112.79600000000006
594.737,123.78751428571437
597.359,104.01418095238103
599.98,117.5726000000001
602.599,141.22526666666673
605.216,117.35359523809531
607.831,110.19598095238103
610.445,132.89528095238103
613.056,129.0223238095239
615.666,136.76718571428577
618.274,138.55730476190482
620.88,149.4871904761906
623.484,166.03142857142868
626.086,204.09352380952396
628.686,215.67114285714297
631.284,212.14338095238105
633.881,211.5079047619049
636.476,229.66738095238108
639.068,225.38085714285728
641.659,241.12200000000013
644.249,222.9826000000001
646.836,171.43589523809533
649.421,129.52629047619052
652.005,88.63137619047623
654.587,57.60490000000005
657.166,64.06241904761909
659.745,49.619176190476196
662.321,21.367004761904774
664.895,11.207000000000015
667.468,26.23073333333337
670.038,28.86322380952383
672.607,39.148485714285734
675.174,43.46394761904765
677.739,38.32996666666669
680.303,46.314541904761946
682.864,51.79519809523809
685.424,26.625737619047626
687.982,6.850456190476201
690.538,9.466096666666672
693.092,-2.006717142857123
695.645,33.47629095238099
698.195,54.43595809523813
700.744,56.77393523809526
703.291,49.15382285714286
705.836,31.382098095238106
708.38,20.598637142857182
710.921,35.514563809523835
713.461,35.03186857142858
715.999,33.43330952380955
718.535,39.47793333333337
721.069,44.25812380952385
723.602,64.48540000000004
726.133,78.8236428571429
728.662,66.36538571428574
731.189,49.679342857142885
733.714,61.715463809523854
736.238,49.04245190476194
738.759,58.467321904761945
741.279,63.41621142857144
743.798,35.220109047619054
746.314,23.68622571428574
748.829,21.24110142857143
751.342,16.97765190476194
753.853,42.75103095238097
756.362,45.98784809523811
758.869,27.876694285714308
761.375,39.177687142857174
763.879,51.07969047619053
766.381,64.34292619047623
768.882,70.06114761904765
771.38,74.56616190476194
773.877,70.28529047619053
776.372,81.5028952380953
778.866,99.55126666666672
781.357,115.47700952380958
783.847,114.89798571428578
786.335,98.28943333333339
788.821,91.79332857142862
791.306,111.12310000000008
793.789,118.13535238095247
796.27,132.2105333333334
798.749,123.96691428571432
801.227,97.9279476190477
803.702,103.61705714285725
806.176,150.8909380952382
808.649,180.4160000000001
811.119,181.4302857142858
813.588,159.74304761904767
816.055,149.21147619047628
818.521,136.12150476190484
820.984,128.1396238095239
823.446,129.74220000000008
825.906,107.12007142857149
828.365,89.79721904761911
830.821,89.15501904761909
833.276,90.33681428571434
835.729,79.4382190476191
838.181,83.07886666666673
840.631,90.49751428571435
843.079,95.1233428571429
845.525,85.19520476190479
847.97,76.38051428571433
850.412,61.870590476190515
852.854,46.71396666666672
855.293,77.81651428571433
857.731,93.70290476190482
860.167,92.70754761904766
862.601,74.92680952380957
865.034,59.59995714285717
867.465,32.96631904761907
869.894,36.07488571428574
872.321,23.68881904761906
874.747,30.904566666666703
877.171,42.34295714285719
879.594,75.43373809523816
882.014,112.03578095238103
884.433,143.7220476190477
886.851,129.77974285714294
889.266,136.87720000000007
891.68,140.30201904761913
894.092,130.00810476190486
896.503,152.2831238095239
898.912,154.2714571428572
901.319,140.40347619047628
903.724,155.87204761904772
906.128,152.10750000000007
908.53,135.92166666666674
910.931,132.74483333333342
913.329,115.9120952380953
915.726,100.85418571428578
918.122,94.95440000000006
920.516,94.4053714285715
922.908,103.30460000000006
925.298,125.32076190476201
927.687,127.31323333333339
930.074,108.33195714285718
932.459,93.85542380952387
934.843,100.36230000000006
937.225,73.28338571428576
939.605,60.43066666666669
941.984,57.04447619047623
944.361,53.460742857142904
946.736,77.44382571428578
949.11,85.37716380952382
951.482,55.83461333333335
953.853,43.723555238095294
956.222,60.37949904761909
958.589,77.80509238095244
960.954,95.43129238095241
963.318,100.11758571428577
965.68,94.58062857142863
968.041,91.77524761904768
970.4,76.89398095238099
972.757,57.22481428571431
975.113,34.10314761904764
977.467,18.530976190476196
979.819,12.176976190476203
982.17,14.51916190476192
984.519,18.321152380952398
986.866,20.44175714285717
989.212,54.31117619047623
991.556,68.93074761904766
993.899,67.4447285714286
996.24,76.61602380952385
998.579,66.6363666666667
1000.92,46.84002380952385
1003.25,63.18030952380956
1005.59,66.46727619047621
1007.92,63.89200000000006
1010.25,74.02619047619054
1012.58,83.44156666666672
1014.91,88.09073809523815
1017.24,108.73570952380959
1019.56,95.47164761904767
1021.88,100.91746666666674
1024.2,102.21574285714293
1026.52,129.17527619047627
1028.84,148.74806666666677
1031.16,169.02882857142865
1033.48,179.2075238095239
1035.79,194.99738095238104
1038.1,200.54057142857155
1040.41,224.78823809523823
1042.72,226.50133333333346
1045.03,213.63114285714298
1047.33,221.2718571428573
1049.64,198.65990476190484
1051.94,185.98461904761916
1054.24,181.00619047619057
1056.54,161.38980952380962
1058.84,151.37238095238104
1061.13,156.0950476190477
1063.43,153.88938095238106
1065.72,176.3252380952382
1068.01,185.97195238095247
1070.3,171.39890476190484
1072.59,156.79533333333342
1074.87,132.53995238095246
1077.16,150.58319047619062
1079.44,193.066142857143
1081.72,236.27200000000016
1084.0,290.865523809524
1086.28,346.2259523809526
1088.56,414.16042857142884
1090.84,524.7145714285718
1093.11,601.4102380952385
1095.38,609.1018095238098
1097.65,568.8352380952384
1099.92,492.7510952380955
1102.19,415.60909523809545
1104.46,382.9309523809526
1106.72,375.8100952380955
1108.98,368.481904761905
1111.24,392.039904761905
1113.5,415.8626190476193
1115.76,453.0908095238098
1118.02,493.5794285714288
1120.28,510.4695714285717
1122.53,490.37819047619075
1124.78,445.5414761904764
1127.03,371.528523809524
1129.28,312.4328571428573
1131.53,266.58566666666684
1133.77,215.36609523809534
1136.02,183.91542857142866
1138.26,156.80323809523819
1140.5,153.55142857142866
1142.74,145.44423809523818
1144.98,159.384761904762
1147.22,180.75214285714299
1149.45,192.78342857142866
1151.69,194.6674761904763
1153.92,204.21252380952387
1156.15,190.89317142857152
1158.38,156.13704285714292
1160.61,134.5141476190477
1162.83,100.4047428571429
1165.06,81.52208095238102
1167.28,89.67487619047625
1169.5,99.00499047619053
1171.72,86.84519047619052
1173.94,86.14721904761909
1176.16,74.43439523809529
1178.37,78.51603333333338
1180.58,83.39166190476195
1182.8,61.82310476190479
1185.01,62.95315714285718
1187.22,45.63904761904763
1189.42,32.16663809523812
1191.63,29.441040000000008
1193.84,21.84360285714286
1196.04,6.089205714285727
1198.24,13.130905714285708
1200.44,1.6838095238095443
1202.64,28.65352000000003
1204.84,35.99345285714288
1207.03,44.46657428571431
1209.23,41.74071333333334
1211.42,25.007580476190487
1213.61,4.8875404761904875
1215.8,20.5724042857143
1217.99,16.635078095238114
1220.18,26.077037619047633
1222.36,21.947473333333335
1224.55,18.24796857142858
1226.73,13.313506190476215
1228.91,32.57434571428574
1231.09,33.460782857142874
1233.27,31.641207619047634
1235.44,25.879377619047645
1237.62,44.22468761904767
1239.79,62.012350952381
1241.96,75.95860571428575
1244.13,80.4462428571429
1246.3,81.19152380952386
1248.47,82.67269047619054
1250.64,92.84411428571434
1252.8,114.04117142857152
1254.96,118.69447619047628
1257.13,134.8534761904763
1259.29,161.52033333333344
1261.44,170.45933333333343
1263.6,152.29161904761915
1265.76,173.25733333333346
1267.91,169.78738095238108
1270.06,161.3599523809525
1272.22,169.26319047619054
1274.37,160.68971428571436
1276.51,137.92733333333342
1278.66,140.59747619047627
1280.81,136.22634285714292
1282.95,118.33989047619055
1285.09,112.89268571428579
1287.23,118.02991904761912
1289.37,112.42053333333338
1291.51,94.543280952381
1293.65,69.68610476190477
1295.78,50.94647619047622
1297.92,26.136071428571455
1300.05,27.11465714285717
1302.18,45.17015714285718
1304.31,51.06685714285718
1306.44,71.09270952380957
1308.57,102.25007619047624
1310.69,93.73176190476197
1312.82,93.30205714285722
1314.94,114.39166666666674
1317.06,131.76505714285727
1319.18,164.32893333333345
1321.3,191.56174285714297
1323.41,212.32304761904777
1325.53,229.18642857142876
1327.64,268.4871904761907
1329.75,309.7515714285716
1331.87,322.45761904761923
1333.98,308.5598571428573
1336.08,288.870142857143
1338.19,263.8187142857144
1340.3,241.50276190476205
1342.4,231.1621904761906
1344.5,205.89400000000012
1346.6,176.89057142857152
1348.7,149.62990476190484
1350.8,141.4469238095239
1352.9,104.5337333333334
1354.99,106.27256190476199
1357.09,108.1411714285715
1359.18,120.33160952380959
1361.27,128.74990476190482
1363.36,126.82585714285719
1365.45,110.46529523809532
1367.54,115.66911428571437
1369.62,138.7241523809525
1371.7,177.63145714285724
1373.79,207.67745714285724
1375.87,212.5770000000001
1377.95,215.56904761904775
1380.03,200.22557142857153
1382.1,187.68950476190486
1384.18,152.3422428571429
1386.25,119.89815238095244
1388.33,99.97633809523815
1390.4,89.14847619047625
1392.47,82.6048952380953
1394.54,67.63076190476193
1396.6,47.22579047619051
1398.67,35.57989523809527
1400.74,42.740057142857175
1402.8,39.8483523809524
1404.86,39.95151904761907
1406.92,46.09610000000004
1408.98,62.51905714285718
1411.04,66.88580952380957
1413.09,64.52831428571432
1415.15,51.30223809523812
1417.2,35.920371428571464
1419.25,47.85723809523814
1421.3,64.3492428571429
1423.35,72.44221904761909
1425.4,75.37243333333339
1427.45,91.99499047619054
1429.49,89.73666190476196
1431.54,106.54778761904768
1433.58,86.61678523809526
1435.62,67.56062285714289
1437.66,45.66287190476193
1439.7,30.064146666666687
1441.74,37.19095190476195
1443.77,60.32678761904765
1445.81,70.8027952380953
1447.84,81.6168428571429
1449.87,95.90941904761908
1451.9,81.9165047619048
1453.93,80.302480952381
1455.96,76.87466666666671
1457.98,71.77371428571433
1460.01,88.37823333333344
1462.03,132.44783809523818
1464.05,158.12338095238107
1466.07,187.2595857142858
1468.09,213.13993333333343
1470.11,215.76252380952394
1472.13,245.41047619047637
1474.14,277.22466666666685
1476.16,283.8698571428573
1478.17,270.9624761904763
1480.18,234.5006666666668
1482.19,190.57771428571436
1484.2,154.09609523809533
1486.21,139.24411428571437
1488.21,121.63903809523813
1490.22,102.65961428571433
1492.22,76.87565238095243
1494.22,68.95181904761908
1496.22,54.029209523809556
1498.22,51.01052857142861
1500.22,46.7988904761905
1502.22,40.96400190476193
1504.21,22.504180476190488
1506.21,26.989218095238115
1508.2,29.417529047619077
1510.19,49.787625714285745
1512.18,49.002752380952394
1514.17,39.82344095238096
1516.16,30.343580476190496
1518.14,18.228577142857155
1520.13,12.524795714285734
1522.11,33.37399333333335
1524.09,26.251209523809546
1526.07,38.20309047619052
1528.05,61.276272380952406
1530.03,44.80316285714288
1532.01,41.592406666666704
1533.98,54.83364666666669
1535.96,44.19269714285718
1537.93,52.52597714285719
1539.9,61.404153333333355
1541.87,50.255104761904796
1543.84,48.69726666666671
1545.81,64.87272857142862
1547.78,73.35246190476197
1549.74,92.56433333333341
1551.7,113.31730000000006
1553.67,120.13495238095244
1555.63,123.15955238095246
1557.59,137.7239333333334
1559.55,145.73261904761915
1561.5,158.3275238095239
1563.46,167.69909523809534
1565.41,169.70414285714295
1567.37,161.72338095238104
1569.32,157.04223809523816
1571.27,142.08904761904768
1573.22,126.3872857142858
1575.17,114.84190476190481
1577.11,107.35719047619054
1579.06,114.12361904761913
1581.0,124.18842857142866
1582.95,140.0752857142858
1584.89,158.7842857142858
1586.83,162.1725714285715
1588.77,156.24004761904771
1590.7,174.5584761904763
1592.64,161.127761904762
1594.58,162.78121428571433
1596.51,157.78050000000007
1598.44,139.2921190476191
