Raman Shift,Processed Intensity
331.095,76.12342142857122
333.909,6.394926190476141
336.721,-21.911038095238055
339.531,-20.673138095238087
342.339,-6.889371428571414
345.145,32.39505714285717
347.949,40.707350476190484
350.751,36.43271714285715
353.55,16.957230476190478
356.348,5.477401428571432
359.144,-8.047439047619035
361.937,8.866801428571442
364.729,23.70537047619051
367.518,54.14480047619055
370.306,90.29144952380962
373.091,170.30012000000016
375.874,242.13656190476206
378.656,277.3863809523811
381.435,242.44640952380956
384.212,164.61915714285715
386.988,57.065657142857155
389.761,-9.432893333333327
392.532,-34.09372428571429
395.301,-31.46634857142858
398.068,-23.19370428571428
400.833,0.7968085714285695
403.596,-2.2779147619047873
406.358,-28.24708857142859
409.117,-33.319485714285726
411.874,-31.654757142857136
414.629,7.541223809523844
417.382,38.06396190476192
420.133,36.567480952380976
422.882,53.32613333333339
425.629,90.1393476190477
428.374,117.52199523809534
431.117,183.27600476190486
433.858,213.01353333333344
436.597,205.11001904761915
439.334,177.37028095238102
442.069,141.40994285714294
444.802,106.5119095238096
447.533,116.4365142857144
450.262,150.61094761904775
452.989,186.702161904762
455.714,207.47254285714297
458.438,188.16171428571437
461.159,146.1525952380953
463.878,86.0670428571429
466.595,72.43194761904769
469.31,66.34695238095244
472.024,99.53079523809531
474.735,109.03610000000006
477.444,109.20171428571435
480.152,92.22432380952387
482.857,119.15767619047627
485.561,104.86582857142864
488.262,119.64191428571435
490.962,119.73136190476197
493.659,102.38013333333338
496.355,69.26326666666671
499.048,83.43640000000005
501.74,68.52739047619053
504.43,85.3545714285715
507.118,108.73650000000006
509.804,116.63476190476197
512.488,123.62961428571441
515.17,181.92106666666677
517.85,197.13733333333343
520.528,213.90669523809538
523.204,187.23895714285723
525.878,166.42929523809534
528.551,161.10575714285724
531.221,171.61134285714294
533.89,151.57386190476197
536.556,142.3358095238096
539.221,94.95395238095244
541.883,84.72291904761911
544.544,80.69903333333339
547.203,91.0338714285715
549.86,87.40226190476196
552.515,100.1932333333334
555.168,117.79598571428579
557.819,131.6465238095239
560.469,149.56194285714298
563.116,194.31165714285726
565.761,193.9024761904763
568.405,204.00757142857154
571.047,203.8718857142858
573.687,174.40581428571437
576.324,138.28190952380962
578.96,105.64858571428576
581.594,72.17764285714293
584.227,103.96884285714295
586.857,118.45559047619055
589.485,135.40382857142865
592.112,128.67423333333338
594.737,120.84190476190484
597.359,122.00483333333342
599.98,147.26085714285722
602.599,137.8507714285715
605.216,128.53827142857148
607.831,101.18187619047626
610.445,110.16396666666674
613.056,119.15163809523817
615.666,148.7168904761906
618.274,157.6218666666668
620.88,160.24704761904772
623.484,161.4487142857144
626.086,171.60700000000014
628.686,212.91090476190493
631.284,283.40619047619066
633.881,305.9479047619049
636.476,323.7243809523812
639.068,332.39919047619065
641.659,313.77887619047635
644.249,268.38370952380967
646.836,219.92391428571437
649.421,138.87175238095244
652.005,82.46124761904768
654.587,54.35436666666671
657.166,48.92717142857145
659.745,30.84131428571431
662.321,30.28190857142858
664.895,14.10076333333334
667.468,16.958879047619064
670.038,17.23145571428573
672.607,30.00781714285717
675.174,31.901015714285723
677.739,34.4763561904762
680.303,23.29911904761906
682.864,21.363000000000014
685.424,23.185576190476215
687.982,34.42715238095239
690.538,33.367152380952405
693.092,31.523024095238103
695.645,14.888496000000004
698.195,17.409651523809544
700.744,13.79457638095239
703.291,21.322856285714302
705.836,16.41700552380952
708.38,14.166288380952395
710.921,12.56487619047622
713.461,37.70228571428575
715.999,69.47787619047625
718.535,89.64800952380956
721.069,87.35022380952385
723.602,68.00800000000001
726.133,26.23544285714286
728.662,0.9802000000000204
731.189,19.999766666666694
733.714,26.33721904761908
736.238,64.08361744761909
738.759,62.61589763809525
741.279,50.21594289523813
743.798,47.30868655238098
746.314,46.12877622857145
748.829,32.67297382857147
751.342,56.03321268571432
753.853,53.49242857142862
756.362,81.2385476190477
758.869,108.07813809523816
761.375,109.48513809523816
763.879,118.02870476190483
766.381,111.32553333333337
768.882,92.27864761904767
771.38,86.2197190476191
773.877,79.62293333333338
776.372,66.82040000000006
778.866,94.19148571428576
781.357,88.40181428571434
783.847,74.06935714285719
786.335,63.95508571428575
788.821,52.629680952380994
791.306,59.04471428571436
793.789,98.91396666666677
796.27,156.95129523809535
798.749,205.3470761904763
801.227,207.19626666666676
803.702,184.26081904761915
806.176,176.82630476190488
808.649,165.84543809523822
811.119,220.17555238095255
813.588,251.34117142857153
816.055,230.43804761904775
818.521,203.1810000000001
820.984,179.57061904761915
823.446,146.51257142857153
825.906,154.81719047619058
828.365,145.48571428571438
830.821,161.94804761904774
833.276,192.10976190476202
835.729,199.7818666666668
838.181,175.251461904762
840.631,141.94816190476197
843.079,117.01682380952388
845.525,112.98282857142866
847.97,128.03824285714293
850.412,123.85170952380957
852.854,89.90111904761909
855.293,60.950123809523845
857.731,55.762785714285755
860.167,57.4362190476191
862.601,53.82970000000004
865.034,80.85011904761912
867.465,84.69019047619052
869.894,73.82831428571433
872.321,70.64772380952385
874.747,76.48413333333338
877.171,68.76848571428577
879.594,98.93156190476196
882.014,98.02366666666671
884.433,97.85678095238102
886.851,116.33814285714296
889.266,144.51804761904773
891.68,152.77985714285722
894.092,178.31680952380964
896.503,178.55990476190487
898.912,165.51204761904773
901.319,157.65190476190486
903.724,154.4108095238096
906.128,140.17209523809535
908.53,170.89138095238107
910.931,173.23747619047626
913.329,165.4516000000001
915.726,145.01255238095243
918.122,133.4943714285715
920.516,106.5188571428572
922.908,117.04116190476198
925.298,104.1115952380953
927.687,117.49470476190484
930.074,130.81216666666674
932.459,128.3999571428572
934.843,104.11800000000007
937.225,97.58778571428576
939.605,84.57395714285721
941.984,80.98365238095245
944.361,91.15271904761909
946.736,91.55996666666671
949.11,73.63638571428574
951.482,61.90820952380957
953.853,68.13972380952384
956.222,64.33325238095242
958.589,70.34826190476196
960.954,76.94889523809526
963.318,56.75641904761909
965.68,63.9634333333334
968.041,85.23868095238102
970.4,82.44135238095244
972.757,92.00197523809528
975.113,68.39863952380954
977.467,41.34751333333336
979.819,27.564635142857153
982.17,12.861221571428574
984.519,-2.66584447619046
986.866,6.0325941428571594
989.212,27.005546476190528
991.556,75.06406538095246
993.899,102.06651419047625
996.24,121.91870476190483
998.579,119.00282857142862
1000.92,106.89104761904767
1003.25,95.5367952380953
1005.59,86.94096666666671
1007.92,70.294680952381
1010.25,79.50324285714291
1012.58,77.47200476190481
1014.91,81.29637619047622
1017.24,83.11976190476196
1019.56,107.6568476190477
1021.88,125.52659523809531
1024.2,154.87205714285722
1026.52,143.9313238095239
1028.84,134.08542857142865
1031.16,137.61980952380964
1033.48,185.0584761904763
1035.79,201.1626666666668
1038.1,237.97947619047633
1040.41,242.17547619047633
1042.72,231.1786666666668
1045.03,221.1313333333335
1047.33,205.08047619047628
1049.64,179.54938095238106
1051.94,183.39404761904774
1054.24,190.66176190476202
1056.54,170.44676190476198
1058.84,158.55776190476195
1061.13,136.32685714285722
1063.43,136.18180952380962
1065.72,135.3594761904763
1068.01,160.28728571428584
1070.3,165.392761904762
1072.59,181.4367142857144
1074.87,184.13195238095247
1077.16,172.8582857142858
1079.44,161.47138095238108
1081.72,200.35066666666683
1084.0,246.68542857142876
1086.28,316.4742380952383
1088.56,411.04880952380984
1090.84,490.1220000000003
1093.11,556.2159047619051
1095.38,587.9481428571431
1097.65,566.3648095238099
1099.92,493.7497142857145
1102.19,437.3391428571431
1104.46,370.845904761905
1106.72,324.6490952380954
1108.98,309.84228571428594
1111.24,341.5190476190479
1113.5,378.0109523809526
1115.76,429.45871428571456
1118.02,468.14652380952407
1120.28,480.69166666666695
1122.53,476.23490476190506
1124.78,436.53619047619065
1127.03,373.87995238095255
1129.28,328.26366666666684
1131.53,285.447523809524
1133.77,243.85857142857157
1136.02,204.82785714285725
1138.26,165.35361904761913
1140.5,155.10109523809538
1142.74,176.78209523809537
1144.98,199.5851904761906
1147.22,208.88980952380962
1149.45,207.97966666666682
1151.69,218.6148571428573
1153.92,208.12700000000012
1156.15,199.99014285714296
1158.38,179.91666666666677
1160.61,162.85744761904772
1162.83,138.23932380952388
1165.06,126.77471428571437
1167.28,100.89057142857149
1169.5,83.15644761904767
1171.72,60.66583809523816
1173.94,86.75046666666674
1176.16,100.21822380952386
1178.37,92.0198190476191
1180.58,90.62983838095242
1182.8,58.475287666666674
1185.01,29.03086580952384
1187.22,11.86660138095238
1189.42,11.742846761904772
1191.63,2.6581924285714504
1193.84,18.516100285714305
1196.04,27.077204761904785
1198.24,46.340319047619076
1200.44,40.16147619047622
1202.64,53.39683333333337
1204.84,67.04545238095241
1207.03,50.773238095238106
1209.23,30.436623809523823
1211.42,24.796957142857156
1213.61,19.28240476190479
1215.8,34.17842857142861
1217.99,61.38966190476193
1220.18,64.10660000000004
1222.36,69.47240952380957
1224.55,92.34435238095244
1226.73,107.10385238095245
1228.91,117.7990952380953
1231.09,122.85919047619055
1233.27,116.23752380952385
1235.44,94.26847619047625
1237.62,92.8578571428572
1239.79,86.19714285714292
1241.96,110.28749523809532
1244.13,109.74928095238101
1246.3,124.10794285714294
1248.47,134.46014761904772
1250.64,147.04599047619058
1252.8,157.00990000000013
1254.96,212.63944761904776
1257.13,238.88885714285732
1259.29,303.71247619047637
1261.44,332.58857142857164
1263.6,330.3290952380954
1265.76,300.6030000000002
1267.91,278.50738095238114
1270.06,229.61619047619058
1272.22,212.78904761904772
1274.37,187.12366666666676
1276.51,154.57485714285724
1278.66,160.33604761904772
1280.81,156.83785714285725
1282.95,142.36914285714298
1285.09,164.7422380952382
1287.23,193.53090476190488
1289.37,199.78572380952392
1291.51,203.65253333333342
1293.65,163.65787619047626
1295.78,128.23308571428578
1297.92,108.57168571428578
1300.05,102.29539047619056
1302.18,123.26458095238102
1304.31,131.6247142857144
1306.44,131.76019047619056
1308.57,158.9117142857144
1310.69,178.89180952380966
1312.82,203.27490476190488
1314.94,209.34938095238107
1317.06,217.73704761904773
1319.18,218.72700000000015
1321.3,243.79823809523822
1323.41,247.14409523809536
1325.53,280.9103333333335
1327.64,299.4330000000002
1329.75,337.61957142857165
1331.87,372.4728571428574
1333.98,370.9480000000002
1336.08,336.0951904761907
1338.19,314.3931904761907
1340.3,276.321142857143
1342.4,232.8814761904763
1344.5,189.07657142857153
1346.6,158.48014285714297
1348.7,150.57061904761915
1350.8,150.58842857142864
1352.9,145.34566666666674
1354.99,128.65414285714292
1357.09,115.84909523809534
1359.18,126.21800000000009
1361.27,146.62014285714295
1363.36,149.91433333333342
1365.45,169.72142857142867
1367.54,155.2812380952382
1369.62,155.4524761904763
1371.7,177.23652380952396
1373.79,207.44447619047634
1375.87,231.3630952380954
1377.95,281.9459523809525
1380.03,261.0514285714287
1382.1,233.72790476190488
1384.18,211.64285714285722
1386.25,184.6065238095239
1388.33,163.57166666666677
1390.4,150.25300000000004
1392.47,127.22253333333339
1394.54,93.33721904761909
1396.6,71.16876666666673
1398.67,60.81234761904766
1400.74,40.79138095238098
1402.8,51.533938095238156
1404.86,79.37292857142862
1406.92,92.54569428571433
1408.98,79.81333000000001
1411.04,63.27011714285717
1413.09,51.438727142857196
1415.15,68.27032190476196
1417.2,93.04922523809532
1419.25,127.82164666666674
1421.3,128.06241904761913
1423.35,134.62677619047628
1425.4,139.89408571428578
1427.45,131.81471428571436
1429.49,116.862880952381
1431.54,102.70319047619053
1433.58,110.8098333333334
1435.62,92.60900000000002
1437.66,81.81283333333337
1439.7,84.03780952380956
1441.74,85.47200000000007
1443.77,96.25571428571436
1445.81,113.05302380952386
1447.84,100.95652380952387
1449.87,100.39207142857148
1451.9,109.49966666666674
1453.93,138.84800476190486
1455.96,136.19600476190482
1457.98,127.87429523809533
1460.01,131.2130904761906
1462.03,170.0666285714287
1464.05,213.7177190476192
1466.07,278.6396000000002
1468.09,312.82904761904786
1470.11,346.4739523809526
1472.13,364.380523809524
1474.14,394.16480952380977
1476.16,375.10971428571446
1478.17,351.21219047619064
1480.18,301.6598571428572
1482.19,257.9736666666668
1484.2,210.67457142857154
1486.21,171.42619047619056
1488.21,150.60698095238104
1490.22,123.88067619047627
1492.22,94.14934761904769
1494.22,83.60076666666671
1496.22,82.37533809523816
1498.22,91.37506190476196
1500.22,112.93134761904767
1502.22,110.3749571428572
1504.21,80.51323095238097
1506.21,48.1535285714286
1508.2,51.19849761904766
1510.19,40.0269904761905
1512.18,33.39923095238098
1514.17,49.837247619047645
1516.16,40.24415714285717
1518.14,42.047033333333374
1520.13,66.5778285714286
1522.11,55.597085714285754
1524.09,55.38932857142862
1526.07,72.62010952380957
1528.05,87.95508571428577
1530.03,107.29814666666674
1532.01,97.45795619047622
1533.98,68.86235523809528
1535.96,66.55807714285719
1537.93,63.63988857142863
1539.9,71.34538952380957
1541.87,92.48344666666671
1543.84,93.57752380952387
1545.81,85.00826666666673
1547.78,107.63245714285722
1549.74,115.3070000000001
1551.7,150.88880000000012
1553.67,157.47275238095244
1555.63,149.77321904761914
1557.59,131.8855333333334
1559.55,138.00002857142866
1561.5,140.97399047619058
1563.46,174.18827619047627
1565.41,171.8335238095239
1567.37,166.57690476190487
1569.32,164.6090000000001
1571.27,180.69180952380964
1573.22,186.92128571428583
1575.17,204.63085714285728
1577.11,199.8687142857144
1579.06,187.39742857142866
1581.0,162.88352380952392
1582.95,144.8517142857144
1584.89,144.54061904761917
1586.83,163.8080000000001
1588.77,174.987761904762
1590.7,185.3665238095239
1592.64,192.08738095238107
1594.58,186.88957142857134
1596.51,168.7736428571429
1598.44,134.57359523809558
