Raman Shift,Processed Intensity
331.095,36.923730784905274
333.909,45.84844512677728
336.721,67.12912538268438
339.531,96.7657752402697
342.339,133.94888195293925
345.145,163.94037240845
347.949,184.83552157845088
350.751,221.01533715850155
353.55,204.24180135094866
356.348,201.65787455256987
359.144,203.64464189935643
361.937,233.77369790654438
364.729,245.95000729911317
367.518,270.50714679467774
370.306,269.0644516482798
373.091,318.5746383876599
375.874,408.3238085009152
378.656,477.45526164796183
381.435,458.06473744342975
384.212,373.8194667633802
386.988,248.05341352819505
389.761,156.76727839023533
392.532,112.48564527864755
395.301,68.78079461083053
398.068,19.463183170573302
400.833,-0.8947426804679708
403.596,-33.95854331511282
406.358,0.36821784701851357
409.117,19.229692220813376
411.874,20.532031567597187
414.629,13.229102116301874
417.382,2.560579637020055
420.133,-22.471860247351287
422.882,60.22879110768463
425.629,149.71201832277666
428.374,255.93216059596762
431.117,332.70079030394345
433.858,380.87718684137917
436.597,390.3207152221985
439.334,392.3193951570074
442.069,350.44704155910676
444.802,362.1823098124096
447.533,356.67059818220514
450.262,386.8192835592654
452.989,418.7262905372695
455.714,475.77532715690495
458.438,481.0168349356827
461.159,458.8822722310856
463.878,403.8983976037184
466.595,376.4491722280709
469.31,335.013852779482
472.024,386.07175098775997
474.735,427.5308027146216
477.444,414.1561370311233
480.152,424.04626434271495
482.857,409.8711692761958
485.561,378.72945118572034
488.262,402.38641703975327
490.962,455.607412403273
493.659,507.82448575329954
496.355,572.4697194610944
499.048,578.3561798219762
501.74,607.8207718470371
504.43,656.8670940548755
507.118,699.8797218347358
509.804,729.3384908096541
512.488,822.2946849615
515.17,927.8948438036409
517.85,1013.8093314583621
520.528,1105.56566763906
523.204,1118.2628110133892
525.878,1108.0473473283091
528.551,1137.7325346779853
531.221,1162.1316344859747
533.89,1164.6293377255097
536.556,1184.277000663601
539.221,1191.459309176556
541.883,1147.8942763988425
544.544,1108.1094308481279
547.203,1097.8227664550886
549.86,1111.8475021170311
552.515,1177.7111269657976
555.168,1254.7506361118603
557.819,1298.8268140074633
560.469,1330.8480416192938
563.116,1332.3893416963856
565.761,1324.8352335618365
568.405,1364.6654450473825
571.047,1357.0739577613099
573.687,1382.9213856896945
576.324,1354.7349728452755
578.96,1301.7562099639322
581.594,1233.4646416773667
584.227,1251.6254832096024
586.857,1173.9562846925246
589.485,1157.222166909994
592.112,1142.664390375296
594.737,1116.2384482181155
597.359,1070.4235876429348
599.98,1131.9370932921902
602.599,1099.543808704666
605.216,1139.1513720596
607.831,1227.429261444609
610.445,1279.4754591712185
613.056,1325.9116875189916
615.666,1410.597692098674
618.274,1484.2979061677502
620.88,1576.443353041222
623.484,1704.2745008833372
626.086,1789.2222127374216
628.686,1884.6696489366536
631.284,1982.8570266577021
633.881,2068.167331855311
636.476,2084.4120311968923
639.068,2040.5453554256724
641.659,1893.1404874857603
644.249,1675.1514649329156
646.836,1403.817939488185
649.421,1130.3318413534325
652.005,880.7421387649729
654.587,697.5738832614852
657.166,581.5901120947938
659.745,490.1727982596926
662.321,396.98951480948426
664.895,322.75533726676167
667.468,268.9947460341914
670.038,225.7559097576741
672.607,204.80115916569866
675.174,186.08317519441562
677.739,163.64974854127513
680.303,108.31044398057384
682.864,79.87469325042366
685.424,62.24703079687697
687.982,44.95090094661282
690.538,54.27151269867545
693.092,59.160599278121026
695.645,28.903082451563023
698.195,32.640879699863035
700.744,28.42052091463711
703.291,15.57410137228635
705.836,27.52880943655373
708.38,16.283123836837603
710.921,6.930631643375364
713.461,37.2790871719958
715.999,49.65994880681956
718.535,75.7855356246032
721.069,73.55856873700577
723.602,82.59599834713845
726.133,66.70521175849672
728.662,71.36024138389757
731.189,52.65416323061072
733.714,24.584828718814606
736.238,-15.040355880893458
738.759,-11.271078581426536
741.279,-7.68076821701834
743.798,-12.890385594457257
746.314,-20.616025473528225
748.829,-35.71651943012648
751.342,-30.431516412287237
753.853,-15.810041939035273
756.362,-1.9009664775662714
758.869,-3.5149061083798188
761.375,-15.748029815094924
763.879,-5.648724133567612
766.381,-22.217591536389136
768.882,-25.836022104082986
771.38,-23.694765846370046
773.877,-22.50822197488469
776.372,-14.133493209114476
778.866,13.762938016213411
781.357,7.086149688779187
783.847,19.550861552027982
786.335,47.15761318482919
788.821,56.76418096567568
791.306,90.6569971465351
793.789,123.93209748185336
796.27,169.97130695279293
798.749,230.108901681946
801.227,307.9173184670999
803.702,389.3976262197557
806.176,458.74142597507944
808.649,490.28322709233225
811.119,486.97663297910594
813.588,477.0133839584223
816.055,452.7281144215449
818.521,411.7412052188811
820.984,384.9587789080365
823.446,344.52507595424686
825.906,291.44149759748143
828.365,268.7094582433533
830.821,230.80657118735417
833.276,182.25807243433565
835.729,187.97014927988766
838.181,156.99184032029189
840.631,131.9436021291408
843.079,120.54111402919216
845.525,83.30955905470046
847.97,61.29790491374297
850.412,57.555089712449444
852.854,17.55858863161984
855.293,1.8334567938159125
857.731,14.190419749499597
860.167,14.678251499199177
862.601,8.393295570272585
865.034,10.098511381798744
867.465,-9.728906437544538
869.894,-17.37371737170588
872.321,-8.406442330550817
874.747,2.697589874055666
877.171,0.17728935085369812
879.594,30.50961294080207
882.014,57.21908659965493
884.433,56.68732779936863
886.851,36.58161554854951
889.266,7.235841365280066
891.68,2.221936440422269
894.092,18.635584515200208
896.503,85.38193550705
898.912,116.46131936775123
901.319,135.49305704634617
903.724,132.81070002348724
906.128,136.0334603219751
908.53,157.6852595649127
910.931,166.57568279576822
913.329,149.89521801271917
915.726,153.35811475062292
918.122,129.1547664725099
920.516,107.28504534202102
922.908,125.93925604347669
925.298,118.30766103050382
927.687,119.62810101277387
930.074,125.80504401415487
932.459,125.50482490706099
934.843,119.34612304203392
937.225,116.75710654399313
939.605,106.49924327515828
941.984,118.00063560749004
944.361,124.83221233798668
946.736,149.0410634611278
949.11,150.3409177984538
951.482,142.82643015196004
953.853,130.83032560034417
956.222,98.68530570001963
958.589,85.67643087660008
960.954,108.08874091163216
963.318,123.30249447694223
965.68,125.22174200231984
968.041,148.8457556860592
970.4,110.6976023626462
972.757,95.91938303710958
975.113,84.31985337175593
977.467,59.85061560148188
979.819,7.368024734791788
982.17,-4.890619530897311
984.519,-11.21183327490121
986.866,30.308339541329133
989.212,64.57385255663621
991.556,103.58389559627653
993.899,90.90908563899166
996.24,93.54861016503537
998.579,82.2635609803915
1000.92,93.52931566003645
1003.25,88.53553803882619
1005.59,97.66236917857054
1007.92,71.57566595415483
1010.25,72.227001544421
1012.58,78.28223735162783
1014.91,89.16914253995355
1017.24,78.07739452638134
1019.56,75.10143661443635
1021.88,41.62143086602191
1024.2,66.49373478277562
1026.52,85.43185417790141
1028.84,118.91120557181512
1031.16,127.8357833496882
1033.48,126.91911263327665
1035.79,118.58901167655813
1038.1,146.46378283280546
1040.41,166.01887971213137
1042.72,205.11071719617644
1045.03,199.786195738508
1047.33,163.13984471264394
1049.64,142.55191814102295
1051.94,145.593157090643
1054.24,163.97717111631937
1056.54,175.22710541822244
1058.84,172.67564133274936
1061.13,160.70309206149295
1063.43,184.11835554306504
1065.72,241.58748637253416
1068.01,249.157505816107
1070.3,226.44687849246134
1072.59,203.26456048265868
1074.87,178.46714267814605
1077.16,188.43504174780173
1079.44,237.4534530097485
1081.72,268.9028271126931
1084.0,304.7826800505959
1086.28,348.4734984154363
1088.56,394.87959703093543
1090.84,490.1434051576987
1093.11,584.645466984088
1095.38,640.147299259939
1097.65,633.077106073147
1099.92,558.0535888643426
1102.19,466.8383278701381
1104.46,401.09768737589707
1106.72,358.1171019208907
1108.98,326.37250536058673
1111.24,349.19699802418563
1113.5,386.447513872145
1115.76,471.50482098704697
1118.02,545.8449506358879
1120.28,591.56300728475
1122.53,571.420788137289
1124.78,563.9896407684482
1127.03,523.8885588534172
1129.28,492.4508493251658
1131.53,423.4860376272122
1133.77,348.75605868068897
1136.02,284.3562097561651
1138.26,282.33419858356774
1140.5,305.49966765257795
1142.74,372.5194327987399
1144.98,410.536531313385
1147.22,429.5511748154529
1149.45,431.84932117092944
1151.69,437.57410355514276
1153.92,405.58297380077374
1156.15,364.6381790792004
1158.38,320.0258100104104
1160.61,301.7938963919619
1162.83,277.3238362612774
1165.06,264.61611067221156
1167.28,224.24266513829662
1169.5,151.87071964741426
1171.72,105.02467391455616
1173.94,125.08610787268526
1176.16,110.19854406835611
1178.37,98.17221005733563
1180.58,73.81737222879656
1182.8,57.991955343798054
1185.01,39.22059064519408
1187.22,50.7422353961083
1189.42,30.557792418412646
1191.63,14.334872488343763
1193.84,13.598271017839807
1196.04,30.539492354926324
1198.24,43.92151217933679
1200.44,31.602588878745337
1202.64,3.9172177821460537
1204.84,-15.228628892478127
1207.03,-18.738452566680508
1209.23,-3.42046414214542
1211.42,33.86955947018009
1213.61,65.75208345007218
1215.8,86.89524185758228
1217.99,116.8719787083071
1220.18,100.8267128581781
1222.36,110.99914574539594
1224.55,95.05759294188056
1226.73,88.47993475235216
1228.91,89.02980490864388
1231.09,104.18516021640107
1233.27,112.23351686843694
1235.44,154.98623437714537
1237.62,160.77851379263097
1239.79,176.75511020655335
1241.96,193.96556906549245
1244.13,245.0785101033655
1246.3,337.7625779405171
1248.47,491.16263077804024
1250.64,659.661643377812
1252.8,816.1664195663379
1254.96,981.679019024306
1257.13,1147.4396126475654
1259.29,1299.1169569557267
1261.44,1454.332201834093
1263.6,1543.3731744660624
1265.76,1515.813425170293
1267.91,1485.226511333103
1270.06,1370.3764718170617
1272.22,1254.2654442267303
1274.37,1121.9908059839217
1276.51,1000.4118392124758
1278.66,868.340205146852
1280.81,786.8732756835777
1282.95,714.727464932693
1285.09,665.8096560072931
1287.23,639.979104003552
1289.37,629.0474342188363
1291.51,621.445307036498
1293.65,632.0795590011298
1295.78,639.285581989069
1297.92,652.4939880931834
1300.05,691.2306078409913
1302.18,729.0688693651603
1304.31,749.7726537644858
1306.44,768.3439123696332
1308.57,774.1179030564942
1310.69,771.2869979881268
1312.82,767.5673484995414
1314.94,826.00840712535
1317.06,833.2786401036024
1319.18,880.4750494034236
1321.3,911.027932847896
1323.41,898.7008823321778
1325.53,877.7336391844826
1327.64,888.8897114318236
1329.75,827.9801815419517
1331.87,816.1494189271991
1333.98,759.0655543530829
1336.08,683.9680972040519
1338.19,611.9536479873286
1340.3,544.5949441700752
1342.4,475.1789536356216
1344.5,424.13544433015545
1346.6,368.03698248085584
1348.7,313.3608355759213
1350.8,248.10801820174083
1352.9,188.46995692768428
1354.99,174.2570599528026
1357.09,151.0891915144332
1359.18,167.34805105870305
1361.27,181.7009809824708
1363.36,176.57715532764337
1365.45,167.02472085644058
1367.54,185.18698574571454
1369.62,194.35003685268907
1371.7,231.84749983784945
1373.79,265.58434690688205
1375.87,286.13213312404196
1377.95,278.2051851064766
1380.03,262.2320278137852
1382.1,231.5458589566224
1384.18,194.38454721483618
1386.25,193.89063045559305
1388.33,172.6827425229351
1390.4,144.0460876463901
1392.47,96.78958151624306
1394.54,70.2458495016756
1396.6,33.0331296308068
1398.67,39.72193747549477
1400.74,25.16839770281058
1402.8,26.990432769362997
1404.86,51.805856377527334
1406.92,87.37523138763936
1408.98,99.03044473738419
1411.04,126.53185378975832
1413.09,131.02067077627498
1415.15,169.73325200207228
1417.2,235.95348228912326
1419.25,296.67944513372595
1421.3,340.05199762589814
1423.35,382.92620251163703
1425.4,378.10942692184403
1427.45,351.2184887202943
1429.49,305.72727904208773
1431.54,278.2048610225661
1433.58,228.79166376432636
1435.62,213.58043820899616
1437.66,186.5686415804298
1439.7,165.27748849457794
1441.74,160.75195445030795
1443.77,157.03696979641768
1445.81,130.0345660796038
1447.84,148.83721286861964
1449.87,161.72782124509786
1451.9,170.1797472943756
1453.93,213.9044146439344
1455.96,242.08941319231917
1457.98,301.01755021900794
1460.01,388.0668538752334
1462.03,471.80581477004284
1464.05,565.0410085087358
1466.07,695.1980515646412
1468.09,871.8454142937524
1470.11,1116.027757758883
1472.13,1370.6945086490587
1474.14,1630.1284341989153
1476.16,1863.8504075842814
1478.17,2040.7622685558656
1480.18,2136.718255501508
1482.19,2124.1440565560506
1484.2,1964.6558607112106
1486.21,1693.7746470206857
1488.21,1350.9738071385987
1490.22,1040.2029583341207
1492.22,774.8879469822948
1494.22,600.0737091977048
1496.22,474.0909409919666
1498.22,354.2227684312131
1500.22,247.46665588881865
1502.22,171.4867904885998
1504.21,130.18551416706782
1506.21,112.70332716425287
1508.2,80.18079627643465
1510.19,34.949034537447005
1512.18,-8.089342909541301
1514.17,-24.984024845013664
1516.16,-10.594143339420953
1518.14,10.602205095340423
1520.13,20.174626150435643
1522.11,13.59756946001471
1524.09,9.821756055417609
1526.07,-1.7734417996648517
1528.05,-4.475239821653076
1530.03,-2.0469666338267416
1532.01,11.605268271386649
1533.98,-1.853141501738719
1535.96,23.86231784128313
1537.93,35.6076592834238
1539.9,51.619916665760684
1541.87,41.183809214240455
1543.84,55.06031082834329
1545.81,48.200933655467225
1547.78,57.60486880816575
1549.74,95.36660327186087
1551.7,128.7711558601768
1553.67,156.53217031312602
1555.63,189.22048458577456
1557.59,192.97841442262052
1559.55,184.80546550339932
1561.5,218.89166463650508
1563.46,239.9985100000349
1565.41,265.8875404304458
1567.37,265.7012856635972
1569.32,234.96326419483853
1571.27,184.4351239962416
1573.22,163.73568799573377
1575.17,147.7695233657571
1577.11,132.2507489071686
1579.06,157.98874719504124
1581.0,164.36435291494377
1582.95,137.1393745325522
1584.89,149.21849691564375
1586.83,135.7921363370383
1588.77,115.71739071563297
1590.7,141.1370850955352
1592.64,134.0511980775757
1594.58,107.07876444130056
1596.51,68.3150158621977
1598.44,21.42661686701581
