Raman Shift,Processed Intensity
331.095,159.108695172205
333.909,124.41788986503843
336.721,128.5261159695051
339.531,157.4333893846583
342.339,203.6159482838343
345.145,225.19293568037438
347.949,232.545462945704
350.751,227.0547209464671
353.55,200.29247213404506
356.348,202.73535215788525
359.144,255.19345719312332
361.937,303.76274079201175
364.729,330.15836311629164
367.518,346.42899255053544
370.306,381.4806311250077
373.091,429.40996374805536
375.874,497.83770743849345
378.656,493.7657700818113
381.435,451.0534568054172
384.212,362.9412954015197
386.988,245.7653379404628
389.761,123.52860524121934
392.532,42.75824562758362
395.301,-21.494449172761506
398.068,-22.65402812918137
400.833,-11.430388818548636
403.596,-19.72352566135396
406.358,-29.813994799620104
409.117,-58.791475390935375
411.874,-71.64999962077354
414.629,-56.192709659944285
417.382,-56.26995431904834
420.133,-50.39834594805234
422.882,-45.14172819015539
425.629,-23.301673660043434
428.374,64.60629863221993
431.117,180.49554859761201
433.858,256.327328386556
436.597,280.01550999304027
439.334,238.9979795254044
442.069,194.95088861996555
444.802,165.8838582356202
447.533,136.80661101985424
450.262,149.252746531909
452.989,178.51780218022895
455.714,211.70683796943194
458.438,261.21059267585224
461.159,267.0387828802218
463.878,210.43911628607066
466.595,149.23059075240553
469.31,100.94631713591889
472.024,73.69062784747575
474.735,70.2818996943115
477.444,63.82394815080988
480.152,74.46790538136247
482.857,94.65029599966101
485.561,145.04540519830834
488.262,193.27955935655564
490.962,193.7882734489326
493.659,200.43530321577782
496.355,215.36979257186385
499.048,218.26437339597942
501.74,234.45802722526423
504.43,255.57513742573747
507.118,306.76358898186663
509.804,374.02810638137225
512.488,471.89692483336694
515.17,563.1360805341124
517.85,624.7017961708652
520.528,671.8833426161982
523.204,703.3030434794691
525.878,726.725803467808
528.551,756.1543510328174
531.221,808.3054333982323
533.89,809.4669639685235
536.556,793.3551697375078
539.221,760.495548220767
541.883,723.6990624833052
544.544,709.6811933100653
547.203,726.3952770907244
549.86,722.6039389425996
552.515,719.7838591668651
555.168,739.1257778000113
557.819,752.3440229748253
560.469,812.1527059480345
563.116,816.3609637469967
565.761,849.539630387826
568.405,872.2593366649403
571.047,873.7095623215605
573.687,876.7462596487758
576.324,887.9394770845997
578.96,838.9066970987515
581.594,804.1699836012504
584.227,764.822653160516
586.857,727.2911843167203
589.485,730.1447459427486
592.112,752.857106557547
594.737,766.3780674490013
597.359,729.9429910349131
599.98,730.7870911287387
602.599,731.8597232053166
605.216,768.5862937142219
607.831,811.6301693931036
610.445,881.3688722953239
613.056,906.9417033890236
615.666,989.5354613942882
618.274,1057.7653997155458
620.88,1145.1990405168335
623.484,1254.8799887970636
626.086,1356.089841703396
628.686,1418.3481930826974
631.284,1495.507876128247
633.881,1548.5644917407135
636.476,1557.8945083177127
639.068,1539.8266948766873
641.659,1425.6421256063554
644.249,1274.5741844181593
646.836,1071.2371409262792
649.421,852.9118692847874
652.005,648.7839479771778
654.587,511.6579500820949
657.166,386.57649544381275
659.745,318.77263617606013
662.321,214.00319454679266
664.895,123.50114848201474
667.468,81.83277897436619
670.038,52.94529368218218
672.607,25.54778386188036
675.174,40.53980034797269
677.739,37.10660153470144
680.303,64.86202303842401
682.864,81.13420861172108
685.424,60.72753529625015
687.982,14.25596714703488
690.538,-13.428352948017618
693.092,-39.75889240097695
695.645,-43.216611833351635
698.195,-54.56803987095191
700.744,-25.960495061993697
703.291,-31.112550532349815
705.836,-10.694980742294774
708.38,24.57400330958035
710.921,32.59542035958202
713.461,51.60380309381708
715.999,78.59576807737585
718.535,106.56810949304281
721.069,125.51779764190542
723.602,151.4895964915886
726.133,128.38558598639565
728.662,84.39373197649593
731.189,36.22597995663682
733.714,26.30872975723969
736.238,-14.598118335939489
738.759,-5.40116508119354
741.279,16.326486219753406
743.798,34.05951244140306
746.314,44.84417661536645
748.829,32.203086292209264
751.342,0.8494757128196397
753.853,7.782440360727378
756.362,39.52502865728138
758.869,58.076619456795015
761.375,43.0557765122885
763.879,31.700245798379
766.381,30.581238548451438
768.882,56.079619053732586
771.38,84.24304484332424
773.877,73.97644019756171
776.372,66.89913632804655
778.866,91.05915441481557
781.357,105.36177435779882
783.847,120.85524638541938
786.335,138.39745504415123
788.821,130.60829747379785
791.306,144.6792045399102
793.789,213.70647149001388
796.27,260.5960171812694
798.749,313.2062385462191
801.227,362.9670555347261
803.702,410.8799084368675
806.176,454.898707586779
808.649,505.12030687602237
811.119,506.4987867907589
813.588,494.0359279251147
816.055,479.01930354216597
818.521,447.4984673730187
820.984,434.09447474922126
823.446,397.6189275446998
825.906,328.7882572129347
828.365,262.41419830032874
830.821,225.64188100719025
833.276,190.04506660585503
835.729,207.43566857310043
838.181,207.57803562731374
840.631,182.66513952756918
843.079,153.5090485869896
845.525,140.96949642420168
847.97,114.09673642908001
850.412,135.41725337133926
852.854,130.74328453294584
855.293,114.5537694119555
857.731,86.5181565692044
860.167,84.92497237976181
862.601,75.2056278796299
865.034,113.83917799338064
867.465,101.59041409513634
869.894,96.46224228382721
872.321,79.40996642035248
874.747,65.43652354569326
877.171,80.44962406093327
879.594,80.30936809775926
882.014,66.6377666508622
884.433,91.24731032939121
886.851,109.52191906077746
889.266,127.03598703266107
891.68,139.50676096814345
894.092,130.17528982962222
896.503,125.66356499880885
898.912,129.0697556948412
901.319,125.53963486858606
903.724,130.79038604932566
906.128,144.92012447715365
908.53,164.45551347347168
910.931,175.68509509719843
913.329,171.13547794383658
915.726,165.28562018263096
918.122,142.75730306992045
920.516,135.60084255772472
922.908,153.62841994995597
925.298,163.22360303481423
927.687,162.38896245528076
930.074,166.2698785558066
932.459,126.63072918137345
934.843,119.66441080989671
937.225,129.56376444652392
939.605,149.95014437507393
941.984,139.7781773856782
944.361,158.47861724050767
946.736,149.57738961569476
949.11,134.17177990039613
951.482,131.69233528156838
953.853,137.56952873351202
956.222,94.5670896740744
958.589,99.4486679541917
960.954,110.69211689503913
963.318,119.87044299185686
965.68,139.31846990348185
968.041,128.22807387044872
970.4,93.45770484738227
972.757,55.675240968718754
975.113,19.643700157283092
977.467,8.506951732866582
979.819,-10.591238645876047
982.17,-10.031019183229546
984.519,2.1883101544808596
986.866,40.49591577563183
989.212,61.987523743330485
991.556,71.37779899545035
993.899,88.38129599323429
996.24,91.80769508419007
998.579,86.70465791259949
1000.92,78.07211140146455
1003.25,47.86224602016023
1005.59,12.789037861614588
1007.92,-8.671753090035281
1010.25,-1.4254418346438342
1012.58,11.908247878019438
1014.91,18.280896502706128
1017.24,28.310625315979223
1019.56,24.09161995751242
1021.88,2.1941320073067345
1024.2,38.807337705766486
1026.52,47.120294329075705
1028.84,61.60765869393322
1031.16,84.45826280514643
1033.48,96.52749902703204
1035.79,107.09922906434008
1038.1,165.69531199079825
1040.41,163.45656084908205
1042.72,159.4760802031767
1045.03,172.46593702405835
1047.33,170.61430776587122
1049.64,152.49024448971636
1051.94,183.99606003506346
1054.24,164.6530465244923
1056.54,178.649098630347
1058.84,156.9815749366146
1061.13,144.79063549129432
1063.43,126.9782936444708
1065.72,140.54175360067893
1068.01,150.1448432093605
1070.3,202.7370658029481
1072.59,184.125032987321
1074.87,205.59151647988347
1077.16,185.6097380428821
1079.44,179.89099275004696
1081.72,205.4322722532479
1084.0,256.27817376342637
1086.28,309.4732852220136
1088.56,408.0621895199656
1090.84,487.27994490727656
1093.11,569.1235177834494
1095.38,613.9232154879614
1097.65,599.0569762335908
1099.92,528.6170399921255
1102.19,440.83852414196986
1104.46,372.7184753062397
1106.72,336.34920690513127
1108.98,347.5849700416302
1111.24,390.47052914912047
1113.5,411.6221185913723
1115.76,456.6560183101519
1118.02,513.0933199490196
1120.28,544.2646929771308
1122.53,567.7389603368417
1124.78,555.3707217103604
1127.03,498.49083392925513
1129.28,437.7635580506301
1131.53,380.28180167140135
1133.77,312.9480755282807
1136.02,267.0459262882375
1138.26,254.28755981515633
1140.5,288.57575015077555
1142.74,334.7181294480106
1144.98,398.5700493328461
1147.22,444.9393470281343
1149.45,453.25301623929454
1151.69,406.9857828019178
1153.92,372.51725175793763
1156.15,319.1795306222796
1158.38,274.923900268564
1160.61,239.51129533860558
1162.83,222.51230846144745
1165.06,196.021480186673
1167.28,181.89539844153205
1169.5,165.84794084520558
1171.72,143.9264694040287
1173.94,140.70231092099425
1176.16,129.27076121478308
1178.37,101.25108933878869
1180.58,61.977017990627246
1182.8,30.734822969264314
1185.01,10.572861203564116
1187.22,16.492051161791096
1189.42,-3.0303134055589
1191.63,-15.183415322488827
1193.84,7.938997717178381
1196.04,12.100524544253403
1198.24,12.064972716249713
1200.44,-7.213159427069058
1202.64,-52.25534234065617
1204.84,-61.29710220036691
1207.03,-43.19277524044878
1209.23,-37.796458197892434
1211.42,-4.1048701861043355
1213.61,-3.5906953835337845
1215.8,-2.0597392767949714
1217.99,35.20620038580137
1220.18,59.97312893566118
1222.36,53.91198324548873
1224.55,86.50338276172101
1226.73,93.70428529887295
1228.91,75.47178569101993
1231.09,58.90596206233295
1233.27,53.2022459071286
1235.44,37.4609350270714
1237.62,57.83003980169951
1239.79,95.36241517324538
1241.96,120.4443249764106
1244.13,145.89067293481185
1246.3,223.23070984789342
1248.47,324.18421696832024
1250.64,436.375784617464
1252.8,549.6205193723201
1254.96,682.4478464905183
1257.13,832.3395980496223
1259.29,992.2061963245176
1261.44,1121.5771228790918
1263.6,1215.6485305150536
1265.76,1232.4737123636096
1267.91,1169.248809072379
1270.06,1093.4080398018343
1272.22,987.3379808407924
1274.37,872.996606126668
1276.51,775.7704230038191
1278.66,671.7125603628438
1280.81,561.5427615417814
1282.95,484.5521391320799
1285.09,458.2698345464596
1287.23,461.46301092011004
1289.37,459.6130364880835
1291.51,436.0107155817286
1293.65,425.4705672441744
1295.78,415.1879609886739
1297.92,432.26291922361384
1300.05,455.93820539181115
1302.18,463.93265020505464
1304.31,441.25066835483926
1306.44,463.46796569927346
1308.57,494.8267702595265
1310.69,517.4263013114992
1312.82,548.1275241917879
1314.94,566.1721908179393
1317.06,543.7542611610909
1319.18,563.5913247186047
1321.3,599.0198315105183
1323.41,605.7569897426604
1325.53,629.8531396602389
1327.64,604.4536512109582
1329.75,547.1322502795592
1331.87,493.1767258747443
1333.98,453.82701826847574
1336.08,409.37044999243085
1338.19,380.61790921540023
1340.3,357.2847950254577
1342.4,321.7529150930775
1344.5,268.88000238187124
1346.6,190.76161281170653
1348.7,110.06445149324918
1350.8,52.16922277203457
1352.9,40.694432653492186
1354.99,29.496381704157784
1357.09,40.0024965102009
1359.18,48.830379538198486
1361.27,56.073528676003434
1363.36,81.82515605660456
1365.45,93.0353451099254
1367.54,95.0348742812987
1369.62,107.24951694040419
1371.7,138.4857698616463
1373.79,168.9784864664316
1375.87,173.5337481606864
1377.95,173.43364043428187
1380.03,150.5791241985578
1382.1,129.63290712383628
1384.18,122.40041021504544
1386.25,123.78216295876359
1388.33,111.01191275598649
1390.4,71.32330578345955
1392.47,46.23561547405893
1394.54,3.6489948066951
1396.6,-21.39360473711622
1398.67,-27.944514216686684
1400.74,-22.627523135574847
1402.8,-34.82834332719767
1404.86,-13.551742486138664
1406.92,-10.564394384372235
1408.98,9.74798146495823
1411.04,46.5234787202437
1413.09,83.56686201795947
1415.15,109.73052101844041
1417.2,113.81923397547098
1419.25,156.4949313058696
1421.3,221.94336392098967
1423.35,298.207438224875
1425.4,329.9967415886115
1427.45,295.8304011580085
1429.49,212.32279980413978
1431.54,172.8026254072206
1433.58,173.07477728333788
1435.62,188.70608213499213
1437.66,192.97767666830464
1439.7,184.218342591176
1441.74,170.85212732573063
1443.77,142.20786948266823
1445.81,168.5668195737062
1447.84,184.1150226287873
1449.87,177.18141509900192
1451.9,172.8568741404638
1453.93,167.42279070771178
1455.96,165.25583312330264
1457.98,218.92318683787744
1460.01,288.4206513330862
1462.03,339.12502273879613
1464.05,414.7464764502936
1466.07,524.376187840734
1468.09,678.6768101164425
1470.11,872.4062855055463
1472.13,1098.227370732322
1474.14,1329.469543443927
1476.16,1549.2718610180773
1478.17,1726.6305812754968
1480.18,1795.3515450971206
1482.19,1724.9073209460641
1484.2,1533.8181589134053
1486.21,1304.5091352401566
1488.21,1075.3101539820977
1490.22,892.4559486745907
1492.22,710.2765601878907
1494.22,522.2449574395871
1496.22,383.7389438213422
1498.22,261.04115886372097
1500.22,180.291460853402
1502.22,131.3440713551497
1504.21,67.2913864004563
1506.21,29.55921624761072
1508.2,40.95440609415641
1510.19,13.569599646482857
1512.18,0.40228840371082697
1514.17,-8.502329534618866
1516.16,-15.384679768344085
1518.14,-6.294618045890957
1520.13,1.2419052685797851
1522.11,-11.062868484379578
1524.09,-9.35374439490829
1526.07,-10.108764373587519
1528.05,5.2417441753298135
1530.03,36.74373776557786
1532.01,49.20516805666807
1533.98,60.100741232794235
1535.96,59.857629762692795
1537.93,51.71261273092773
1539.9,45.90254950251551
1541.87,50.71199624469
1543.84,45.520822448672334
1545.81,38.32801792762575
1547.78,40.227880766997714
1549.74,64.12430051295246
1551.7,97.25456517033172
1553.67,111.6655491529973
1555.63,154.9279964722673
1557.59,183.80318487773752
1559.55,206.52863761714934
1561.5,216.81812091054576
1563.46,205.57592713871077
1565.41,163.08734850780115
1567.37,160.2567697615898
1569.32,118.8933799413312
1571.27,129.47307462181266
1573.22,141.51940576646302
1575.17,126.93691253483576
1577.11,130.53492828057165
1579.06,119.0751970731676
1581.0,65.03377593403775
1582.95,56.36293707257005
1584.89,63.91973678885074
1586.83,63.4183939002005
1588.77,88.57314435818512
1590.7,87.57442919895902
1592.64,61.99365392218101
1594.58,25.949852631836166
1596.51,5.443018843729988
1598.44,19.806483912019303
