Raman Shift,Processed Intensity
331.095,97.00687987985975
333.909,65.03639149279024
336.721,79.05669677870856
339.531,122.73447210384438
342.339,186.5459370430708
345.145,234.8482926508941
347.949,239.97496925624455
350.751,202.30706473345208
353.55,202.84478277323797
356.348,192.87410924893493
359.144,244.5382504874733
361.937,291.69478582608144
364.729,317.58234397851174
367.518,288.29680321079513
370.306,300.93415818366157
373.091,335.49529155686605
375.874,412.6478884506705
378.656,436.39311281208074
381.435,415.3037123525128
384.212,304.0478377711779
386.988,198.77000483560414
389.761,103.28158027167092
392.532,71.01317241556262
395.301,53.96702186571201
398.068,67.62177308714172
400.833,37.45629363484613
403.596,27.37825528194162
406.358,-31.847284852189205
409.117,-57.31216031660824
411.874,-53.15556181971533
414.629,-52.9449833301328
417.382,-56.200031691982076
420.133,-29.34481356881861
422.882,-5.946042569742531
425.629,29.048847317121727
428.374,123.69263271186446
431.117,188.27637405505902
433.858,255.80558702755843
436.597,255.66689016076816
439.334,237.5327476850116
442.069,199.88525999694093
444.802,197.73043031742918
447.533,195.5029075399334
450.262,212.9231100312477
452.989,210.09244467034387
455.714,205.11233541102956
458.438,202.6080137493691
461.159,195.44278538158096
463.878,168.6227730524124
466.595,147.9159451178025
469.31,112.80447744086405
472.024,113.1037819545495
474.735,92.2958209385979
477.444,103.8624212964819
480.152,119.28525549902542
482.857,124.28392715748214
485.561,124.4826384832304
488.262,149.12447679508568
490.962,158.40474864565613
493.659,187.13764728103615
496.355,181.4705391481093
499.048,155.1220599256617
501.74,171.19163912692375
504.43,203.11188184496996
507.118,252.21999811716978
509.804,331.3292322896332
512.488,365.3479114292686
515.17,410.80325564060104
517.85,456.3175693349799
520.528,491.4653848807284
523.204,531.2496538723462
525.878,541.7684145901853
528.551,544.1195546982212
531.221,555.1150977513457
533.89,542.7097754169399
536.556,538.9534092202684
539.221,548.4194827660549
541.883,534.1099044362581
544.544,541.6454843735469
547.203,570.1706971790704
549.86,552.829873181653
552.515,553.4338658974634
555.168,584.7933861563502
557.819,587.7190028948362
560.469,618.5449534729332
563.116,657.3196206576131
565.761,671.3769619872346
568.405,699.050796278847
571.047,716.5795663259651
573.687,679.1539587392031
576.324,642.6311904535651
578.96,609.6302476167066
581.594,617.4366482867081
584.227,602.3833956060471
586.857,562.8033595469938
589.485,559.2673729427211
592.112,523.3461370422287
594.737,524.8006984938365
597.359,513.2967358524879
599.98,486.8807508489567
602.599,505.551497754293
605.216,556.4980794109397
607.831,568.3856623114652
610.445,597.1650012011169
613.056,597.5486303470284
615.666,636.4394357598153
618.274,708.454465510406
620.88,806.448740046872
623.484,862.5628720350642
626.086,940.0325909611634
628.686,1001.7125534485131
631.284,1034.2668202411255
633.881,1046.9783808062284
636.476,1063.9872493653902
639.068,1028.2428466399283
641.659,958.6468577867972
644.249,860.7198998582817
646.836,695.3634273569305
649.421,561.0978282666806
652.005,420.3957581792174
654.587,351.7297601346204
657.166,272.0484558905773
659.745,238.967022905892
662.321,161.95767132399305
664.895,112.39726381357605
667.468,46.09112588543667
670.038,30.606380018826712
672.607,27.557660740190386
675.174,42.2737866956395
677.739,47.9882453588757
680.303,27.886823399342575
682.864,24.059998955138326
685.424,20.93152438212428
687.982,26.306059431174162
690.538,16.988235424757022
693.092,28.020769166883838
695.645,-10.886944324063279
698.195,-41.73976117700613
700.744,-29.780575172701447
703.291,-49.29981966571086
705.836,-50.06402162169388
708.38,-16.601501665843898
710.921,10.08334910338499
713.461,21.462453553743217
715.999,56.24595504880608
718.535,59.09650593869219
721.069,79.91498462222444
723.602,84.26906975193378
726.133,86.964671581939
728.662,58.236410934863216
731.189,32.93809816874818
733.714,16.44749785825934
736.238,9.094902999695933
738.759,-2.694005069711693
741.279,-9.493391990601594
743.798,8.598922871148716
746.314,36.913849882981594
748.829,32.87769735865413
751.342,13.107411199808666
753.853,-7.732280700550291
756.362,-26.88124786410276
758.869,-11.055384252305657
761.375,14.981963929462381
763.879,31.705710511960433
766.381,43.54331195220357
768.882,59.06524039977626
771.38,47.79450438218714
773.877,36.58759806165904
776.372,44.63449811095552
778.866,51.553898684448995
781.357,48.1074940082392
783.847,72.81902287502385
786.335,76.35521790087614
788.821,105.38294525821038
791.306,130.71205869446794
793.789,160.34301545556468
796.27,177.41925411410443
798.749,237.3700485880638
801.227,294.2438383499575
803.702,340.13679673124716
806.176,335.5261611315125
808.649,335.0797537038077
811.119,321.6559782305035
813.588,333.87524557054894
816.055,332.5961610114964
818.521,345.5821878120055
820.984,318.97783455386866
823.446,280.68960439880084
825.906,247.00503958332138
828.365,222.2117659136361
830.821,193.07368011766084
833.276,183.30713719704227
835.729,164.53332825536586
838.181,117.65922975493731
840.631,99.35379086879993
843.079,118.2384065470344
845.525,119.9345334402094
847.97,126.06368677521232
850.412,137.39029437393515
852.854,112.5359792433876
855.293,102.55098502295118
857.731,107.53322047925485
860.167,80.67587542962133
862.601,77.21979857027122
865.034,80.7868276854822
867.465,76.1893103329362
869.894,68.81105310049838
872.321,69.98827086299002
874.747,49.342916991347465
877.171,48.54458499035127
879.594,47.92955299349978
882.014,41.26268540074125
884.433,33.070763087629985
886.851,40.737718376389694
889.266,55.64748905459305
891.68,81.99353906050828
894.092,122.6836172636888
896.503,131.00642100746109
898.912,110.44111679427442
901.319,92.99067049485939
903.724,112.37232041452444
906.128,121.58900274040934
908.53,147.88172936968294
910.931,138.63434669012486
913.329,106.13543721784868
915.726,95.19736409217421
918.122,118.44198223716376
920.516,130.348254285062
922.908,126.20462840449727
925.298,105.34713041439318
927.687,107.82602732646023
930.074,121.73915755434541
932.459,145.18430874183082
934.843,156.25921463865598
937.225,120.15679007157905
939.605,94.16512782019709
941.984,92.95320977848723
944.361,83.61852287824627
946.736,81.06800834586693
949.11,98.49424905435603
951.482,96.89927592296635
953.853,103.90408860254843
956.222,93.5581761609003
958.589,73.52999014906868
960.954,63.53551290575069
963.318,71.48111157597214
965.68,86.41591593929752
968.041,84.38895814279977
970.4,73.782502910213
972.757,53.1215682272948
975.113,28.407255550988566
977.467,2.878651447162383
979.819,1.8223482759635772
982.17,-13.903746553090059
984.519,-7.06088674161424
986.866,-5.791391644883788
989.212,7.2384953307512205
991.556,38.17193806408045
993.899,80.15198130398812
996.24,65.51202500310546
998.579,86.06153674669304
1000.92,50.276526086292506
1003.25,39.10906649241315
1005.59,51.8444363548399
1007.92,51.43445045912972
1010.25,23.59269622501438
1012.58,17.365960420986767
1014.91,-0.15148697824588453
1017.24,22.801155375300596
1019.56,53.17503205972798
1021.88,77.6354427241697
1024.2,82.46660864196838
1026.52,68.09548688290215
1028.84,56.94891781874344
1031.16,80.31077262881468
1033.48,99.41719604363698
1035.79,126.36137289810472
1038.1,117.95067563704583
1040.41,126.46857372553472
1042.72,121.05559067826675
1045.03,153.32835632702108
1047.33,157.47484956431913
1049.64,160.5877363251716
1051.94,140.2834218545479
1054.24,153.60681726055282
1056.54,168.6503917818884
1058.84,178.9351298172303
1061.13,181.22005938316124
1063.43,189.50225676259356
1065.72,200.1597082960427
1068.01,218.95131503004131
1070.3,228.2549926036529
1072.59,215.11529494450565
1074.87,219.71960939340624
1077.16,207.92197087656677
1079.44,230.14782845879267
1081.72,231.91785951571092
1084.0,261.7527362869546
1086.28,314.55408290553646
1088.56,381.55686099864806
1090.84,475.56746957417727
1093.11,558.011368716747
1095.38,581.2187985218536
1097.65,567.9485932680936
1099.92,492.3405670179702
1102.19,394.2488515996481
1104.46,366.00380601728125
1106.72,333.50725919467413
1108.98,332.6610860522835
1111.24,348.51006929849495
1113.5,361.3847612209065
1115.76,380.0919645252211
1118.02,424.3433084122462
1120.28,469.993348464413
1122.53,480.94433319896075
1124.78,479.0509706211228
1127.03,436.6918614439767
1129.28,353.91236087972493
1131.53,281.42458328811676
1133.77,256.22645444392083
1136.02,247.36362094725519
1138.26,251.7865977291558
1140.5,250.68410603333632
1142.74,248.57831615984878
1144.98,261.6581854468434
1147.22,306.3985105380448
1149.45,342.5599320311842
1151.69,343.33179626928836
1153.92,308.33215998911373
1156.15,248.7506521124344
1158.38,194.4437164897115
1160.61,179.36318797710055
1162.83,173.6039161325059
1165.06,176.83234129258472
1167.28,169.57221350690156
1169.5,123.01412099588515
1171.72,95.77739956116989
1173.94,64.62442294832067
1176.16,51.17489320955906
1178.37,62.47727392362617
1180.58,89.48498532041367
1182.8,55.4373613103503
1185.01,35.57393984712621
1187.22,0.4678009094618574
1189.42,-21.831571707596595
1191.63,-25.369710754965354
1193.84,-28.572871557208373
1196.04,-52.62897848029843
1198.24,-63.106669374187504
1200.44,-31.5267240622627
1202.64,7.066501297676268
1204.84,43.390775576975784
1207.03,49.92597632601087
1209.23,55.580740823585074
1211.42,45.54959331680516
1213.61,56.1700722609512
1215.8,49.82747660696896
1217.99,61.431040660390636
1220.18,42.699632749781586
1222.36,47.16173960947049
1224.55,58.441165047999675
1226.73,69.44749052133261
1228.91,81.80463094415677
1231.09,75.42224764404978
1233.27,47.49573274421141
1235.44,35.4109554509655
1237.62,38.83948453172911
1239.79,19.976667935844716
1241.96,43.4940017018032
1244.13,66.25340753065188
1246.3,137.25960765431455
1248.47,211.75536120050015
1250.64,293.93574817665535
1252.8,355.32912012059023
1254.96,441.22566979871795
1257.13,547.058381856677
1259.29,668.1173168032885
1261.44,772.3591330897516
1263.6,834.5499425221701
1265.76,854.0748323407497
1267.91,811.0331015847019
1270.06,728.8573069809545
1272.22,625.2656421662055
1274.37,548.7381264327705
1276.51,497.2308887125364
1278.66,459.46188013233404
1280.81,411.4346818074159
1282.95,343.7718364444554
1285.09,293.2386561350231
1287.23,257.74322062525334
1289.37,242.24113749026583
1291.51,265.92601659430966
1293.65,276.8008969318473
1295.78,289.48776870674374
1297.92,294.03709541145054
1300.05,292.7373359061992
1302.18,314.8768474505648
1304.31,378.5534077826544
1306.44,408.4837371982917
1308.57,400.8606396778223
1310.69,363.3530011557657
1312.82,355.058168742858
1314.94,397.8829013766565
1317.06,461.30527285310586
1319.18,492.8508605723853
1321.3,488.5689342847604
1323.41,458.8895972173855
1325.53,434.33807005825156
1327.64,417.4870701782247
1329.75,392.9568099007015
1331.87,370.0816614379371
1333.98,369.6244408749892
1336.08,337.0621207250954
1338.19,323.2048758183812
1340.3,278.48179585723256
1342.4,220.98850273357039
1344.5,163.72524403660213
1346.6,117.64451037010099
1348.7,88.22246219349563
1350.8,93.36368999629372
1352.9,98.49645066298149
1354.99,117.95361812362944
1357.09,90.87744352830873
1359.18,56.17193446912893
1361.27,33.45523420227596
1363.36,42.8691437271907
1365.45,60.46007243718668
1367.54,96.32189694860722
1369.62,102.9769194905441
1371.7,111.99492153264987
1373.79,119.18364598437688
1375.87,171.87451748946046
1377.95,172.49407700611187
1380.03,166.32589257768996
1382.1,150.22485105575265
1384.18,115.7600212516843
1386.25,100.88132661213194
1388.33,95.91955122776903
1390.4,52.34825060396406
1392.47,23.78375766954514
1394.54,15.366141166512762
1396.6,-8.81221691262499
1398.67,-19.278041476891758
1400.74,-21.558106726739425
1402.8,-17.512560423693685
1404.86,-16.525393069725396
1406.92,1.2574715667467444
1408.98,-4.833725455095646
1411.04,-10.802100949420947
1413.09,0.4444430633388947
1415.15,2.6170296161014903
1417.2,19.8553302099167
1419.25,62.06089779839385
1421.3,115.992404802912
1423.35,156.5989783612156
1425.4,173.06782129029716
1427.45,154.82421400165936
1429.49,154.7219926070486
1431.54,118.18640797657395
1433.58,90.59508003491896
1435.62,56.99228539088631
1437.66,47.184197347895406
1439.7,64.97698305734184
1441.74,91.46251971957076
1443.77,118.63744411818175
1445.81,111.83172596386385
1447.84,100.70866980965661
1449.87,101.93158363287785
1451.9,108.3066378932449
1453.93,98.73524840051368
1455.96,144.3569353725984
1457.98,171.02551582702017
1460.01,228.1186293056901
1462.03,292.2996445520703
1464.05,352.9462328550028
1466.07,390.57894139253426
1468.09,473.0040522900297
1470.11,608.2659654878098
1472.13,773.4567244659281
1474.14,968.620780064185
1476.16,1134.4692781116696
1478.17,1219.8562518182034
1480.18,1236.8262427372151
1482.19,1209.0428741095684
1484.2,1082.6936146835767
1486.21,954.2040663445464
1488.21,779.9522517443102
1490.22,597.9352828831511
1492.22,423.48364873933474
1494.22,302.451693374833
1496.22,194.26523689819146
1498.22,153.20729166549427
1500.22,141.1799689575205
1502.22,102.7044808949936
1504.21,56.444951877644144
1506.21,20.351277642320838
1508.2,-6.483729964611939
1510.19,-1.1576744053490984
1512.18,32.42237984557073
1514.17,25.444670458547762
1516.16,4.621309812471054
1518.14,-13.049809108399359
1520.13,1.4292741348317577
1522.11,12.294684274488418
1524.09,7.306424878877351
1526.07,10.224569229880217
1528.05,22.809260724357273
1530.03,13.582618770919225
1532.01,25.20969332832533
1533.98,19.87941944388217
1535.96,-27.409666303395852
1537.93,-17.658947454864574
1539.9,-0.5363921814687274
1541.87,-1.9479825664534474
1543.84,1.6765685718205532
1545.81,18.145719850397654
1547.78,38.696574723345975
1549.74,82.37583124301636
1551.7,81.03977944035023
1553.67,97.83048918138115
1555.63,111.55675992849888
1557.59,125.31316573980303
1559.55,142.71814788750908
1561.5,154.24734557158672
1563.46,148.85264091910858
1565.41,150.3431087455076
1567.37,172.2421567920269
1569.32,171.31133262983371
1571.27,154.407463897468
1573.22,139.29217949066833
1575.17,104.58428789506047
1577.11,80.28358409027169
1579.06,81.48513264452208
1581.0,84.09355080921364
1582.95,71.29919637542321
1584.89,54.14959362563377
1586.83,48.83514499975354
1588.77,40.7367475230385
1590.7,42.663885424496584
1592.64,39.568913231477154
1594.58,11.142291245220349
1596.51,-0.5683694597864815
1598.44,26.77026177306834
