Raman Shift,Processed Intensity
331.095,35.1907559415622
333.909,15.766674410537235
336.721,12.296375522768358
339.531,23.613196129175776
342.339,45.193337258705924
345.145,119.10824858829392
347.949,127.7389176747156
350.751,108.51396871025645
353.55,99.1001422307645
356.348,80.49753672846327
359.144,95.75389788381653
361.937,161.34557446405552
364.729,168.9394266026702
367.518,188.2499721741283
370.306,205.27748554955906
373.091,267.49847730480906
375.874,334.15141202375435
378.656,375.0462356254143
381.435,349.70723602439875
384.212,302.2778085532691
386.988,197.52045948011846
389.761,94.53109524045522
392.532,32.07235928812497
395.301,-1.8073167680486222
398.068,-11.96418583714376
400.833,-14.778229447600552
403.596,19.56113130156882
406.358,9.293133074314937
409.117,19.942813699867656
411.874,-15.583747202799259
414.629,-35.808948541439804
417.382,-52.96937648305811
420.133,-10.063419647399314
422.882,45.76777832395692
425.629,101.52602669789349
428.374,136.49893731632665
431.117,235.64087429903157
433.858,282.7634275560058
436.597,297.6306482045911
439.334,281.91142684373744
442.069,251.56044325684115
444.802,230.05625897173013
447.533,236.59179077302906
450.262,251.1695461192826
452.989,255.12542998864956
455.714,268.17636124840647
458.438,295.9916985482578
461.159,296.90752335650404
463.878,242.54568490095153
466.595,231.43284510983267
469.31,209.33380926701102
472.024,215.87057095291266
474.735,251.80802365212003
477.444,261.6253866466759
480.152,253.13524995701846
482.857,273.2930954733806
485.561,266.34015142053613
488.262,248.94624682253834
490.962,276.9240945388883
493.659,271.4673838245121
496.355,278.3412538421262
499.048,276.6441957460256
501.74,269.76043095634986
504.43,273.2170513381079
507.118,349.63639747544903
509.804,429.97415123164546
512.488,483.5193330709785
515.17,549.275251761574
517.85,595.0071207449114
520.528,641.6230078386593
523.204,685.0309754157038
525.878,724.9009824879372
528.551,717.0458344090871
531.221,727.0878468632704
533.89,714.1731289011645
536.556,710.3525326428394
539.221,686.5340315520207
541.883,678.1017653770245
544.544,694.8684184250101
547.203,705.5990264076772
549.86,690.3443070964718
552.515,705.2501814539905
555.168,706.2244376225417
557.819,738.1272044365037
560.469,805.2947582680399
563.116,857.6823774918398
565.761,880.0548159974869
568.405,891.7958243208659
571.047,881.0986231565234
573.687,876.3468530605091
576.324,829.8288574865478
578.96,786.2138705841171
581.594,745.7424907108107
584.227,714.9885825161309
586.857,695.9068933109847
589.485,687.4520980086158
592.112,654.2454631131541
594.737,645.8129392795859
597.359,606.4423014927788
599.98,587.8498130560297
602.599,577.942127674844
605.216,576.0067629692999
607.831,591.9025739864082
610.445,634.2026076648535
613.056,662.0036239663959
615.666,716.4499027215675
618.274,799.6380028563149
620.88,871.7596168567447
623.484,950.1015680910104
626.086,1011.7600938454871
628.686,1076.9741759799927
631.284,1134.8874430115825
633.881,1192.0243579126254
636.476,1151.147358289833
639.068,1100.7330441823474
641.659,969.3055087169637
644.249,861.3887163824011
646.836,749.3636432083363
649.421,634.5158931349092
652.005,507.654742953659
654.587,410.4464729627416
657.166,327.17626905072393
659.745,272.938696208947
662.321,217.92341013912574
664.895,139.12944028952506
667.468,98.84137765303785
670.038,80.05794351764007
672.607,74.11103440733177
675.174,61.99905273736704
677.739,47.52976127899092
680.303,28.558375719427204
682.864,38.27328251256495
685.424,51.62461871538244
687.982,24.32428335717441
690.538,17.798333658033698
693.092,-11.812999705043694
695.645,-30.89339007953049
698.195,-24.350395253758506
700.744,-15.424962934172072
703.291,-32.59617765132589
705.836,5.9901802180570485
708.38,21.75974048022681
710.921,32.66193139717507
713.461,23.217606659405646
715.999,49.56667235870236
718.535,31.515713960901394
721.069,26.20467089770682
723.602,28.154463539465723
726.133,15.64795350127406
728.662,-15.17481033663853
731.189,13.588178001002689
733.714,26.74374665252708
736.238,9.336887177802055
738.759,-7.111142278521129
741.279,-27.03138049043082
743.798,-38.950012368261014
746.314,-54.393122938303804
748.829,-28.505737036705796
751.342,-16.623243898188775
753.853,-34.461874963914624
756.362,-27.071086451265728
758.869,-19.024037161711476
761.375,-20.750923431535284
763.879,-3.0627902730363985
766.381,-5.103913944301667
768.882,-26.82799404279058
771.38,-21.474345598921673
773.877,-12.94885307441973
776.372,33.366504210765015
778.866,41.94698379439001
781.357,50.26793559738894
783.847,52.70956221123424
786.335,52.27120299483431
788.821,46.142761028567065
791.306,54.228511020701035
793.789,69.71852626143232
796.27,107.27915319597196
798.749,163.38634314048954
801.227,210.37326971233324
803.702,251.19223197453653
806.176,287.98608138985196
808.649,323.46917258430676
811.119,327.78450458695033
813.588,337.2180049267456
816.055,289.57948039612234
818.521,258.5835678145304
820.984,226.04020860151627
823.446,190.23559954027496
825.906,148.64647687453612
828.365,129.94011469116867
830.821,87.68860901707262
833.276,78.36887620178345
835.729,55.60074653817537
838.181,50.43267693078087
840.631,30.960796897435785
843.079,30.709859332816904
845.525,29.06181031960955
847.97,20.636739892045398
850.412,23.388118513733843
852.854,49.174224031686435
855.293,25.948616249389715
857.731,40.42680197606364
860.167,41.56242388545115
862.601,35.547258898408245
865.034,41.76359751788573
867.465,30.64138506866675
869.894,-4.437018015273452
872.321,-19.708266379600218
874.747,-12.551840890828089
877.171,-2.156716920384497
879.594,16.7167292760862
882.014,13.831957036564518
884.433,30.285783484782996
886.851,37.12742953187626
889.266,48.787089687559046
891.68,52.17116853796233
894.092,76.23370769967164
896.503,81.73828896423265
898.912,103.68660410932603
901.319,115.79464375756106
903.724,112.77841004479365
906.128,116.5920102408229
908.53,130.95146465580137
910.931,109.33470502282921
913.329,106.21966811864672
915.726,66.46524652718631
918.122,63.83509654597992
920.516,81.61668418780368
922.908,90.52604546803923
925.298,79.32683240631991
927.687,98.02078759960182
930.074,86.51440927143585
932.459,87.61894965456668
934.843,80.95517527829907
937.225,55.76288916062413
939.605,51.853310143201725
941.984,67.89478555967366
944.361,112.93659914207751
946.736,117.98039797486854
949.11,90.3135242108549
951.482,65.5090134537927
953.853,47.377974093369176
956.222,40.112442830661166
958.589,70.28538306073324
960.954,74.61258801714666
963.318,62.00029820217287
965.68,84.97377119796488
968.041,72.43918481105925
970.4,77.30268307402503
972.757,78.75608891377578
975.113,38.038807296071354
977.467,-7.705033534746008
979.819,-23.474202720772837
982.17,-35.41036840794209
984.519,-19.131433495801048
986.866,13.030364222335947
989.212,20.695110013867406
991.556,34.10186814225813
993.899,41.58486293424062
996.24,42.906804786465955
998.579,34.49697807692155
1000.92,33.689329076348486
1003.25,38.38912528823289
1005.59,39.358662407842075
1007.92,39.93154270983291
1010.25,32.39362010252967
1012.58,20.173468991723666
1014.91,21.794757906376162
1017.24,21.400054937682626
1019.56,25.655587611149485
1021.88,52.465528782767024
1024.2,63.16247518890941
1026.52,98.07888097619434
1028.84,114.02325313609344
1031.16,104.04206122526375
1033.48,100.89593280015492
1035.79,105.20251551829188
1038.1,96.62695828716915
1040.41,145.881916222678
1042.72,168.01326989324434
1045.03,162.97155884968106
1047.33,144.27865325027892
1049.64,110.55156834303489
1051.94,102.359612281218
1054.24,134.93867679607206
1056.54,159.81028977428105
1058.84,167.30542974019113
1061.13,173.4216736713688
1063.43,157.82320195701686
1065.72,165.1265176421025
1068.01,183.28140376672036
1070.3,181.8090235626005
1072.59,182.18287779247134
1074.87,184.11452399418795
1077.16,178.12501001056512
1079.44,187.59249799540976
1081.72,208.51417413383615
1084.0,222.88720598162718
1086.28,270.6611283760328
1088.56,349.6902293465673
1090.84,472.20974554961776
1093.11,555.9787243697194
1095.38,590.7562193541689
1097.65,552.7774856476321
1099.92,462.1349373315202
1102.19,386.34958095383377
1104.46,356.1805442971058
1106.72,323.9584146701534
1108.98,307.10905339030614
1111.24,313.9631245513517
1113.5,319.6608618867183
1115.76,383.53302610885703
1118.02,430.9580527248122
1120.28,456.9334855660775
1122.53,458.5997912708317
1124.78,456.47845948046074
1127.03,429.56724589321925
1129.28,403.5306534131355
1131.53,338.3189847274723
1133.77,258.93025202706235
1136.02,214.98161053615922
1138.26,192.6141253756291
1140.5,211.39753842614073
1142.74,261.47313042944984
1144.98,318.4108688039728
1147.22,358.92369831749966
1149.45,394.0580222360977
1151.69,357.38418347301445
1153.92,324.7107552613875
1156.15,275.4178794460006
1158.38,243.6477476321886
1160.61,228.35222519188164
1162.83,211.67380860298113
1165.06,171.46943993159744
1167.28,112.16765464761602
1169.5,60.578110392651524
1171.72,51.891591938469446
1173.94,46.15620662160086
1176.16,40.515484539863564
1178.37,28.160764463167425
1180.58,-10.525944065200974
1182.8,-24.44814624634637
1185.01,-16.461523734004686
1187.22,-27.135835532329793
1189.42,-33.51682148001669
1191.63,-37.078583649053826
1193.84,-34.81882776705743
1196.04,-17.496965369760574
1198.24,18.36587529735357
1200.44,2.0582632140169608
1202.64,21.29749573052959
1204.84,30.46767917675811
1207.03,36.381619206043524
1209.23,36.661760891822496
1211.42,58.12112882424708
1213.61,26.5252195877556
1215.8,52.02056090530618
1217.99,62.32517554451783
1220.18,59.72856903333536
1222.36,47.71076499473838
1224.55,52.60895952907026
1226.73,28.617508929697806
1228.91,15.073631684383827
1231.09,22.83834857189595
1233.27,-3.322574366899971
1235.44,4.689937731972805
1237.62,16.59397729151533
1239.79,31.01236268067032
1241.96,58.901204232612145
1244.13,126.7403767308374
1246.3,173.34304265098808
1248.47,260.6651754026732
1250.64,336.42460638081366
1252.8,411.4343577312736
1254.96,513.6502608307808
1257.13,607.8376223858959
1259.29,724.4759857700758
1261.44,813.0924637893174
1263.6,870.7379285906529
1265.76,876.4632015706488
1267.91,836.4619099505628
1270.06,757.5466766848476
1272.22,679.9110246553614
1274.37,584.5103284846341
1276.51,533.9189568253189
1278.66,479.42550988774155
1280.81,405.93758077697885
1282.95,353.4103263537397
1285.09,309.22741904763643
1287.23,308.53437962283215
1289.37,306.00048137225326
1291.51,317.3425590737222
1293.65,300.5631036603611
1295.78,297.4740711767199
1297.92,300.3159298301375
1300.05,334.5671832325861
1302.18,350.0396079282318
1304.31,387.8782528257577
1306.44,433.18048624973585
1308.57,442.7102810872343
1310.69,413.1363094582366
1312.82,441.69860881463364
1314.94,485.0657242296918
1317.06,507.6680411637119
1319.18,520.4120706106442
1321.3,508.48997233994396
1323.41,474.14145909079843
1325.53,498.8918912425536
1327.64,506.4094191041829
1329.75,481.3621252037608
1331.87,398.84659514936175
1333.98,371.5307742042446
1336.08,371.844442909661
1338.19,375.3125498505101
1340.3,352.93616346862404
1342.4,308.85913816176003
1344.5,208.1776375254508
1346.6,166.0829909281831
1348.7,151.3855024675363
1350.8,138.75254564059946
1352.9,135.56570563344576
1354.99,132.25411208678497
1357.09,110.77062900448277
1359.18,103.44899704302452
1361.27,98.43240437241161
1363.36,82.05443848943742
1365.45,82.83908565001025
1367.54,96.78644458719577
1369.62,95.46796403877966
1371.7,121.55025170340559
1373.79,146.5093593871875
1375.87,130.34506815032228
1377.95,150.05707821560782
1380.03,140.07357982933513
1382.1,118.53696697933196
1384.18,137.78002730347998
1386.25,146.94498914108726
1388.33,103.65018763188004
1390.4,80.6567308149954
1392.47,23.011356204166077
1394.54,-13.810712637099869
1396.6,-25.191480948904427
1398.67,-7.989228569175793
1400.74,-22.490890561377682
1402.8,-7.221583468570998
1404.86,2.4839628131155678
1406.92,22.386161184513867
1408.98,26.340560817812275
1411.04,23.821650416131888
1413.09,11.446663765719677
1415.15,35.49938796676315
1417.2,83.6444502798397
1419.25,142.92732043927413
1421.3,185.72669391887234
1423.35,170.51639900717646
1425.4,158.62730388271984
1427.45,141.34255702261112
1429.49,106.04044665874176
1431.54,111.5753554720975
1433.58,89.23014385849501
1435.62,53.335199860985085
1437.66,70.22082243559112
1439.7,91.50293805038245
1441.74,84.32119823692847
1443.77,83.00564857032532
1445.81,40.55292145874523
1447.84,17.864333694885772
1449.87,16.793507816951433
1451.9,32.479707755348954
1453.93,63.347842933235825
1455.96,92.39418833395871
1457.98,137.32924742563182
1460.01,194.9110912761878
1462.03,246.32631671605463
1464.05,312.23767116749286
1466.07,393.68882033108207
1468.09,514.4853063483938
1470.11,651.28979167895
1472.13,798.431588691469
1474.14,948.0019035408193
1476.16,1105.13955623545
1478.17,1201.0786054667344
1480.18,1244.8626401049687
1482.19,1212.4400230763338
1484.2,1102.0448495255669
1486.21,942.7683811691038
1488.21,770.178099695848
1490.22,593.8415220726981
1492.22,449.8500158500751
1494.22,358.961662086494
1496.22,273.5060230350464
1498.22,203.47938602035197
1500.22,143.54476922027652
1502.22,89.88907030479072
1504.21,31.556405551017633
1506.21,36.68621086304324
1508.2,43.03705707744598
1510.19,44.27237003072696
1512.18,46.67472205530885
1514.17,28.860123475534692
1516.16,-15.793400182049254
1518.14,-28.907707168882325
1520.13,-31.485486113629577
1522.11,-23.338823323133965
1524.09,0.006036361138285429
1526.07,16.594401530692494
1528.05,39.04312942061847
1530.03,35.826335406530234
1532.01,30.608723222132767
1533.98,25.150343748212663
1535.96,31.020877611158767
1537.93,40.171060638619565
1539.9,75.93268074373623
1541.87,86.68524147604398
1543.84,62.2369112866586
1545.81,30.01499660298441
1547.78,32.25641490342332
1549.74,50.81721541113029
1551.7,89.60114740681547
1553.67,112.94060949392542
1555.63,108.40617029239706
1557.59,105.37799389431848
1559.55,132.61726531959175
1561.5,160.17094930492772
1563.46,185.13369194998404
1565.41,179.98115093492765
1567.37,174.56999240467007
1569.32,176.89979261500343
1571.27,177.92255862636353
1573.22,146.68558233091971
1575.17,106.569532574905
1577.11,68.76464251903735
1579.06,41.127849379897725
1581.0,63.039934171305276
1582.95,91.4055185885502
1584.89,99.65306189262628
1586.83,98.40152446112961
1588.77,101.17465038678142
1590.7,78.02001198070548
1592.64,71.03281618047731
1594.58,65.57018714863989
1596.51,54.227353633134044
1598.44,31.170979184858652
