Raman Shift,Processed Intensity
331.095,38.13282738095192
333.909,-30.285100000000213
336.721,-49.5180714285716
339.531,-37.952661904761904
342.339,-29.666438095238092
345.145,-8.331538095238088
347.949,18.334373333333318
350.751,10.09140190476191
353.55,-7.965629523809509
356.348,8.212169523809534
359.144,21.865722857142885
361.937,38.094349523809576
364.729,74.9995257142858
367.518,115.39788571428582
370.306,178.393842857143
373.091,245.6168857142859
375.874,359.98371428571454
378.656,424.0790000000002
381.435,388.4897142857144
384.212,291.136661904762
386.988,170.5620142857143
389.761,61.928109523809596
392.532,47.20838095238099
395.301,26.18730380952381
398.068,-5.634577142857144
400.833,3.38730761904762
403.596,-10.957865714285704
406.358,18.12055523809527
409.117,28.986208571428552
411.874,-0.3767438095238207
414.629,-5.982595238095213
417.382,28.203423809523848
420.133,36.69360476190482
422.882,90.62096666666673
425.629,113.1670952380953
428.374,147.70538571428585
431.117,220.2772190476192
433.858,277.21095238095256
436.597,288.0737142857144
439.334,304.33919047619065
442.069,262.48133333333345
444.802,230.26109523809538
447.533,209.345142857143
450.262,219.97228571428587
452.989,219.7153333333335
455.714,271.4816476190478
458.438,253.32166666666677
461.159,199.4772666666668
463.878,140.33367619047627
466.595,126.27651428571437
469.31,112.93068571428583
472.024,159.96866666666673
474.735,172.1112095238096
477.444,162.12714285714296
480.152,156.97609523809535
482.857,180.5702380952382
485.561,189.20380952380964
488.262,235.07538095238107
490.962,236.19338095238106
493.659,204.28080952380964
496.355,160.58461904761913
499.048,150.54257142857153
501.74,143.16409523809537
504.43,170.07771428571436
507.118,188.67380952380964
509.804,204.67600000000013
512.488,243.57019047619065
515.17,277.98523809523823
517.85,272.7395714285716
520.528,236.84311428571436
523.204,180.78132857142865
525.878,131.65875238095248
528.551,120.48481428571435
531.221,124.88781904761912
533.89,104.68582380952387
536.556,115.31682857142864
539.221,93.64627619047623
541.883,83.34934285714291
544.544,111.81520000000009
547.203,129.95703809523818
549.86,162.2585809523811
552.515,187.91834285714293
555.168,181.84809523809534
557.819,158.34066666666678
560.469,174.11704761904772
563.116,171.99352380952394
565.761,185.11890476190484
568.405,170.69000000000008
571.047,150.80747619047625
573.687,128.8577142857144
576.324,139.55961904761915
578.96,163.44176190476202
581.594,153.9845714285715
584.227,150.0972857142858
586.857,135.83095238095245
589.485,137.42676190476197
592.112,148.17342857142867
594.737,159.3115238095239
597.359,151.08138095238104
599.98,154.6280952380953
602.599,153.95314285714295
605.216,172.29580952380965
607.831,163.22849523809532
610.445,140.37063809523818
613.056,120.00795238095245
615.666,90.18813333333338
618.274,93.5301333333334
620.88,107.79501428571433
623.484,112.79109523809532
626.086,132.3743380952382
628.686,172.78097142857155
631.284,202.43790952380965
633.881,239.00979047619063
636.476,259.3510000000001
639.068,285.2686190476192
641.659,286.3787142857144
644.249,243.6306666666668
646.836,189.11628571428577
649.421,123.26078571428577
652.005,90.91726666666673
654.587,96.51085238095244
657.166,95.13264761904766
659.745,76.01677619047622
662.321,52.11127142857144
664.895,15.031080952380957
667.468,-4.228333333333326
670.038,-4.766357142857132
672.607,10.031847619047664
675.174,61.923795238095295
677.739,98.66698571428577
680.303,133.1141333333334
682.864,129.11826190476194
685.424,120.05613809523817
687.982,70.06665714285717
690.538,47.24090000000003
693.092,22.622390476190496
695.645,22.1594523809524
698.195,22.51507238095241
700.744,32.25689619047619
703.291,22.80991142857146
705.836,53.694170476190514
708.38,56.7158685714286
710.921,65.96682000000004
713.461,76.72942000000002
715.999,50.809876190476224
718.535,50.586071428571486
721.069,91.3403333333334
723.602,84.92685238095244
726.133,86.77115714285719
728.662,78.72742380952383
731.189,38.36418809523811
733.714,27.059676190476228
736.238,32.23956904761907
738.759,43.044204761904815
741.279,68.61361666666672
743.798,96.0404428571429
746.314,83.65548095238098
748.829,79.78959047619051
751.342,55.44042857142861
753.853,69.41520000000006
756.362,84.42593333333338
758.869,90.08949047619052
761.375,80.16563809523815
763.879,85.27123809523815
766.381,83.11878095238103
768.882,95.22997619047624
771.38,103.17459238095242
773.877,69.80789952380955
776.372,66.31872761904766
778.866,57.705224285714316
781.357,74.82324285714292
783.847,68.4330766666667
786.335,73.10478000000003
788.821,45.07511333333338
791.306,66.62860190476195
793.789,59.71641047619054
796.27,114.09963428571437
798.749,132.63417619047627
801.227,156.4618857142858
803.702,152.629861904762
806.176,165.23221904761914
808.649,155.60180952380964
811.119,171.78572380952392
813.588,147.59277142857147
816.055,137.40360952380956
818.521,110.45612857142864
820.984,111.32091428571438
823.446,127.95049047619055
825.906,139.20180952380957
828.365,129.12232857142865
830.821,132.1884476190477
833.276,129.20966666666675
835.729,138.709761904762
838.181,143.35604761904767
840.631,137.76766666666674
843.079,131.70685714285722
845.525,129.07847619047627
847.97,133.45475238095247
850.412,130.02666666666676
852.854,121.03315238095243
855.293,85.57002380952383
857.731,60.97153333333337
860.167,56.04769523809527
862.601,49.94261428571431
865.034,40.704771428571455
867.465,56.14474761904765
869.894,43.12078571428575
872.321,59.68182380952388
874.747,102.49565714285721
877.171,122.75407142857149
879.594,116.07747619047625
882.014,117.5148714285715
884.433,124.49635238095249
886.851,134.69031904761914
889.266,171.05082857142867
891.68,168.7223714285715
894.092,157.27790476190486
896.503,155.4334285714287
898.912,180.19109523809536
901.319,209.45771428571442
903.724,221.80671428571438
906.128,195.76385714285726
908.53,164.42628571428577
910.931,156.51038095238107
913.329,163.73295238095253
915.726,182.6202380952382
918.122,173.79342857142868
920.516,159.30247619047628
922.908,133.19766666666675
925.298,139.38585714285725
927.687,148.39371428571437
930.074,145.271561904762
932.459,135.45048095238099
934.843,82.59987619047621
937.225,52.817909523809575
939.605,50.297647619047666
941.984,67.08985142857149
944.361,69.14978714285716
946.736,72.81366952380954
949.11,54.798855714285764
951.482,66.48926476190482
953.853,79.69748238095244
956.222,88.42656571428576
958.589,86.44132380952388
960.954,84.64945238095245
963.318,104.05396190476199
965.68,125.32470476190483
968.041,142.98810476190482
970.4,137.0470095238096
972.757,140.3134952380953
975.113,103.40919523809528
977.467,78.67004285714289
979.819,46.432047619047644
982.17,35.60201428571432
984.519,45.372709523809576
986.866,53.17474761904766
989.212,80.1528095238096
991.556,113.7374857142858
993.899,157.78750000000014
996.24,187.87566666666675
998.579,187.86076190476194
1000.92,142.1250952380953
1003.25,123.52685714285721
1005.59,91.49571428571437
1007.92,111.84238095238105
1010.25,137.8530000000001
1012.58,155.4810000000001
1014.91,169.77457142857153
1017.24,197.01990476190485
1019.56,178.74114285714293
1021.88,160.3675238095239
1024.2,147.13690476190484
1026.52,149.90700000000012
1028.84,156.05857142857155
1031.16,194.25819047619063
1033.48,227.83919047619062
1035.79,249.61095238095254
1038.1,261.4300952380954
1040.41,313.1534761904764
1042.72,329.113904761905
1045.03,332.21533333333355
1047.33,319.45757142857155
1049.64,270.1256190476191
1051.94,212.78980952380965
1054.24,217.11600000000016
1056.54,230.53204761904777
1058.84,237.8464285714287
1061.13,218.24857142857152
1063.43,214.35657142857156
1065.72,229.69261904761922
1068.01,261.77961904761924
1070.3,284.2352380952383
1072.59,277.4870000000001
1074.87,249.6283333333335
1077.16,236.70585714285733
1079.44,282.2418571428574
1081.72,343.9014285714288
1084.0,400.82566666666696
1086.28,458.3941428571432
1088.56,552.6525714285718
1090.84,648.4091428571433
1093.11,742.757428571429
1095.38,760.2195714285717
1097.65,683.9364761904765
1099.92,555.0493333333336
1102.19,457.3656666666669
1104.46,407.26485714285735
1106.72,412.7446190476194
1108.98,419.5655714285717
1111.24,445.82066666666697
1113.5,480.74642857142885
1115.76,548.1504761904765
1118.02,600.8405238095241
1120.28,648.1951904761908
1122.53,625.0699523809527
1124.78,592.081904761905
1127.03,538.5149523809528
1129.28,492.36723809523835
1131.53,428.87495238095255
1133.77,353.3693809523811
1136.02,298.4200952380954
1138.26,247.54904761904777
1140.5,218.8019047619049
1142.74,215.84361904761917
1144.98,224.05347619047635
1147.22,233.33452380952397
1149.45,271.49423809523825
1151.69,274.00719047619066
1153.92,240.6333809523811
1156.15,210.9902380952382
1158.38,169.69528571428583
1160.61,152.60395238095248
1162.83,155.5715142857144
1165.06,156.69218571428578
1167.28,135.05946190476197
1169.5,116.33861428571434
1171.72,95.38537142857149
1173.94,84.15060952380956
1176.16,79.39482380952386
1178.37,71.59312857142861
1180.58,69.07758095238098
1182.8,44.60893333333335
1185.01,40.80512857142859
1187.22,27.37938571428573
1189.42,21.806966666666696
1191.63,42.753500000000045
1193.84,61.408785714285756
1196.04,79.48612380952387
1198.24,100.31829047619053
1200.44,94.33319047619052
1202.64,94.95884761904767
1204.84,88.76601904761908
1207.03,76.56391714285719
1209.23,61.30434333333335
1211.42,38.701481904761934
1213.61,34.65989000000003
1215.8,44.60807238095242
1217.99,58.68887666666672
1220.18,89.52142190476195
1222.36,82.10597142857146
1224.55,84.77593809523816
1226.73,110.62724761904767
1228.91,85.56502857142861
1231.09,80.73282857142863
1233.27,69.08361428571432
1235.44,53.570543809523855
1237.62,45.14670095238098
1239.79,50.7657542857143
1241.96,26.952451428571464
1244.13,57.13652571428578
1246.3,85.31938666666674
1248.47,131.50213428571436
1250.64,147.44796666666673
1252.8,159.92047619047628
1254.96,161.11152380952393
1257.13,200.26076190476203
1259.29,234.51290476190493
1261.44,267.2501904761906
1263.6,270.76033333333345
1265.76,256.66442857142874
1267.91,240.15428571428586
1270.06,221.66066666666677
1272.22,208.13761904761918
1274.37,193.92066666666676
1276.51,199.77400000000011
1278.66,205.12804761904775
1280.81,224.937142857143
1282.95,217.9178571428573
1285.09,208.02457142857153
1287.23,191.21233333333348
1289.37,197.14947619047632
1291.51,199.50504761904773
1293.65,195.66238095238106
1295.78,162.6236666666667
1297.92,124.72438095238101
1300.05,112.01490476190483
1302.18,114.4495238095239
1304.31,134.0782380952382
1306.44,153.4750476190477
1308.57,158.5469523809525
1310.69,169.58161904761917
1312.82,196.53409523809538
1314.94,202.54938095238106
1317.06,215.9156666666668
1319.18,213.15909523809535
1321.3,236.80590476190497
1323.41,274.2389523809526
1325.53,328.5082380952383
1327.64,366.0921904761907
1329.75,387.5645714285717
1331.87,392.07004761904784
1333.98,408.9444285714288
1336.08,397.427904761905
1338.19,380.90357142857164
1340.3,348.8972380952383
1342.4,320.12504761904785
1344.5,282.8272380952383
1346.6,258.5772380952382
1348.7,244.56747619047636
1350.8,226.22809523809536
1352.9,217.0370952380954
1354.99,203.18666666666672
1357.09,180.10728571428584
1359.18,205.65761904761922
1361.27,226.17252380952394
1363.36,250.93919047619067
1365.45,283.1970952380954
1367.54,298.18566666666686
1369.62,313.8588095238098
1371.7,366.21752380952404
1373.79,380.26295238095264
1375.87,396.7105714285716
1377.95,383.08490476190497
1380.03,344.0061904761907
1382.1,312.99914285714306
1384.18,299.92128571428583
1386.25,288.86842857142875
1388.33,270.7934761904763
1390.4,223.88742857142867
1392.47,176.48428571428582
1394.54,184.82217142857155
1396.6,158.52015714285722
1398.67,127.86393333333339
1400.74,90.091380952381
1402.8,75.7739714285715
1404.86,88.48299047619058
1406.92,140.64605714285722
1408.98,150.88202380952387
1411.04,130.0949190476191
1413.09,107.18867619047626
1415.15,95.30532857142865
1417.2,92.63467619047627
1419.25,125.31819523809533
1421.3,156.64079047619055
1423.35,156.93457142857153
1425.4,166.57919047619055
1427.45,148.95390476190482
1429.49,130.48611428571436
1431.54,113.98363809523815
1433.58,98.73070476190482
1435.62,84.96393333333342
1437.66,102.49118095238103
1439.7,136.1198476190477
1441.74,139.70546666666672
1443.77,139.674561904762
1445.81,124.35883809523817
1447.84,121.37541904761913
1449.87,120.6269714285715
1451.9,154.96825714285723
1453.93,145.01652380952387
1455.96,148.05520000000007
1457.98,114.79672380952388
1460.01,122.4294000000001
1462.03,136.0462285714287
1464.05,184.12101904761917
1466.07,222.79472380952393
1468.09,252.39805714285728
1470.11,243.64338095238105
1472.13,258.86142857142875
1474.14,270.71685714285735
1476.16,262.2550476190478
1478.17,249.8546190476192
1480.18,235.1800190476192
1482.19,188.32454285714294
1484.2,154.14270476190484
1486.21,126.25173809523815
1488.21,91.03036666666672
1490.22,78.42860952380958
1492.22,80.68258571428575
1494.22,63.9331047619048
1496.22,54.65416666666669
1498.22,44.79624761904764
1500.22,40.0240666666667
1502.22,36.28802380952383
1504.21,30.729117142857156
1506.21,24.48841000000001
1508.2,8.992719999999998
1510.19,-0.8549385714285567
1512.18,21.94380952380955
1514.17,28.38737095238097
1516.16,29.759991428571443
1518.14,33.72697714285715
1520.13,29.144160000000024
1522.11,29.772251428571465
1524.09,46.70540380952383
1526.07,47.990295238095264
1528.05,56.53081904761909
1530.03,47.135771428571445
1532.01,33.04262857142859
1533.98,30.15564761904765
1535.96,43.42683333333338
1537.93,60.95120952380958
1539.9,80.06196942857144
1541.87,53.61624347619048
1543.84,28.899910761904785
1545.81,28.81790938095242
1547.78,40.465806000000036
1549.74,51.60593871428575
1551.7,75.71511704761909
1553.67,81.03194285714291
1555.63,88.08094761904766
1557.59,80.5772047619048
1559.55,83.80728571428578
1561.5,81.72440476190484
1563.46,113.8060857142858
1565.41,140.91055714285721
1567.37,130.18163333333337
1569.32,96.1919666666667
1571.27,88.41898571428575
1573.22,76.00670952380959
1575.17,89.90910952380958
1577.11,99.55620476190481
1579.06,85.75875238095243
1581.0,86.32805714285722
1582.95,96.36050476190483
1584.89,109.09580952380958
1586.83,107.96418095238101
1588.77,96.20526666666672
1590.7,88.10620952380958
1592.64,106.24043809523818
1594.58,133.20427142857147
1596.51,147.71388571428565
1598.44,133.2709809523809
