Raman Shift,Processed Intensity
331.095,74.44717928571416
333.909,-33.92302809523814
336.721,-76.02376380952379
339.531,-71.07614952380955
342.339,-40.54011476190475
345.145,-0.4221161904761941
347.949,24.940410952380955
350.751,0.3074961904761775
353.55,-5.749601904761897
356.348,-0.13383333333331393
359.144,24.729914285714322
361.937,36.609185714285765
364.729,100.4638095238096
367.518,121.39848095238106
370.306,183.90052857142877
373.091,304.5542952380955
375.874,423.89843809523836
378.656,476.37771428571455
381.435,455.9153333333335
384.212,327.7214095238096
386.988,194.67479523809533
389.761,102.0367333333334
392.532,81.9749476190477
395.301,47.70607142857144
398.068,39.16311428571432
400.833,19.61336190476191
403.596,18.373852380952403
406.358,21.762871428571458
409.117,38.957328571428576
411.874,33.04054285714291
414.629,69.52560000000004
417.382,74.73643809523816
420.133,89.04593333333341
422.882,110.30450000000009
425.629,141.12528571428584
428.374,204.59921428571445
431.117,257.3415714285716
433.858,309.207142857143
436.597,322.0992380952383
439.334,289.5887142857144
442.069,263.1040476190477
444.802,234.6464285714287
447.533,197.36033333333347
450.262,238.34395238095252
452.989,262.60023809523824
455.714,276.70442857142876
458.438,292.8515714285715
461.159,250.09411904761916
463.878,182.770761904762
466.595,154.03059523809532
469.31,131.54647619047626
472.024,105.46828571428578
474.735,121.27947619047627
477.444,129.32097619047627
480.152,146.88604761904773
482.857,172.36383333333345
485.561,222.14390476190488
488.262,203.66352380952395
490.962,214.74080952380965
493.659,193.4798571428572
496.355,181.27061904761914
499.048,156.17000000000007
501.74,154.33023809523817
504.43,117.57023809523818
507.118,128.4230000000001
509.804,133.13585714285728
512.488,209.38490476190492
515.17,271.41751428571445
517.85,254.10013333333345
520.528,233.48972380952392
523.204,185.97602857142863
525.878,124.80619523809534
528.551,108.84603809523819
531.221,142.53277238095245
533.89,104.06540095238103
536.556,104.5952447619048
539.221,70.27306095238099
541.883,70.0593352380953
544.544,94.62849142857154
547.203,134.41652476190484
549.86,146.14473809523815
552.515,126.4869190476191
555.168,107.4972476190477
557.819,97.99207619047625
560.469,146.26309523809533
563.116,140.5066857142858
565.761,169.39518095238105
568.405,180.5529523809525
571.047,176.46075238095247
573.687,147.31379523809534
576.324,144.73546190476193
578.96,111.25348571428577
581.594,114.20532857142865
584.227,122.16553333333341
586.857,131.2798142857144
589.485,137.9316952380953
592.112,134.8855238095239
594.737,140.57151428571436
597.359,133.46772857142864
599.98,119.05140952380958
602.599,126.13317619047623
605.216,115.18979047619055
607.831,116.17406190476197
610.445,126.80037142857151
613.056,129.54429523809532
615.666,116.73836666666672
618.274,113.38168571428578
620.88,108.7106333333334
623.484,101.3429238095239
626.086,126.32450952380965
628.686,190.41477142857156
631.284,243.89704761904778
633.881,257.6259047619049
636.476,253.16914285714296
639.068,235.09538095238108
641.659,216.0199523809525
644.249,203.79640952380964
646.836,174.80180476190483
649.421,120.17484761904767
652.005,78.67292380952387
654.587,55.910838095238134
657.166,59.31220952380958
659.745,69.53931619047623
662.321,65.06339952380955
664.895,35.49850857142858
667.468,25.982771904761933
670.038,31.5585752380953
672.607,70.55403285714294
675.174,120.67844476190486
677.739,161.2126000000001
680.303,146.91329523809532
682.864,142.72825714285722
685.424,125.60456761904766
687.982,81.72771047619051
690.538,52.23567809523813
693.092,49.02858380952384
695.645,37.625498571428594
698.195,28.831503809523813
700.744,8.784875714285704
703.291,-4.804369523809514
705.836,-5.749942380952366
708.38,12.991778095238114
710.921,20.416953333333343
713.461,37.188583809523834
715.999,37.207889523809555
718.535,41.566803809523854
721.069,76.45238571428577
723.602,92.81405238095243
726.133,90.50597619047625
728.662,110.38260000000005
731.189,114.96486666666671
733.714,79.4406428571429
736.238,77.61673809523813
738.759,72.53867142857146
741.279,69.29922857142863
743.798,80.46779523809529
746.314,93.80404761904765
748.829,62.97267619047623
751.342,61.876595238095305
753.853,71.51408571428576
756.362,71.40712380952385
758.869,83.26853333333338
761.375,76.95384761904766
763.879,77.84283904761911
766.381,75.45789380952384
768.882,58.083492380952414
771.38,48.67094904761908
773.877,49.886030476190506
776.372,55.775398571428624
778.866,79.52901523809527
781.357,86.33636190476196
783.847,86.05417142857148
786.335,92.82480000000005
788.821,84.647880952381
791.306,99.28496190476197
793.789,96.59307142857149
796.27,122.81000952380961
798.749,127.69790476190484
801.227,129.73301904761914
803.702,142.77237142857152
806.176,155.91151428571436
808.649,144.2460000000001
811.119,147.82371428571435
813.588,129.64538095238103
816.055,106.18771428571435
818.521,117.68914285714294
820.984,119.15061904761912
823.446,107.0963333333334
825.906,120.52733333333342
828.365,154.63503523809533
830.821,133.84901857142862
833.276,135.55120857142862
835.729,106.40943380952382
838.181,51.71024190476195
840.631,44.2170471428572
843.079,81.35942095238102
845.525,106.04353333333344
847.97,124.17560952380957
850.412,116.75710952380956
852.854,72.98000952380954
855.293,50.65546380952384
857.731,38.68971619047622
860.167,31.798837142857145
862.601,9.60378380952383
865.034,13.5825704761905
867.465,33.11808761904768
869.894,83.64090190476196
872.321,98.91519523809528
874.747,98.46693809523813
877.171,82.29850476190481
879.594,79.12631428571436
882.014,86.23859047619054
884.433,110.01874285714293
886.851,116.80244285714294
889.266,139.87816190476198
891.68,142.29586666666677
894.092,158.10577142857153
896.503,170.26304761904774
898.912,176.6750000000001
901.319,181.10585714285727
903.724,182.36823809523818
906.128,174.98842857142867
908.53,173.82623809523818
910.931,172.3128571428572
913.329,176.78421904761913
915.726,157.48095238095243
918.122,119.21524285714291
920.516,104.037380952381
922.908,86.6162190476191
925.298,80.19237619047625
927.687,93.10166190476195
930.074,81.77493428571431
932.459,47.3573247619048
934.843,46.23210000000003
937.225,20.73461857142859
939.605,29.62897904761909
941.984,51.72658142857148
944.361,78.41026380952384
946.736,77.30085761904766
949.11,80.97154666666668
951.482,41.85250571428573
953.853,29.0406304761905
956.222,36.72774190476194
958.589,40.296192380952405
960.954,41.41385809523813
963.318,65.84392000000004
965.68,71.06357619047623
968.041,74.64525238095243
970.4,77.97083809523812
972.757,72.04118571428575
975.113,53.57131428571432
977.467,67.80005714285718
979.819,66.25172571428574
982.17,41.92683761904764
984.519,20.825837142857168
986.866,44.568200476190526
989.212,71.86834666666675
991.556,123.20279000000009
993.899,169.38115904761915
996.24,208.07000000000014
998.579,224.46000000000012
1000.92,215.1222857142858
1003.25,193.53314285714293
1005.59,159.35890476190485
1007.92,131.98038095238104
1010.25,129.68276190476197
1012.58,127.79919047619053
1014.91,120.47157142857151
1017.24,122.22385714285721
1019.56,138.19785714285723
1021.88,137.39319047619057
1024.2,131.38066666666677
1026.52,155.01680952380963
1028.84,177.87223809523817
1031.16,181.0412380952382
1033.48,222.85638095238113
1035.79,267.7927619047621
1038.1,293.6591428571431
1040.41,347.1689523809526
1042.72,356.70219047619065
1045.03,319.59071428571445
1047.33,288.30990476190493
1049.64,274.28742857142873
1051.94,249.80776190476206
1054.24,232.20300000000015
1056.54,237.61504761904777
1058.84,226.8043809523811
1061.13,233.81733333333347
1063.43,244.17676190476203
1065.72,244.83323809523822
1068.01,235.02395238095252
1070.3,258.557142857143
1072.59,242.1457142857144
1074.87,239.12190476190486
1077.16,239.76995238095253
1079.44,255.37400000000017
1081.72,283.79014285714305
1084.0,344.5883809523812
1086.28,400.3863333333337
1088.56,504.4683809523813
1090.84,638.9760952380956
1093.11,740.4320000000005
1095.38,741.6918095238099
1097.65,678.0874761904765
1099.92,571.522285714286
1102.19,469.04276190476213
1104.46,412.7425714285717
1106.72,412.33519047619075
1108.98,428.20019047619076
1111.24,465.66904761904794
1113.5,517.2648095238098
1115.76,545.5576190476194
1118.02,582.0697619047622
1120.28,622.8957619047623
1122.53,619.5582380952385
1124.78,598.151047619048
1127.03,542.9592857142861
1129.28,484.74328571428595
1131.53,416.88285714285735
1133.77,351.9010952380954
1136.02,317.5587619047621
1138.26,302.80752380952396
1140.5,279.837142857143
1142.74,273.8843809523811
1144.98,257.52000000000015
1147.22,253.74319047619068
1149.45,293.1723809523811
1151.69,289.330761904762
1153.92,263.3129047619049
1156.15,230.83261904761915
1158.38,192.17538095238106
1160.61,164.76885714285726
1162.83,158.66039047619057
1165.06,123.2780190476191
1167.28,91.28812380952387
1169.5,64.21460952380954
1171.72,42.43827619047623
1173.94,58.054171428571486
1176.16,69.10976190476194
1178.37,60.31950952380955
1180.58,57.350176190476205
1182.8,42.868652380952405
1185.01,30.922804761904782
1187.22,27.179642857142852
1189.42,6.972890476190474
1191.63,-2.2207333333333104
1193.84,19.5993428571429
1196.04,62.43386666666672
1198.24,85.99780952380956
1200.44,77.24437142857147
1202.64,90.50772380952388
1204.84,93.93172380952387
1207.03,96.18402380952386
1209.23,89.98004761904764
1211.42,54.558895238095246
1213.61,18.016937142857167
1215.8,12.21242523809525
1217.99,16.813260000000028
1220.18,42.29674809523813
1222.36,42.75935952380954
1224.55,41.82128619047622
1226.73,60.53136809523813
1228.91,47.93838190476193
1231.09,43.85305095238099
1233.27,60.65744761904765
1235.44,61.59081333333338
1237.62,61.03524952380956
1239.79,56.944178095238115
1241.96,62.36652857142862
1244.13,73.58886666666673
1246.3,110.08833809523817
1248.47,131.62801428571433
1250.64,128.06595238095244
1252.8,109.49847619047627
1254.96,119.59333333333342
1257.13,146.25614285714298
1259.29,190.05928571428583
1261.44,192.52757142857155
1263.6,198.18552380952391
1265.76,199.6055238095239
1267.91,182.55033333333344
1270.06,198.4018571428573
1272.22,192.97023809523822
1274.37,176.6849523809525
1276.51,192.88028571428583
1278.66,200.8427142857144
1280.81,208.00147619047632
1282.95,214.02409523809533
1285.09,193.91104761904774
1287.23,192.28200000000015
1289.37,215.37600000000012
1291.51,217.05103809523823
1293.65,204.30750476190482
1295.78,146.38444761904765
1297.92,103.28232380952389
1300.05,80.00165714285723
1302.18,111.16201904761915
1304.31,136.57374285714295
1306.44,154.18975238095248
1308.57,148.91538095238104
1310.69,158.56066666666678
1312.82,177.7451904761906
1314.94,217.13580952380966
1317.06,216.20952380952394
1319.18,218.87152380952395
1321.3,242.1700476190478
1323.41,272.295904761905
1325.53,317.8211428571431
1327.64,358.8886190476193
1329.75,394.7847619047622
1331.87,437.60509523809554
1333.98,473.3023333333336
1336.08,456.49604761904783
1338.19,436.42466666666695
1340.3,408.9932380952383
1342.4,406.58319047619074
1344.5,380.5757619047621
1346.6,328.0660952380954
1348.7,278.34033333333355
1350.8,254.92261904761918
1352.9,240.6705714285716
1354.99,257.58452380952394
1357.09,262.37885714285727
1359.18,264.7202380952383
1361.27,278.4183333333335
1363.36,287.4735714285716
1365.45,301.36233333333354
1367.54,326.3230000000002
1369.62,339.6414761904764
1371.7,349.6986190476193
1373.79,373.2090952380954
1375.87,385.3156666666669
1377.95,419.58985714285734
1380.03,434.31766666666687
1382.1,412.0704761904765
1384.18,377.752904761905
1386.25,344.1274761904764
1388.33,295.527523809524
1390.4,257.61961904761915
1392.47,220.1657142857144
1394.54,192.83214285714297
1396.6,169.42866666666677
1398.67,168.384142857143
1400.74,173.84133333333347
1402.8,193.5145904761906
1404.86,182.832161904762
1406.92,170.60346666666675
1408.98,148.16221904761915
1411.04,141.60332380952389
1413.09,148.5933523809525
1415.15,186.75149523809537
1417.2,202.79200000000012
1419.25,217.71447619047632
1421.3,233.56700000000015
1423.35,230.7297142857144
1425.4,221.82200000000012
1427.45,208.41495238095249
1429.49,194.22290476190486
1431.54,163.48371428571437
1433.58,154.62595238095247
1435.62,168.553761904762
1437.66,166.21985714285725
1439.7,194.1952380952382
1441.74,219.95604761904775
1443.77,210.930761904762
1445.81,189.30957142857156
1447.84,188.71114285714296
1449.87,161.992761904762
1451.9,163.0110476190477
1453.93,171.24214285714297
1455.96,181.97152380952392
1457.98,182.1989523809525
1460.01,188.1144285714287
1462.03,208.57500000000013
1464.05,233.86600000000016
1466.07,248.606523809524
1468.09,282.7963809523811
1470.11,293.62547619047626
1472.13,277.23633333333345
1474.14,268.62861904761917
1476.16,245.27838095238107
1478.17,214.09038095238108
1480.18,226.6832380952382
1482.19,222.53243809523823
1484.2,181.25696190476197
1486.21,137.7135666666667
1488.21,78.85434761904766
1490.22,59.58397619047625
1492.22,70.75900952380957
1494.22,73.85520000000002
1496.22,35.586671428571435
1498.22,29.57207619047622
1500.22,20.477747619047648
1502.22,38.11285238095241
1504.21,46.33414761904764
1506.21,60.760347619047636
1508.2,48.20061428571432
1510.19,61.321271428571464
1512.18,59.693419047619074
1514.17,57.98337142857146
1516.16,53.2383666666667
1518.14,60.50569238095241
1520.13,47.16598047619049
1522.11,37.17125619047621
1524.09,25.52121476190478
1526.07,24.215489523809545
1528.05,31.015624285714306
1530.03,33.63559809523811
1532.01,14.027461428571431
1533.98,16.143275238095264
1535.96,30.26841380952384
1537.93,36.06922476190479
1539.9,54.87867952380956
1541.87,54.36315238095241
1543.84,47.474714285714334
1545.81,47.92730476190479
1547.78,63.00640952380957
1549.74,64.4735190476191
1551.7,82.47120476190483
1553.67,94.52300476190483
1555.63,98.72373333333337
1557.59,105.35881428571435
1559.55,95.52328571428575
1561.5,76.12154761904767
1563.46,83.01033333333339
1565.41,91.9514571428572
1567.37,83.70646666666671
1569.32,96.56080952380955
1571.27,71.89514761904766
1573.22,63.328233333333394
1575.17,69.90719523809528
1577.11,73.29861428571432
1579.06,58.54975714285719
1581.0,67.75572857142862
1582.95,77.20191428571435
1584.89,100.64969047619056
1586.83,111.52760000000008
1588.77,132.40678095238104
1590.7,135.14385714285723
1592.64,130.0245714285715
1594.58,120.95333333333365
1596.51,120.45383333333379
1598.44,138.85923809523877
