Raman Shift,Processed Intensity
331.095,129.86568904761884
333.909,16.728986190476093
336.721,-23.963444523809557
339.531,-18.933164761904752
342.339,2.597837619047631
345.145,-7.496591428571445
347.949,0.30176104761903755
350.751,-10.582758476190481
353.55,-16.772066952380953
356.348,-23.69613057142857
359.144,11.930544000000026
361.937,41.58568200000006
364.729,83.41513390476197
367.518,97.61357000000007
370.306,144.61570571428584
373.091,201.14293333333353
375.874,324.06103809523836
378.656,408.80905714285734
381.435,366.63678095238106
384.212,267.46218095238106
386.988,162.63362857142863
389.761,71.8338952380953
392.532,58.080961904761935
395.301,35.06102380952382
398.068,18.318785714285745
400.833,15.876976190476173
403.596,-4.954547619047629
406.358,-21.626128571428588
409.117,-38.443600000000025
411.874,-39.66349523809522
414.629,-7.635990476190472
417.382,11.480919047619079
420.133,42.81624761904766
422.882,77.4056333333334
425.629,95.61951904761915
428.374,145.40098571428584
431.117,207.69453333333348
433.858,250.20747619047634
436.597,274.5058571428573
439.334,269.68080952380967
442.069,238.7770000000001
444.802,186.8878095238096
447.533,161.86938095238105
450.262,154.05457142857153
452.989,186.87304761904775
455.714,233.27876190476206
458.438,280.27417142857155
461.159,257.62488095238103
463.878,195.7159095238096
466.595,138.45660476190483
469.31,114.56672857142867
472.024,125.71899523809533
474.735,161.3007380952382
477.444,172.17616190476198
480.152,171.06695238095247
482.857,160.02866666666677
485.561,163.5462380952382
488.262,165.4855238095239
490.962,186.37933333333342
493.659,179.1894285714287
496.355,167.92538095238106
499.048,151.83490476190485
501.74,156.2617142857144
504.43,175.35871428571443
507.118,202.5169047619049
509.804,214.17547619047633
512.488,249.48795238095255
515.17,284.4642380952383
517.85,277.59152380952395
520.528,265.97538095238104
523.204,200.53090476190485
525.878,152.74466666666677
528.551,152.198761904762
531.221,166.90266666666676
533.89,155.48585714285724
536.556,157.91028571428578
539.221,134.80485714285723
541.883,112.60761904761912
544.544,124.471161904762
547.203,122.26123333333341
549.86,134.08184761904772
552.515,146.60824285714295
555.168,159.89641904761916
557.819,175.14475714285726
560.469,216.9326380952382
563.116,199.3625238095239
565.761,209.58385714285725
568.405,191.50861904761913
571.047,180.09537142857153
573.687,148.35022857142863
576.324,139.8026571428572
578.96,101.93418571428577
581.594,92.94009523809531
584.227,103.82495714285723
586.857,142.5927238095239
589.485,137.67577142857152
592.112,142.17258095238103
594.737,150.5147857142858
597.359,141.65728571428582
599.98,146.74478571428583
602.599,205.92216190476202
605.216,197.00011428571435
607.831,195.36065714285726
610.445,186.48050476190483
613.056,177.12146666666678
615.666,159.33082857142867
618.274,191.82197142857152
620.88,185.45114285714297
623.484,183.83609523809537
626.086,177.40328571428586
628.686,207.10304761904774
631.284,263.50414285714305
633.881,326.93666666666684
636.476,354.778523809524
639.068,354.8357142857145
641.659,348.3420476190478
644.249,310.53176190476205
646.836,284.35260952380963
649.421,221.133061904762
652.005,169.20138095238104
654.587,139.02850000000007
657.166,124.4659714285715
659.745,97.84166190476195
662.321,71.72111904761907
664.895,14.765090476190483
667.468,-10.984833333333327
670.038,15.274876190476233
672.607,30.823607142857174
675.174,50.893319047619094
677.739,82.90629761904766
680.303,89.76123809523814
682.864,75.78532619047624
685.424,75.02020952380954
687.982,55.126361904761936
690.538,58.669342857142894
693.092,37.26228571428573
695.645,36.23289523809525
698.195,30.099385714285717
700.744,9.523071428571454
703.291,19.689200000000024
705.836,36.59281809523809
708.38,5.514796666666672
710.921,15.593379047619068
713.461,20.395470000000024
715.999,37.01211238095243
718.535,70.724710952381
721.069,90.52943238095243
723.602,95.75581904761911
726.133,89.30494285714289
728.662,72.83992857142862
731.189,64.26217619047624
733.714,75.23492857142863
736.238,77.61235238095242
738.759,97.86781428571436
741.279,103.47447142857148
743.798,91.81054523809527
746.314,60.77816190476193
748.829,62.89877352380955
751.342,34.0270575714286
753.853,52.208581333333385
756.362,60.250595761904776
758.869,42.817833238095254
761.375,32.47976280952385
763.879,69.80627971428576
766.381,78.6527233333334
768.882,120.58927809523817
771.38,111.56671428571433
773.877,84.05992857142861
776.372,55.40099523809527
778.866,53.779261904761945
781.357,61.19387619047625
783.847,92.453680952381
786.335,94.36739047619054
788.821,97.07707619047625
791.306,102.48730952380959
793.789,97.64497142857148
796.27,120.97825238095248
798.749,119.72511428571434
801.227,129.26649523809533
803.702,136.17363809523818
806.176,190.0182666666668
808.649,200.1813523809525
811.119,206.52030476190487
813.588,177.41642857142864
816.055,160.29895238095247
818.521,130.9300476190477
820.984,142.35823809523816
823.446,145.06014285714292
825.906,129.46542857142865
828.365,132.76518095238103
830.821,129.05599047619052
833.276,109.76727619047622
835.729,80.32911904761909
838.181,71.93282380952384
840.631,48.103752380952415
843.079,46.89075238095243
845.525,63.295495238095285
847.97,72.31951428571432
850.412,67.34542380952385
852.854,68.66064285714288
855.293,52.79080476190479
857.731,56.88061333333338
860.167,55.64633476190478
862.601,46.42332190476193
865.034,22.785108095238105
867.465,28.019540952380993
869.894,43.31939190476196
872.321,78.06787047619054
874.747,96.41020476190481
877.171,96.1583428571429
879.594,77.36234285714289
882.014,68.40567619047623
884.433,70.14814761904768
886.851,74.7827571428572
889.266,104.97888095238103
891.68,123.78662857142865
894.092,154.1136380952382
896.503,159.86714285714294
898.912,160.7644761904763
901.319,170.37980952380963
903.724,181.14438095238106
906.128,170.53723809523822
908.53,165.0850000000001
910.931,140.83771428571436
913.329,136.37002857142866
915.726,146.1131952380953
918.122,113.92698571428576
920.516,99.29058571428575
922.908,81.53981428571433
925.298,86.10610000000007
927.687,105.5634952380953
930.074,114.43839523809527
932.459,72.01913333333337
934.843,77.40350000000005
937.225,56.974990476190506
939.605,63.73626666666671
941.984,60.59429142857146
944.361,49.59914142857145
946.736,19.372159047619068
949.11,28.72507761904763
951.482,18.945849523809542
953.853,30.036546190476216
956.222,26.284862857142876
958.589,50.93099047619052
960.954,64.83380000000005
963.318,69.28075714285718
965.68,93.55942380952388
968.041,88.71891904761908
970.4,78.95106190476197
972.757,86.9718542857143
975.113,65.25869476190478
977.467,27.527106666666686
979.819,15.159272380952379
982.17,6.39416190476193
984.519,5.422999047619051
986.866,18.86583619047622
989.212,35.48521000000004
991.556,65.37717428571435
993.899,76.16114761904767
996.24,110.64719523809529
998.579,95.45476190476195
1000.92,85.7747571428572
1003.25,88.70259523809531
1005.59,108.19105238095246
1007.92,109.95451904761912
1010.25,123.8028333333334
1012.58,115.21209047619054
1014.91,114.75366666666675
1017.24,128.52259523809533
1019.56,133.75700000000006
1021.88,126.36161904761912
1024.2,116.47923809523817
1026.52,128.49028571428582
1028.84,162.67990476190488
1031.16,192.04761904761915
1033.48,210.7840000000001
1035.79,230.36447619047632
1038.1,219.07447619047633
1040.41,259.72290476190494
1042.72,281.5468571428573
1045.03,273.16500000000013
1047.33,255.7196190476192
1049.64,228.8288095238096
1051.94,189.0634285714287
1054.24,194.374761904762
1056.54,183.0954761904763
1058.84,180.4627142857144
1061.13,165.99938095238105
1063.43,158.18090476190488
1065.72,175.33938095238105
1068.01,203.7117142857144
1070.3,214.10661904761915
1072.59,216.71328571428583
1074.87,203.95966666666678
1077.16,202.98728571428586
1079.44,243.88995238095262
1081.72,309.4285714285717
1084.0,350.2684761904764
1086.28,383.69442857142883
1088.56,451.80033333333364
1090.84,570.6800000000005
1093.11,669.9512380952384
1095.38,727.8031428571433
1097.65,689.0440000000003
1099.92,587.7201904761907
1102.19,478.7827142857145
1104.46,414.8018571428574
1106.72,368.5378571428574
1108.98,390.32276190476216
1111.24,422.0598571428574
1113.5,486.509666666667
1115.76,537.2898095238098
1118.02,561.304047619048
1120.28,573.0265714285717
1122.53,585.123047619048
1124.78,544.2111904761907
1127.03,482.2416666666669
1129.28,424.26071428571447
1131.53,352.6958095238097
1133.77,280.54514285714305
1136.02,267.28371428571444
1138.26,235.6721904761906
1140.5,213.9469047619049
1142.74,228.44014285714297
1144.98,231.91238095238108
1147.22,229.8383809523811
1149.45,248.8836666666668
1151.69,251.14204761904776
1153.92,226.18361904761917
1156.15,190.48300000000012
1158.38,167.03913333333344
1160.61,144.5173714285715
1162.83,121.67853809523815
1165.06,121.71190476190482
1167.28,94.14013809523814
1169.5,69.72363809523813
1171.72,62.985338095238134
1173.94,48.87640000000003
1176.16,60.34808571428576
1178.37,58.20887619047621
1180.58,43.93393333333334
1182.8,29.093666666666675
1185.01,10.972790476190484
1187.22,10.85610761904765
1189.42,30.314081428571434
1191.63,23.29823904761906
1193.84,18.188613809523822
1196.04,27.84150000000002
1198.24,22.113199523809545
1200.44,29.860043809523834
1202.64,43.22412952380955
1204.84,55.77614095238099
1207.03,74.80111809523814
1209.23,73.72699714285716
1211.42,39.886574285714296
1213.61,25.707939047619064
1215.8,10.09552095238096
1217.99,11.572810476190497
1220.18,27.99682
1222.36,21.31987571428572
1224.55,8.923020952380966
1226.73,19.806427142857146
1228.91,4.256135238095249
1231.09,20.41536333333336
1233.27,21.808420952380967
1235.44,44.721685714285755
1237.62,46.393878095238115
1239.79,51.06387333333337
1241.96,52.44680000000004
1244.13,78.40086666666673
1246.3,88.83181904761912
1248.47,117.69335238095246
1250.64,121.46241904761914
1252.8,138.04538095238107
1254.96,174.58628571428582
1257.13,221.61057142857157
1259.29,245.35776190476201
1261.44,264.9723809523811
1263.6,271.7891904761906
1265.76,255.23876190476201
1267.91,247.27485714285726
1270.06,237.8042380952382
1272.22,196.4954285714287
1274.37,193.11223809523824
1276.51,208.51376190476205
1278.66,210.55923809523824
1280.81,212.06000000000014
1282.95,218.25642857142867
1285.09,191.00790476190485
1287.23,165.5547142857144
1289.37,157.85119047619057
1291.51,155.99499047619057
1293.65,139.3691238095239
1295.78,119.3092190476191
1297.92,90.00819047619052
1300.05,73.1350571428572
1302.18,77.40634285714293
1304.31,101.72933333333341
1306.44,128.20152380952388
1308.57,131.8254857142858
1310.69,156.65104761904772
1312.82,179.29971428571437
1314.94,177.53552380952394
1317.06,170.69442857142866
1319.18,169.92161904761915
1321.3,173.26733333333348
1323.41,204.25747619047638
1325.53,254.03747619047635
1327.64,294.94290476190497
1329.75,346.97633333333357
1331.87,398.5684285714288
1333.98,407.4357619047621
1336.08,401.39004761904783
1338.19,388.48123809523827
1340.3,366.14009523809545
1342.4,329.51185714285737
1344.5,299.31276190476206
1346.6,221.73557142857155
1348.7,192.2108571428573
1350.8,188.26457142857157
1352.9,190.99380952380966
1354.99,195.3528571428573
1357.09,192.43900000000008
1359.18,173.30180952380965
1361.27,202.27614285714301
1363.36,232.26847619047632
1365.45,260.899523809524
1367.54,296.55180952380965
1369.62,295.0842380952383
1371.7,312.78400000000016
1373.79,337.5095714285717
1375.87,331.785904761905
1377.95,348.7573809523811
1380.03,343.4252857142859
1382.1,327.5524761904764
1384.18,299.66371428571443
1386.25,270.90280952380965
1388.33,222.69893333333343
1390.4,166.7196476190477
1392.47,111.4418190476191
1394.54,101.2947428571429
1396.6,74.2311333333334
1398.67,73.87042380952386
1400.74,74.3558190476191
1402.8,94.16345238095246
1404.86,94.91240476190482
1406.92,131.4124238095239
1408.98,109.32972380952384
1411.04,98.997220952381
1413.09,58.081459047619084
1415.15,60.10549904761909
1417.2,67.97355523809532
1419.25,107.78017523809531
1421.3,125.23844000000008
1423.35,143.58542095238099
1425.4,124.10598095238102
1427.45,130.13217142857152
1429.49,135.94826190476198
1431.54,132.88607619047627
1433.58,134.70590000000004
1435.62,131.07269523809532
1437.66,130.7470333333334
1439.7,129.2509190476191
1441.74,111.34427142857147
1443.77,75.31094761904767
1445.81,63.19648095238101
1447.84,72.23678571428576
1449.87,76.71563809523815
1451.9,68.05936666666672
1453.93,73.40870952380958
1455.96,76.71384285714292
1457.98,102.87674761904769
1460.01,137.65739523809532
1462.03,147.91039047619057
1464.05,177.0619523809525
1466.07,212.0146190476192
1468.09,262.05142857142874
1470.11,304.4078571428574
1472.13,324.51028571428594
1474.14,321.3083333333335
1476.16,317.65680952380967
1478.17,307.9341904761906
1480.18,282.423523809524
1482.19,233.02761904761917
1484.2,173.26766666666674
1486.21,130.1410333333334
1488.21,83.16915238095244
1490.22,86.34948095238101
1492.22,87.4892390476191
1494.22,75.82446333333337
1496.22,50.11466904761906
1498.22,35.54805476190478
1500.22,19.027244285714318
1502.22,34.40719476190479
1504.21,48.59063190476192
1506.21,36.95650238095238
1508.2,17.55047047619049
1510.19,20.418281428571447
1512.18,21.32006571428573
1514.17,27.206460476190486
1516.16,14.74245095238095
1518.14,13.069302857142883
1520.13,35.899811619047654
1522.11,49.42300423809526
1524.09,40.68517371428572
1526.07,32.351719095238096
1528.05,27.469063238095274
1530.03,29.178939714285743
1532.01,40.71847828571431
1533.98,49.181910714285735
1535.96,29.04459190476192
1537.93,42.02000309523814
1539.9,55.155028095238116
1541.87,39.97281904761906
1543.84,27.80615714285716
1545.81,32.702100000000016
1547.78,21.469776190476217
1549.74,44.10877619047622
1551.7,55.047323809523846
1553.67,76.95191904761911
1555.63,102.67934285714293
1557.59,126.13423809523815
1559.55,114.6975714285715
1561.5,108.65480000000005
1563.46,92.72046190476196
1565.41,83.5613952380953
1567.37,104.27265238095245
1569.32,120.42600476190482
1571.27,106.49792380952385
1573.22,108.67880476190481
1575.17,100.06444761904767
1577.11,97.17904761904771
1579.06,107.59435238095243
1581.0,99.07281428571433
1582.95,76.51962857142863
1584.89,85.55439523809531
1586.83,98.32023809523818
1588.77,120.24639523809532
1590.7,146.428761904762
1592.64,145.43967619047626
1594.58,144.54155714285722
1596.51,152.2350142857145
1598.44,178.02064761904808
