Raman Shift,Processed Intensity
331.095,140.63245476190443
333.909,5.897264285714073
336.721,-33.54184285714294
339.531,-17.56446666666665
342.339,-8.764871428571425
345.145,14.07272380952381
347.949,0.2845380952380854
350.751,-5.601535238095222
353.55,11.895936190476192
356.348,0.9262819047618933
359.144,-17.93133619047618
361.937,5.474920000000017
364.729,4.345774285714333
367.518,65.1689742857144
370.306,160.0047523809525
373.091,229.53385714285733
375.874,318.3908714285716
378.656,369.6397333333335
381.435,313.63173809523823
384.212,217.76688571428576
386.988,138.92254571428577
389.761,53.882150476190525
392.532,31.668672380952426
395.301,44.73449714285717
398.068,63.43843428571432
400.833,53.04517428571432
403.596,29.820769523809517
406.358,14.127480952380964
409.117,14.424457142857168
411.874,13.50534761904764
414.629,41.593576190476206
417.382,31.96151904761904
420.133,2.7398238095238447
422.882,14.965195238095285
425.629,65.19927619047627
428.374,131.86179523809537
431.117,205.46910476190487
433.858,234.06220952380963
436.597,212.30202380952386
439.334,151.6125714285715
442.069,100.84692857142863
444.802,112.62133333333344
447.533,127.12426190476201
450.262,166.497142857143
452.989,214.35852380952394
455.714,227.51794285714297
458.438,201.97572857142868
461.159,172.73350476190478
463.878,122.74517619047627
466.595,99.82279047619056
469.31,118.73149047619054
472.024,132.1411333333334
474.735,134.24614285714293
477.444,124.38409523809533
480.152,127.55947619047629
482.857,140.82514285714296
485.561,163.99566666666678
488.262,183.12438095238105
490.962,194.7409047619049
493.659,181.5180952380953
496.355,158.1288571428572
499.048,122.24619047619055
501.74,126.49590476190485
504.43,125.59890476190486
507.118,132.46671428571437
509.804,154.05890476190487
512.488,173.09652380952392
515.17,210.8723333333335
517.85,243.20309523809533
520.528,215.04785714285723
523.204,183.60414285714296
525.878,139.21221904761913
528.551,99.54567142857152
531.221,106.42100000000006
533.89,97.55896190476196
536.556,80.29965714285723
539.221,116.41125714285722
541.883,117.23341904761912
544.544,124.62940476190485
547.203,160.51010476190487
549.86,180.7382476190477
552.515,172.60579047619058
555.168,192.6893142857144
557.819,180.23190476190487
560.469,175.1912857142858
563.116,178.85776190476201
565.761,163.80719047619056
568.405,137.80614285714293
571.047,141.04895238095247
573.687,138.205761904762
576.324,159.75673333333344
578.96,162.08595238095245
581.594,127.52990000000007
584.227,106.2341333333334
586.857,78.53465238095242
589.485,64.95712380952389
592.112,82.83711904761913
594.737,124.41421904761913
597.359,129.6425714285715
599.98,154.66589523809532
602.599,128.9614190476191
605.216,140.57741904761914
607.831,104.75247142857148
610.445,109.8672571428572
613.056,90.82695714285718
615.666,92.63092380952386
618.274,64.99298571428577
620.88,75.62668571428574
623.484,60.816552380952444
626.086,90.37067619047627
628.686,139.097342857143
631.284,183.13786666666678
633.881,186.01416190476198
636.476,182.15266666666673
639.068,155.8845238095239
641.659,126.06419047619055
644.249,125.02271428571434
646.836,130.6620190476191
649.421,130.16992857142864
652.005,110.49589523809527
654.587,77.49417619047622
657.166,64.066180952381
659.745,58.35183333333339
662.321,83.58562857142861
664.895,69.62159523809524
667.468,41.932790476190505
670.038,43.801414285714344
672.607,68.74788095238101
675.174,83.19745714285722
677.739,104.05166190476194
680.303,94.30716666666675
682.864,111.10351904761912
685.424,120.43733809523815
687.982,107.6386571428572
690.538,94.98989238095243
693.092,61.63073761904766
695.645,39.510260952380996
698.195,64.76766714285719
700.744,74.01902761904766
703.291,71.88008047619051
705.836,67.06185904761905
708.38,53.18016952380954
710.921,21.327002857142883
713.461,29.927562857142888
715.999,32.50273523809527
718.535,65.6206676190477
721.069,118.18315523809534
723.602,172.71124095238105
726.133,196.39232380952393
728.662,147.74730952380955
731.189,84.86880952380957
733.714,53.13483333333339
736.238,81.68566666666676
738.759,119.94773809523821
741.279,178.06138095238103
743.798,149.5956571428572
746.314,112.73899047619051
748.829,75.06079047619053
751.342,89.7968476190477
753.853,95.46948571428578
756.362,123.26724761904767
758.869,106.23611428571434
761.375,96.04121904761911
763.879,89.06209047619053
766.381,85.7731904761905
768.882,80.41141428571434
771.38,74.49924761904767
773.877,79.4640238095239
776.372,107.49553333333341
778.866,111.83060000000003
781.357,86.08734761904766
783.847,75.12196666666671
786.335,53.69570000000006
788.821,68.71223333333342
791.306,107.02870952380961
793.789,125.92972857142865
796.27,125.41515238095246
798.749,131.86520000000007
801.227,141.5652857142858
803.702,152.32461904761914
806.176,164.5239523809525
808.649,164.0676190476191
811.119,142.95552380952387
813.588,144.66385714285724
816.055,160.5257142857144
818.521,159.30338095238105
820.984,157.42523809523817
823.446,149.89128571428577
825.906,129.93972380952388
828.365,126.0472428571429
830.821,116.35659047619052
833.276,81.15400952380956
835.729,87.34429523809533
838.181,108.64225714285723
840.631,145.47670476190487
843.079,158.41964285714295
845.525,173.99502666666675
847.97,123.34633619047624
850.412,107.14071047619053
852.854,70.61694952380957
855.293,84.82297714285721
857.731,88.33097904761911
860.167,117.80783619047622
862.601,89.5877142857143
865.034,74.86172857142859
867.465,58.297266666666744
869.894,84.89488095238102
872.321,107.36957619047627
874.747,131.055480952381
877.171,113.90573809523815
879.594,89.01640476190481
882.014,79.19783333333339
884.433,94.59366190476199
886.851,119.72860476190485
889.266,137.74661428571437
891.68,135.17241904761912
894.092,132.62571428571437
896.503,123.726761904762
898.912,149.42900000000012
901.319,171.97185714285723
903.724,164.7372857142858
906.128,166.34576190476199
908.53,164.56009523809533
910.931,173.1911904761906
913.329,172.38304761904774
915.726,184.18485714285725
918.122,174.1692380952382
920.516,184.52857142857155
922.908,181.2164285714287
925.298,194.71047619047633
927.687,175.25042857142867
930.074,169.93323809523815
932.459,145.09390476190487
934.843,137.1152857142858
937.225,117.23695238095247
939.605,123.98485714285721
941.984,122.50362380952387
944.361,116.55724285714291
946.736,101.00450952380959
949.11,107.5145190476191
951.482,99.56531904761913
953.853,120.82616666666674
956.222,114.63233333333338
958.589,102.08139047619053
960.954,78.98508571428576
963.318,71.77466666666672
965.68,64.59534285714292
968.041,90.16409523809529
970.4,86.57869047619053
972.757,99.55612000000005
975.113,88.09917238095241
977.467,43.63923523809524
979.819,16.51250857142859
982.17,23.007606666666696
984.519,34.080020000000054
986.866,59.54235809523814
989.212,84.9691190476191
991.556,76.60185238095244
993.899,101.77685714285724
996.24,137.4498333333334
998.579,152.1003047619048
1000.92,138.6362714285715
1003.25,113.58466190476194
1005.59,85.71064285714291
1007.92,80.5410714285715
1010.25,106.36475714285721
1012.58,127.9463857142858
1014.91,156.9557333333334
1017.24,139.91909047619052
1019.56,119.17241904761912
1021.88,96.28971904761912
1024.2,91.93994285714291
1026.52,101.41066190476198
1028.84,140.03730476190484
1031.16,146.25014285714295
1033.48,148.0030952380953
1035.79,157.48828571428584
1038.1,184.9450952380954
1040.41,229.42223809523824
1042.72,267.8729047619049
1045.03,288.3456666666668
1047.33,256.7457142857144
1049.64,213.97842857142868
1051.94,186.85366666666678
1054.24,146.4192380952382
1056.54,146.67533333333347
1058.84,171.14595238095245
1061.13,172.1164761904763
1063.43,170.49142857142866
1065.72,152.98471428571435
1068.01,117.78623809523819
1070.3,136.75233333333344
1072.59,153.40633333333346
1074.87,204.79466666666684
1077.16,236.58328571428586
1079.44,256.15185714285735
1081.72,272.11861904761923
1084.0,293.624904761905
1086.28,313.9553333333336
1088.56,427.2510000000003
1090.84,539.462666666667
1093.11,648.8270000000005
1095.38,675.0090476190479
1097.65,586.6262857142859
1099.92,478.3432380952383
1102.19,409.1101428571431
1104.46,367.4967142857145
1106.72,380.40590476190494
1108.98,379.54976190476214
1111.24,360.8310000000003
1113.5,389.4850000000003
1115.76,437.1760952380955
1118.02,484.5691904761908
1120.28,529.3283333333336
1122.53,519.9274761904765
1124.78,487.4594285714289
1127.03,404.20723809523827
1129.28,320.8825714285716
1131.53,269.95952380952394
1133.77,252.67338095238114
1136.02,233.2596190476192
1138.26,230.71585714285726
1140.5,213.1343809523811
1142.74,194.98885714285728
1144.98,205.56252380952398
1147.22,231.13838095238106
1149.45,241.61838095238107
1151.69,234.57152380952394
1153.92,216.28066666666675
1156.15,181.07695238095246
1158.38,152.29095238095246
1160.61,131.06276190476197
1162.83,126.96105714285721
1165.06,106.74525714285717
1167.28,93.60330476190481
1169.5,76.67580000000004
1171.72,54.00779047619051
1173.94,38.453780952380995
1176.16,53.53536190476195
1178.37,62.107114285714346
1180.58,76.92865714285719
1182.8,86.52147809523812
1185.01,63.835740000000015
1187.22,37.20258952380955
1189.42,23.38197904761906
1191.63,21.323994285714303
1193.84,15.40767571428573
1196.04,26.345315238095246
1198.24,17.18268952380953
1200.44,11.870369523809535
1202.64,15.073305714285734
1204.84,32.456555238095255
1207.03,25.351990000000004
1209.23,13.18677809523809
1211.42,-3.754584761904758
1213.61,-1.9494171428571185
1215.8,19.02993428571432
1217.99,46.706472380952405
1220.18,36.270062857142875
1222.36,38.62484857142861
1224.55,57.9132971428572
1226.73,77.27818666666671
1228.91,94.90985523809529
1231.09,101.04649809523814
1233.27,94.92636666666672
1235.44,92.83510000000005
1237.62,95.20154285714291
1239.79,101.88348571428577
1241.96,110.16724285714292
1244.13,108.8153190476191
1246.3,94.7809190476191
1248.47,100.01714761904769
1250.64,104.00107619047628
1252.8,124.44806190476199
1254.96,137.97877142857152
1257.13,150.26074285714293
1259.29,143.48566666666676
1261.44,160.17880952380963
1263.6,162.24638095238106
1265.76,159.68971428571436
1267.91,147.70133333333342
1270.06,156.18742857142868
1272.22,177.9115238095239
1274.37,191.9232380952382
1276.51,181.84323809523818
1278.66,193.38766666666677
1280.81,184.74909523809535
1282.95,183.50138095238108
1285.09,198.97976190476203
1287.23,201.2340000000001
1289.37,200.40880952380968
1291.51,220.9827142857144
1293.65,213.33866666666677
1295.78,191.38438095238104
1297.92,171.7408095238096
1300.05,144.88661904761915
1302.18,127.68100000000011
1304.31,145.17428571428582
1306.44,157.1782380952382
1308.57,167.17171428571442
1310.69,192.06176190476202
1312.82,202.23180952380963
1314.94,206.58880952380966
1317.06,230.75461904761917
1319.18,219.3031904761906
1321.3,225.42738095238113
1323.41,250.46314285714305
1325.53,275.6033333333335
1327.64,310.8030476190478
1329.75,361.6834761904764
1331.87,363.4851904761907
1333.98,374.2582380952383
1336.08,385.71933333333357
1338.19,372.77580952380976
1340.3,353.8585714285716
1342.4,349.16033333333354
1344.5,298.4929047619049
1346.6,250.7158095238097
1348.7,224.02180952380962
1350.8,186.36580952380965
1352.9,168.46371428571442
1354.99,189.46071428571443
1357.09,199.73976190476202
1359.18,218.39828571428586
1361.27,230.67614285714296
1363.36,233.67085714285733
1365.45,248.86023809523826
1367.54,279.96047619047636
1369.62,304.73533333333353
1371.7,343.9960952380954
1373.79,339.2199523809526
1375.87,366.07538095238124
1377.95,385.3736190476193
1380.03,380.4493333333336
1382.1,378.97061904761927
1384.18,336.8434761904763
1386.25,270.0688571428573
1388.33,257.07623809523824
1390.4,232.24776190476206
1392.47,214.77461904761915
1394.54,218.84804761904772
1396.6,190.27857142857152
1398.67,160.40028571428581
1400.74,166.07028571428577
1402.8,160.7652476190477
1404.86,115.4853190476191
1406.92,106.84982857142863
1408.98,113.38270000000006
1411.04,107.56003809523816
1413.09,109.14328571428577
1415.15,104.17965714285718
1417.2,86.28789047619055
1419.25,93.8486571428572
1421.3,110.71808095238103
1423.35,119.13367619047625
1425.4,99.71364285714289
1427.45,76.36158095238102
1429.49,73.45745238095243
1431.54,80.95236190476199
1433.58,112.03572857142868
1435.62,149.75381904761912
1437.66,172.2956476190477
1439.7,172.3262857142858
1441.74,177.36795238095252
1443.77,165.18104761904775
1445.81,166.04985714285723
1447.84,164.6865238095239
1449.87,163.75614285714295
1451.9,151.73266666666674
1453.93,158.94780952380958
1455.96,145.2090476190477
1457.98,147.75252380952392
1460.01,162.24261904761914
1462.03,192.9156666666668
1464.05,207.38828571428584
1466.07,240.46795238095254
1468.09,259.4378571428573
1470.11,262.81985714285724
1472.13,260.08809523809543
1474.14,264.0021904761906
1476.16,228.89304761904773
1478.17,200.28219047619058
1480.18,157.45295238095247
1482.19,125.92695238095246
1484.2,116.94004761904772
1486.21,131.20412380952388
1488.21,122.81201428571434
1490.22,99.99966666666671
1492.22,61.86011428571432
1494.22,56.15293333333339
1496.22,60.30446190476195
1498.22,64.97929047619051
1500.22,63.79422380952383
1502.22,53.651909523809536
1504.21,30.74070000000002
1506.21,34.629771428571445
1508.2,33.74584000000001
1510.19,23.801166190476202
1512.18,11.03192285714287
1514.17,19.388614761904783
1516.16,27.63127523809527
1518.14,52.85338047619053
1520.13,72.57704952380955
1522.11,76.65775714285716
1524.09,42.80825238095239
1526.07,32.02706285714288
1528.05,4.455660476190488
1530.03,21.52137333333337
1532.01,31.651620476190498
1533.98,44.08340190476192
1535.96,35.4348604761905
1537.93,57.800367619047655
1539.9,40.46493809523813
1541.87,47.189847619047654
1543.84,55.49842380952385
1545.81,67.48547142857149
1547.78,86.57906190476197
1549.74,118.39807619047625
1551.7,114.6091190476191
1553.67,104.78336190476197
1555.63,114.01612857142865
1557.59,129.974361904762
1559.55,128.89591904761912
1561.5,130.01934285714293
1563.46,116.2019952380953
1565.41,97.11075238095243
1567.37,98.0316714285715
1569.32,111.72741904761912
1571.27,108.3412333333334
1573.22,130.39782857142865
1575.17,136.51674285714293
1577.11,129.41305238095245
1579.06,115.89685238095242
1581.0,96.20710000000005
1582.95,76.72560000000006
1584.89,76.73923333333339
1586.83,86.62971428571436
1588.77,110.87410476190485
1590.7,124.56879523809529
1592.64,142.66714285714295
1594.58,149.1465357142858
1596.51,147.3654285714287
1598.44,136.32507142857168
