Raman Shift,Processed Intensity
331.095,-50.734758095238206
333.909,-53.858307619047565
336.721,-26.926462619047506
339.531,11.34398857142859
342.339,24.283376666666683
345.145,42.365581904761925
347.949,42.73306619047619
350.751,10.101053333333331
353.55,4.043490952380958
356.348,-5.578473333333358
359.144,-44.616428571428585
361.937,-40.20604761904762
364.729,-5.624095238095187
367.518,50.09197142857153
370.306,171.3830190476192
373.091,279.31049047619064
375.874,365.7468285714288
378.656,380.6139523809525
381.435,313.0730714285715
384.212,200.2867952380953
386.988,117.84831904761911
389.761,73.97119047619057
392.532,62.2037523809524
395.301,45.905538095238114
398.068,39.151428571428596
400.833,22.018004761904773
403.596,10.630880952380961
406.358,3.117038095238088
409.117,4.842790476190512
411.874,33.795120952381
414.629,61.2955066666667
417.382,50.1429085714286
420.133,67.3754790476191
422.882,37.12789428571434
425.629,90.5835685714287
428.374,174.16501619047634
431.117,240.0101333333335
433.858,283.5434809523811
436.597,311.1905333333334
439.334,222.28238571428582
442.069,182.8177238095239
444.802,143.0339476190477
447.533,149.55058095238107
450.262,191.6539095238097
452.989,238.10764761904775
455.714,251.96142857142874
458.438,257.8849523809525
461.159,213.45304761904774
463.878,191.47942857142868
466.595,180.87271428571438
469.31,168.54261904761916
472.024,160.39919047619054
474.735,159.11506666666676
477.444,127.22011428571436
480.152,130.19694285714297
482.857,155.14745714285726
485.561,185.41194285714298
488.262,221.9500190476192
490.962,237.67389523809533
493.659,186.8292571428572
496.355,145.28095238095244
499.048,97.27541428571435
501.74,74.67790952380959
504.43,62.73483333333337
507.118,68.59732857142863
509.804,95.32121428571439
512.488,141.86738571428583
515.17,189.33973333333347
517.85,205.93709523809534
520.528,192.28699047619057
523.204,153.4455428571429
525.878,120.27820000000006
528.551,93.74559047619054
531.221,102.80852380952386
533.89,92.14163809523816
536.556,94.08626190476195
539.221,74.12660952380955
541.883,48.36567619047623
544.544,60.23956190476197
547.203,65.27963809523814
549.86,81.06464761904769
552.515,108.31571904761911
555.168,116.80194285714293
557.819,132.52994285714294
560.469,154.17280000000008
563.116,128.30819047619056
565.761,126.56116190476197
568.405,110.31825714285719
571.047,93.01394285714292
573.687,114.12950476190484
576.324,140.81245714285723
578.96,133.21056857142864
581.594,113.1852947619048
584.227,53.97894190476191
586.857,22.642910000000043
589.485,39.84751333333341
592.112,99.30987571428578
594.737,123.74754761904767
597.359,102.78215285714286
599.98,52.1778723809524
602.599,49.46041380952387
605.216,54.67918666666672
607.831,91.9782271428572
610.445,90.02537238095239
613.056,60.91658666666669
615.666,34.60462571428574
618.274,41.18487714285716
620.88,18.56192666666669
623.484,46.116050476190516
626.086,58.13233809523813
628.686,68.32398571428577
631.284,80.64203809523814
633.881,93.89420000000004
636.476,90.07865714285721
639.068,105.00248571428578
641.659,118.56843809523818
644.249,126.15445714285721
646.836,112.32907619047626
649.421,99.5650971428572
652.005,62.66873047619049
654.587,30.350575238095267
657.166,32.511779047619086
659.745,41.05278952380956
662.321,59.35039238095243
664.895,64.92398285714287
667.468,60.14987142857147
670.038,70.5948190476191
672.607,86.87297142857149
675.174,98.6936714285715
677.739,122.90878095238104
680.303,101.22732857142861
682.864,97.83432380952388
685.424,113.20074761904769
687.982,108.08274285714293
690.538,100.37955714285718
693.092,71.51398571428571
695.645,23.432742857142877
698.195,21.55867142857147
700.744,38.600533333333374
703.291,46.790485714285744
705.836,54.07527142857145
708.38,42.734938095238114
710.921,21.478109523809554
713.461,44.584919047619096
715.999,78.28791904761911
718.535,100.96270952380961
721.069,132.2230476190477
723.602,127.15896190476195
726.133,120.47943809523817
728.662,86.17964095238096
731.189,41.540440952380955
733.714,19.98569142857146
736.238,42.03498761904767
738.759,70.35057238095247
741.279,124.83286000000004
743.798,117.81146000000004
746.314,91.99691428571433
748.829,76.95699047619051
751.342,75.92672380952386
753.853,75.42660952380956
756.362,92.40587619047625
758.869,89.3380190476191
761.375,61.74418571428574
763.879,74.19326190476197
766.381,82.15915238095243
768.882,75.4967952380953
771.38,94.77548571428575
773.877,73.08867142857144
776.372,56.196728571428636
778.866,81.47883809523815
781.357,84.26692857142862
783.847,89.55980952380958
786.335,106.07074761904768
788.821,113.08410000000009
791.306,143.5995000000001
793.789,144.61579047619057
796.27,154.41842857142868
798.749,158.3404761904763
801.227,168.61961904761915
803.702,170.3505238095239
806.176,197.39061904761917
808.649,198.31109523809536
811.119,194.30314285714297
813.588,204.70014285714302
816.055,181.26435714285725
818.521,155.42480952380964
820.984,175.32508095238106
823.446,156.9182238095239
825.906,139.44328095238103
828.365,152.8058714285715
830.821,126.91187619047628
833.276,125.52427142857152
835.729,131.88234285714293
838.181,119.4158571428572
840.631,131.41214285714292
843.079,140.5392857142858
845.525,135.32295238095247
847.97,135.9549333333334
850.412,115.38939523809529
852.854,77.8185428571429
855.293,67.95896666666673
857.731,77.00259047619053
860.167,88.04702857142863
862.601,85.95112380952384
865.034,84.62199523809527
867.465,42.014195238095255
869.894,44.987490476190544
872.321,71.4483952380953
874.747,100.44718095238102
877.171,106.51022380952388
879.594,136.21123809523817
882.014,118.40981428571436
884.433,119.44215238095245
886.851,126.3579476190477
889.266,147.20777142857153
891.68,166.51819523809536
894.092,174.76802857142866
896.503,163.10266666666675
898.912,140.28704761904768
901.319,133.3712380952382
903.724,140.21557142857154
906.128,155.53704761904774
908.53,156.57661904761915
910.931,170.19409523809531
913.329,189.82112380952393
915.726,192.22239047619055
918.122,163.87715714285721
920.516,141.5501714285715
922.908,123.48229047619056
925.298,122.05727619047627
927.687,145.46865238095248
930.074,152.6713238095239
932.459,115.47784285714292
934.843,99.08182857142864
937.225,94.39072857142864
939.605,106.50290476190483
941.984,111.89713333333339
944.361,122.90940000000005
946.736,115.0664333333334
949.11,107.70421428571434
951.482,82.44436190476195
953.853,88.95659523809529
956.222,68.814680952381
958.589,62.1643571428572
960.954,74.38906095238099
963.318,60.967458571428594
965.68,30.854426666666694
968.041,47.2905985714286
970.4,33.3735123809524
972.757,32.105558571428595
975.113,25.203308571428565
977.467,7.049971428571434
979.819,-3.066571428571412
982.17,18.141557142857167
984.519,26.628823809523844
986.866,58.34946190476195
989.212,69.16274761904766
991.556,96.87983809523817
993.899,141.55038571428582
996.24,138.84257619047625
998.579,120.61504761904767
1000.92,124.86925238095243
1003.25,96.13030952380957
1005.59,85.97063809523816
1007.92,90.43928571428575
1010.25,75.96547142857149
1012.58,67.88349047619053
1014.91,103.95615714285721
1017.24,120.66014285714293
1019.56,131.09125714285722
1021.88,139.34503333333342
1024.2,152.56472380952388
1026.52,146.84542857142867
1028.84,162.52090476190486
1031.16,199.30538095238109
1033.48,201.9130952380954
1035.79,224.43890476190492
1038.1,234.26366666666684
1040.41,261.7197142857145
1042.72,268.7597142857145
1045.03,295.9543809523811
1047.33,255.7316666666668
1049.64,211.9477142857144
1051.94,177.22085714285726
1054.24,170.64528571428582
1056.54,150.55371428571436
1058.84,158.611761904762
1061.13,159.67519047619055
1063.43,147.59985714285727
1065.72,178.57523809523823
1068.01,176.31414285714294
1070.3,178.38685714285728
1072.59,195.64923809523822
1074.87,197.05166666666676
1077.16,194.59276190476203
1079.44,234.31847619047633
1081.72,268.0841428571431
1084.0,316.459904761905
1086.28,383.20566666666696
1088.56,477.1290000000004
1090.84,621.1807142857147
1093.11,706.8346666666671
1095.38,733.6604761904765
1097.65,643.6088095238098
1099.92,509.2486190476193
1102.19,412.6255714285716
1104.46,396.5473333333336
1106.72,372.05909523809544
1108.98,380.53976190476214
1111.24,381.8920000000003
1113.5,418.82780952380983
1115.76,478.106904761905
1118.02,532.9172380952384
1120.28,545.5900000000003
1122.53,536.3133333333336
1124.78,491.7991904761907
1127.03,423.5217142857145
1129.28,370.14523809523826
1131.53,317.3813809523811
1133.77,280.9420476190478
1136.02,253.25357142857155
1138.26,239.98004761904778
1140.5,220.21452380952394
1142.74,218.8593809523811
1144.98,231.76957142857162
1147.22,265.41861904761925
1149.45,292.9950952380954
1151.69,297.9726190476192
1153.92,276.3010476190477
1156.15,210.35904761904771
1158.38,174.19214285714298
1160.61,147.3691904761906
1162.83,156.26924761904775
1165.06,130.22327142857148
1167.28,117.99073333333341
1169.5,94.1885952380953
1171.72,94.19576666666671
1173.94,83.77183809523815
1176.16,98.67678571428577
1178.37,96.67034095238103
1180.58,85.03619571428575
1182.8,74.91519619047621
1185.01,54.82919952380956
1187.22,52.1572390476191
1189.42,51.75462428571432
1191.63,63.85757904761907
1193.84,52.22623333333336
1196.04,42.52556285714288
1198.24,31.13485523809526
1200.44,24.19539428571429
1202.64,10.562793333333353
1204.84,17.616604761904792
1207.03,52.26019523809529
1209.23,66.73052666666668
1211.42,58.264597142857156
1213.61,22.909071428571416
1215.8,-9.241595238095236
1217.99,-12.235619047619018
1220.18,26.87883809523813
1222.36,43.57778095238098
1224.55,61.05152380952384
1226.73,75.5860047619048
1228.91,69.75275714285719
1231.09,79.59974285714291
1233.27,89.84171428571433
1235.44,105.24144761904769
1237.62,99.32363333333339
1239.79,113.27994285714291
1241.96,112.01616666666672
1244.13,127.24790476190485
1246.3,114.54773809523815
1248.47,106.63166666666672
1250.64,115.07266666666675
1252.8,132.5870000000001
1254.96,152.79561904761914
1257.13,166.93876190476195
1259.29,157.39928571428578
1261.44,110.22723809523818
1263.6,107.1868571428572
1265.76,106.99471428571437
1267.91,123.74886666666674
1270.06,130.2613190476191
1272.22,142.24882857142862
1274.37,116.76206190476196
1276.51,107.08982857142865
1278.66,129.42489047619057
1280.81,153.39010476190487
1282.95,165.9880000000001
1285.09,164.0790000000001
1287.23,153.52342857142867
1289.37,154.03904761904772
1291.51,160.9142857142858
1293.65,163.43876190476198
1295.78,169.7582761904763
1297.92,140.5909333333334
1300.05,103.08282857142862
1302.18,85.47580952380957
1304.31,70.2016190476191
1306.44,78.97808571428578
1308.57,104.9039714285715
1310.69,132.93529523809534
1312.82,147.26615238095246
1314.94,165.42396190476202
1317.06,173.26919047619057
1319.18,170.9007142857144
1321.3,165.6077142857144
1323.41,197.48895238095255
1325.53,251.35761904761924
1327.64,313.02657142857163
1329.75,384.49919047619073
1331.87,400.73185714285734
1333.98,373.10838095238114
1336.08,342.6800476190478
1338.19,317.54533333333353
1340.3,287.37385714285733
1342.4,268.4070476190478
1344.5,236.21985714285725
1346.6,211.1006666666668
1348.7,212.81490476190493
1350.8,210.2227142857144
1352.9,197.9457142857144
1354.99,197.03453333333343
1357.09,173.53950952380964
1359.18,152.55820952380964
1361.27,163.23644285714298
1363.36,174.00549523809536
1365.45,192.29593809523826
1367.54,231.062961904762
1369.62,235.9274285714287
1371.7,248.3677619047621
1373.79,257.9572857142859
1375.87,293.50766666666686
1377.95,309.4010476190478
1380.03,302.25861904761916
1382.1,284.7006666666668
1384.18,260.30047619047633
1386.25,212.53485714285728
1388.33,207.21480952380963
1390.4,166.7695476190477
1392.47,120.81916190476198
1394.54,92.17394761904767
1396.6,75.78680000000006
1398.67,81.99100476190485
1400.74,112.2156857142858
1402.8,124.2702571428572
1404.86,104.77361428571434
1406.92,75.0111285714286
1408.98,50.36311904761908
1411.04,39.49555238095242
1413.09,48.883980952381
1415.15,58.00331428571431
1417.2,63.90008095238099
1419.25,61.858414285714325
1421.3,82.16223333333339
1423.35,87.52413809523814
1425.4,76.60880000000003
1427.45,55.27117142857146
1429.49,61.0328047619048
1431.54,38.414780952380994
1433.58,76.79516666666673
1435.62,110.69510952380959
1437.66,114.44458095238102
1439.7,120.08812380952386
1441.74,140.66990000000004
1443.77,113.94815238095246
1445.81,123.53822380952388
1447.84,108.53173809523815
1449.87,100.97227619047626
1451.9,112.14166190476199
1453.93,130.46430476190483
1455.96,136.74573809523818
1457.98,152.31490476190487
1460.01,129.45319047619057
1462.03,139.5374761904763
1464.05,149.99176190476203
1466.07,150.66852380952392
1468.09,180.1351904761906
1470.11,214.33957142857156
1472.13,229.8006190476192
1474.14,235.27623809523823
1476.16,224.2382380952382
1478.17,197.44361904761917
1480.18,190.936161904762
1482.19,166.56866666666673
1484.2,138.24130476190484
1486.21,114.42634285714291
1488.21,88.83402380952384
1490.22,63.41242380952385
1492.22,66.96740476190479
1494.22,48.733133333333356
1496.22,49.039247619047664
1498.22,64.5011942857143
1500.22,49.87743476190478
1502.22,44.87896476190479
1504.21,28.02644142857143
1506.21,30.412145714285757
1508.2,27.46183952380953
1510.19,34.839551428571454
1512.18,22.68571904761906
1514.17,32.712371428571444
1516.16,20.1079666666667
1518.14,52.63261523809526
1520.13,38.04656761904764
1522.11,38.77695904761907
1524.09,35.013018095238124
1526.07,30.896497142857164
1528.05,33.616986666666705
1530.03,52.22139619047622
1532.01,59.61391428571432
1533.98,64.984680952381
1535.96,84.61917619047624
1537.93,74.04113333333336
1539.9,64.25067142857147
1541.87,65.48607142857148
1543.84,73.98583333333337
1545.81,68.60767619047625
1547.78,89.82841904761911
1549.74,95.2201428571429
1551.7,105.9745714285715
1553.67,129.52098095238102
1555.63,124.19394761904769
1557.59,119.56619047619054
1559.55,122.87702380952388
1561.5,129.93747619047627
1563.46,135.32097619047627
1565.41,151.69523809523818
1567.37,136.01471428571438
1569.32,150.85252380952392
1571.27,157.44842857142868
1573.22,167.37633333333346
1575.17,155.4953714285715
1577.11,134.09303809523817
1579.06,111.36226666666674
1581.0,123.06691428571438
1582.95,105.49486190476198
1584.89,116.17270476190484
1586.83,124.81677619047626
1588.77,122.42961904761916
1590.7,145.58488095238107
1592.64,170.0467142857144
1594.58,153.2463690476191
1596.51,131.18669047619073
1598.44,117.03709523809593
