Raman Shift,Processed Intensity
331.095,35.32564619047576
333.909,-46.59419904761926
336.721,-54.524971904762005
339.531,-24.015345714285704
342.339,-14.043062857142868
345.145,-8.585161904761922
347.949,-19.593034285714296
350.751,-10.30235999999999
353.55,5.90978285714287
356.348,-0.617875238095257
359.144,0.026269523809531847
361.937,-2.6254590476190414
364.729,6.531923809523867
367.518,65.8912142857144
370.306,159.46524285714298
373.091,241.36397619047636
375.874,349.2700095238097
378.656,373.7248380952382
381.435,305.8425857142858
384.212,202.5488238095239
386.988,118.19853809523815
389.761,44.62481428571433
392.532,36.042761904761946
395.301,55.43109523809527
398.068,36.67460952380953
400.833,19.088047619047618
403.596,2.1780142857142657
406.358,-16.92841428571427
409.117,-12.19812380952379
411.874,20.974814285714306
414.629,38.48329523809527
417.382,57.269123809523855
420.133,71.17989047619054
422.882,90.8741571428572
425.629,121.39231904761914
428.374,145.77574285714297
431.117,180.49543809523823
433.858,220.9279047619049
436.597,240.0223523809525
439.334,208.06218571428582
442.069,173.99837142857152
444.802,144.68681428571438
447.533,146.22284761904774
450.262,164.41632857142872
452.989,218.792542857143
455.714,228.49614285714298
458.438,216.29147619047632
461.159,209.75276190476202
463.878,194.59785714285724
466.595,171.83057142857157
469.31,180.83671428571438
472.024,173.28761904761913
474.735,145.3313333333334
477.444,137.54500000000007
480.152,145.64814285714294
482.857,150.69480952380962
485.561,175.8344285714287
488.262,214.40685714285726
490.962,219.704761904762
493.659,212.59233333333339
496.355,194.0287142857144
499.048,136.97417619047624
501.74,93.95974761904769
504.43,102.3739476190477
507.118,111.70039523809533
509.804,117.80413809523819
512.488,137.8355095238096
515.17,186.46869523809536
517.85,192.7114714285715
520.528,197.85714285714295
523.204,171.2465571428572
525.878,110.93510000000005
528.551,62.21588095238102
531.221,95.61966190476197
533.89,111.39196190476198
536.556,116.77816190476197
539.221,111.30896666666669
541.883,75.61025714285718
544.544,77.54590952380961
547.203,126.07475238095248
549.86,134.4887095238096
552.515,145.22248095238103
555.168,128.80574285714292
557.819,105.95869523809532
560.469,124.9248476190477
563.116,139.32870476190482
565.761,123.9848095238096
568.405,124.61214285714293
571.047,117.92938095238102
573.687,102.75045238095242
576.324,96.41271428571433
578.96,98.4915095238096
581.594,94.99027619047624
584.227,70.72176190476193
586.857,72.35552380952385
589.485,78.13223333333339
592.112,69.67367142857148
594.737,86.31536190476196
597.359,75.20191428571431
599.98,58.95390000000005
602.599,63.048933333333395
605.216,95.05926190476197
607.831,101.41438095238101
610.445,87.3528666666667
613.056,73.7320285714286
615.666,44.17070952380954
618.274,33.192619047619104
620.88,51.79686666666671
623.484,82.55411904761911
626.086,81.84407142857148
628.686,119.42716190476197
631.284,119.7780476190477
633.881,138.41867619047628
636.476,149.6323857142858
639.068,139.46443333333343
641.659,126.81688571428577
644.249,125.78206190476196
646.836,105.92846190476196
649.421,103.77652857142863
652.005,82.13229047619049
654.587,64.46818571428577
657.166,62.68520476190479
659.745,59.87447142857147
662.321,65.17467142857147
664.895,66.39098095238097
667.468,39.42370952380955
670.038,46.93488095238098
672.607,50.491319047619086
675.174,57.65963333333339
677.739,104.24442857142864
680.303,129.0979333333334
682.864,126.78662380952386
685.424,124.59113333333337
687.982,83.50645714285716
690.538,47.47991428571433
693.092,59.030009523809575
695.645,73.6757714285715
698.195,82.12648095238099
700.744,83.75813333333333
703.291,38.70870571428572
705.836,-3.121818095238091
708.38,-7.976417142857125
710.921,21.616770476190517
713.461,50.46284952380956
715.999,66.22421523809527
718.535,53.27772000000001
721.069,39.00036190476194
723.602,39.8645190476191
726.133,84.00938095238101
728.662,77.0981666666667
731.189,79.55603333333339
733.714,76.23698095238099
736.238,63.328395238095275
738.759,59.63704761904768
741.279,95.25522380952387
743.798,94.65661904761915
746.314,123.31491904761911
748.829,126.5613190476191
751.342,129.82214285714292
753.853,120.14320000000006
756.362,113.23670952380958
758.869,105.00579523809527
761.375,76.59167142857146
763.879,49.231066666666706
766.381,56.160657142857175
768.882,65.09346190476197
771.38,76.55234761904768
773.877,80.96497142857147
776.372,81.94941428571435
778.866,90.9336952380953
781.357,102.7744857142858
783.847,123.75669523809529
786.335,129.8324095238096
788.821,115.28719047619056
791.306,117.54909523809532
793.789,115.99952380952391
796.27,127.82895238095246
798.749,136.03738095238106
801.227,145.52990476190485
803.702,144.68785714285724
806.176,178.70185714285725
808.649,190.5251904761906
811.119,189.824761904762
813.588,190.1252857142858
816.055,171.5228476190477
818.521,134.06594285714294
820.984,125.75547142857148
823.446,86.78297619047623
825.906,57.57817619047626
828.365,93.28493809523818
830.821,110.28543333333342
833.276,141.39074761904772
835.729,156.220980952381
838.181,156.39677142857153
840.631,143.58638571428577
843.079,106.26732857142862
845.525,103.58408095238106
847.97,98.776680952381
850.412,96.17990476190484
852.854,93.1766904761905
855.293,99.6257190476191
857.731,57.86236190476196
860.167,78.93600476190481
862.601,74.46775238095243
865.034,72.88808095238099
867.465,57.199047619047676
869.894,88.9737666666667
872.321,80.26226190476196
874.747,71.63801428571433
877.171,69.5793523809524
879.594,41.135957142857166
882.014,40.88158095238101
884.433,74.43711904761909
886.851,80.09075714285721
889.266,115.98734761904772
891.68,154.03369523809533
894.092,147.8512380952382
896.503,160.77566666666678
898.912,156.5234761904763
901.319,139.81152380952392
903.724,160.78442857142866
906.128,167.82519047619058
908.53,173.69828571428582
910.931,191.45338095238105
913.329,181.6164761904763
915.726,166.23785714285725
918.122,164.98585714285724
920.516,157.71990476190487
922.908,175.39466666666678
925.298,178.154761904762
927.687,170.00219047619058
930.074,163.03480000000008
932.459,126.77808571428578
934.843,110.09136190476197
937.225,120.50055238095246
939.605,93.72150000000006
941.984,100.6608952380953
944.361,101.84462380952385
946.736,93.60757142857152
949.11,108.52307619047626
951.482,113.259680952381
953.853,83.43791904761909
956.222,75.8689904761905
958.589,49.74493809523815
960.954,50.25766190476195
963.318,75.12292380952387
965.68,86.24689047619054
968.041,98.91658095238103
970.4,114.08563809523815
972.757,97.61239523809526
975.113,57.45032952380954
977.467,28.029008095238098
979.819,-2.8886552380952333
982.17,-6.1113176190475915
984.519,21.409449523809563
986.866,44.62674142857148
989.212,79.39839619047626
991.556,122.34408095238103
993.899,153.70225714285723
996.24,175.71145238095247
998.579,174.27691428571435
1000.92,149.7795714285715
1003.25,127.1245714285715
1005.59,119.6455714285715
1007.92,118.77080952380962
1010.25,131.83390476190488
1012.58,140.97776190476202
1014.91,153.9160476190477
1017.24,136.7918095238096
1019.56,121.84285714285721
1021.88,114.83071428571438
1024.2,126.2790000000001
1026.52,149.61561904761916
1028.84,177.26838095238108
1031.16,183.90400000000014
1033.48,222.3787142857144
1035.79,237.2159047619049
1038.1,272.3196666666668
1040.41,290.8792857142859
1042.72,291.1797619047621
1045.03,277.69676190476207
1047.33,269.3819047619049
1049.64,239.7579047619049
1051.94,223.7763809523811
1054.24,210.29319047619063
1056.54,213.1169047619049
1058.84,209.86542857142868
1061.13,200.4904285714287
1063.43,209.32366666666684
1065.72,209.69752380952394
1068.01,216.32509523809537
1070.3,226.72895238095248
1072.59,233.28895238095254
1074.87,246.81342857142872
1077.16,262.5390476190478
1079.44,275.03576190476207
1081.72,293.4927142857145
1084.0,310.0991428571431
1086.28,370.0442380952384
1088.56,480.08842857142895
1090.84,627.468428571429
1093.11,724.2305238095242
1095.38,743.5162380952385
1097.65,659.085904761905
1099.92,543.1287619047622
1102.19,441.40480952380983
1104.46,391.72214285714307
1106.72,386.4130952380955
1108.98,395.38104761904793
1111.24,432.43380952380977
1113.5,487.23661904761934
1115.76,539.6450952380956
1118.02,551.2290000000003
1120.28,530.4634285714288
1122.53,480.2041904761908
1124.78,435.4020476190479
1127.03,383.9601428571431
1129.28,347.4490952380954
1131.53,332.10514285714305
1133.77,303.1652380952383
1136.02,268.2945238095239
1138.26,253.6819523809525
1140.5,221.8023809523811
1142.74,197.60742857142873
1144.98,220.2858571428573
1147.22,255.69371428571446
1149.45,288.3536666666668
1151.69,308.0261904761906
1153.92,279.37685714285726
1156.15,237.3569523809525
1158.38,199.8223238095239
1160.61,160.48613333333344
1162.83,142.29983809523816
1165.06,114.92896190476196
1167.28,100.8966476190477
1169.5,111.4874476190477
1171.72,117.70059047619053
1173.94,111.67810476190482
1176.16,118.84742857142862
1178.37,109.3507476190477
1180.58,104.61610000000005
1182.8,86.11883809523813
1185.01,61.09644761904765
1187.22,37.02473333333336
1189.42,26.617142857142877
1191.63,32.34954285714289
1193.84,47.55484285714289
1196.04,55.51839047619052
1198.24,66.00176666666668
1200.44,47.242828571428575
1202.64,24.098519047619067
1204.84,17.187747619047627
1207.03,15.891409523809537
1209.23,1.9238190476190513
1211.42,22.18981428571431
1213.61,19.165716666666682
1215.8,37.042176190476226
1217.99,46.77182142857145
1220.18,52.450209523809534
1222.36,19.553945238095253
1224.55,22.131104761904776
1226.73,24.467952380952415
1228.91,45.231780952380994
1231.09,65.47090000000004
1233.27,77.51943809523813
1235.44,85.28297619047625
1237.62,83.42909523809529
1239.79,95.00650952380958
1241.96,105.87345238095243
1244.13,98.50714285714291
1246.3,94.62304285714293
1248.47,96.74622857142863
1250.64,104.83034285714294
1252.8,122.21031904761911
1254.96,110.45902857142862
1257.13,95.19696666666671
1259.29,93.18755714285719
1261.44,70.19434761904768
1263.6,76.98083333333338
1265.76,93.07252380952386
1267.91,88.37611904761911
1270.06,123.22648571428581
1272.22,131.86366190476195
1274.37,120.90860000000006
1276.51,102.60136666666672
1278.66,114.32479047619057
1280.81,149.79534761904773
1282.95,184.5385142857144
1285.09,179.17538095238106
1287.23,161.80328571428578
1289.37,152.75798095238108
1291.51,152.85099523809535
1293.65,153.08446666666674
1295.78,123.93669047619052
1297.92,84.64777619047624
1300.05,54.50570476190482
1302.18,54.703400000000045
1304.31,67.481080952381
1306.44,74.07896666666672
1308.57,97.83271904761914
1310.69,125.64942857142866
1312.82,169.19768571428583
1314.94,179.24164285714295
1317.06,206.68861904761917
1319.18,194.49309523809535
1321.3,192.6098571428573
1323.41,213.8506190476192
1325.53,271.9317619047621
1327.64,289.3317619047621
1329.75,330.10033333333354
1331.87,323.7636190476192
1333.98,321.6092857142859
1336.08,312.1158571428573
1338.19,311.19019047619065
1340.3,301.8820952380954
1342.4,283.479142857143
1344.5,242.5074285714287
1346.6,216.6352857142858
1348.7,170.15095238095248
1350.8,148.5321904761906
1352.9,144.97147619047627
1354.99,141.18509523809533
1357.09,133.9842380952382
1359.18,143.65657142857154
1361.27,150.25161904761916
1363.36,177.67585714285727
1365.45,182.07352380952395
1367.54,203.1129523809525
1369.62,208.08123809523823
1371.7,220.26609523809537
1373.79,235.57357142857157
1375.87,269.005142857143
1377.95,279.5620952380954
1380.03,277.8171904761906
1382.1,278.67619047619064
1384.18,243.28338095238107
1386.25,200.97290476190489
1388.33,175.60295238095247
1390.4,163.98428571428582
1392.47,139.546261904762
1394.54,143.95633333333342
1396.6,122.92947142857147
1398.67,99.98992380952386
1400.74,95.5671095238096
1402.8,118.99487619047626
1404.86,113.41622380952386
1406.92,94.8792285714286
1408.98,77.09827619047623
1411.04,48.31155714285718
1413.09,62.23363809523816
1415.15,99.62645238095246
1417.2,124.29898571428579
1419.25,113.72727619047625
1421.3,108.0539428571429
1423.35,84.61167619047625
1425.4,68.1619047619048
1427.45,53.513566666666705
1429.49,40.7132523809524
1431.54,22.56972380952385
1433.58,43.89170000000006
1435.62,82.9157952380953
1437.66,115.11712857142864
1439.7,114.5895571428572
1441.74,113.42699047619054
1443.77,88.00874285714289
1445.81,86.00000000000006
1447.84,78.01784285714291
1449.87,77.58447142857148
1451.9,67.88838095238101
1453.93,85.35625238095244
1455.96,95.41466190476197
1457.98,123.53782380952389
1460.01,131.48550476190482
1462.03,150.92195238095246
1464.05,184.36866666666677
1466.07,193.82338095238106
1468.09,196.18857142857155
1470.11,198.55709523809534
1472.13,188.78347619047628
1474.14,176.67485714285726
1476.16,182.3714761904763
1478.17,166.2041904761906
1480.18,170.40851428571438
1482.19,158.45781904761913
1484.2,137.44456666666673
1486.21,86.08072380952382
1488.21,51.55393809523812
1490.22,22.147295238095268
1492.22,45.905852380952425
1494.22,47.11246190476194
1496.22,67.33593361904765
1498.22,53.525940047619066
1500.22,39.87033723809525
1502.22,18.794996619047637
1504.21,17.96398485714287
1506.21,13.612811476190501
1508.2,33.54842504761907
1510.19,31.101623809523826
1512.18,20.746131904761913
1514.17,25.336640000000017
1516.16,16.156443333333353
1518.14,35.965260952381
1520.13,72.80826904761909
1522.11,86.06423238095242
1524.09,84.63575238095243
1526.07,74.2350561904762
1528.05,29.52680857142858
1530.03,11.747298095238108
1532.01,13.656396190476208
1533.98,4.252386190476205
1535.96,21.43831333333336
1537.93,40.97450619047622
1539.9,64.28783333333338
1541.87,85.09126428571433
1543.84,89.76431428571432
1545.81,78.2106047619048
1547.78,79.38123809523816
1549.74,106.5607142857144
1551.7,132.17620000000008
1553.67,154.655561904762
1555.63,157.61680952380962
1557.59,156.53547619047626
1559.55,134.12495238095246
1561.5,139.0036190476191
1563.46,142.2660476190477
1565.41,144.34019047619057
1567.37,146.13038095238105
1569.32,150.68361904761912
1571.27,137.5232857142858
1573.22,144.6967142857144
1575.17,154.1560000000001
1577.11,152.04347619047627
1579.06,146.07380952380964
1581.0,143.29428571428582
1582.95,141.37157142857154
1584.89,141.87690476190485
1586.83,136.71519047619057
1588.77,141.45790476190484
1590.7,140.6290476190477
1592.64,168.18123809523823
1594.58,197.54321428571382
1596.51,191.19157142857063
1598.44,119.79330952380838
