Raman Shift,Processed Intensity
331.095,92.6975047619045
333.909,-17.09489999999994
336.721,-41.67069999999978
339.531,-16.74379523809521
342.339,1.9714428571428604
345.145,31.999385714285737
347.949,18.723338095238095
350.751,40.0994523809524
353.55,22.513828571428583
356.348,17.163466666666665
359.144,-8.32451428571428
361.937,-0.3692571428571334
364.729,9.897200000000062
367.518,64.24935714285724
370.306,125.36752380952392
373.091,225.8861476190478
375.874,309.4882857142859
378.656,340.8586190476192
381.435,327.7309142857144
384.212,225.9357142857143
386.988,92.73309523809527
389.761,35.71814761904765
392.532,2.9630095238095517
395.301,8.684352380952431
398.068,61.52859809523814
400.833,75.00084095238097
403.596,62.369210476190496
406.358,35.950682857142844
409.117,-14.269837142857149
411.874,-12.687201904761881
414.629,1.923843333333342
417.382,18.885295238095274
420.133,48.424802380952414
422.882,67.53294761904768
425.629,75.916211904762
428.374,150.42417142857155
431.117,199.38437142857154
433.858,258.3150000000001
436.597,290.9736190476192
439.334,244.64221428571437
442.069,177.69942857142868
444.802,152.4285000000001
447.533,129.01885714285726
450.262,157.32702380952395
452.989,208.59123809523823
455.714,243.90723809523828
458.438,258.8480285714287
461.159,237.84388476190486
463.878,138.32554666666672
466.595,87.72478380952388
469.31,78.04454857142866
472.024,122.43136476190489
474.735,168.50844190476198
477.444,170.66123238095244
480.152,124.65622857142866
482.857,128.07040952380962
485.561,151.24208571428582
488.262,192.41540000000012
490.962,217.9294476190477
493.659,183.07592380952383
496.355,122.71807142857148
499.048,64.29120952380957
501.74,48.3256333333334
504.43,73.9710095238096
507.118,107.56738571428579
509.804,130.9312857142858
512.488,154.8793142857144
515.17,191.98976190476205
517.85,198.1747142857144
520.528,203.25034285714295
523.204,171.6997714285715
525.878,121.33976666666672
528.551,93.41548095238102
531.221,86.17182380952384
533.89,62.61581904761909
536.556,54.897038095238116
539.221,42.35540952380956
541.883,60.75944285714293
544.544,87.78232380952387
547.203,106.62072857142866
549.86,122.8523095238096
552.515,114.14978095238102
555.168,137.0906904761906
557.819,166.58542857142868
560.469,169.1155714285715
563.116,149.40100000000007
565.761,139.0655714285715
568.405,131.20944190476197
571.047,119.17102761904766
573.687,110.09757904761909
576.324,88.0885485714286
578.96,81.10069714285721
581.594,71.51851714285718
584.227,80.82185904761909
586.857,57.87140571428576
589.485,65.90839809523814
592.112,50.03092761904766
594.737,64.33703238095242
597.359,68.01964285714291
599.98,90.2236571428572
602.599,100.0939190476191
605.216,96.01310952380956
607.831,67.1731285714286
610.445,47.337285714285755
613.056,55.98267619047624
615.666,75.44325238095243
618.274,70.67187619047621
620.88,41.906866666666694
623.484,53.052909523809575
626.086,67.77654761904769
628.686,115.31503809523821
631.284,161.85839047619058
633.881,173.35774285714297
636.476,163.14520952380963
639.068,142.50499523809532
641.659,107.57836190476196
644.249,80.12498571428574
646.836,66.0478190476191
649.421,62.01089047619052
652.005,68.82121714285718
654.587,43.7616742857143
657.166,45.972120952380976
659.745,25.211286190476205
662.321,28.09487428571432
664.895,24.952661428571453
667.468,58.3048571428572
670.038,80.90944142857148
672.607,111.9053152380953
675.174,97.9074571428572
677.739,93.95908095238099
680.303,77.8179333333334
682.864,72.90820952380956
685.424,79.89194761904767
687.982,78.00268095238098
690.538,68.04520000000005
693.092,72.25272761904766
695.645,59.28730142857144
698.195,32.763107619047645
700.744,23.913379523809535
703.291,19.06664095238098
705.836,24.9799204761905
708.38,40.12460000000002
710.921,26.210139047619062
713.461,42.088930476190505
715.999,39.37528476190479
718.535,48.01698761904767
721.069,59.4380390476191
723.602,90.06246285714292
726.133,107.88595238095245
728.662,91.09474761904762
731.189,53.01808095238096
733.714,42.794795238095276
736.238,37.84975238095244
738.759,65.8459952380953
741.279,110.01834761904766
743.798,89.45872380952385
746.314,83.97359523809531
748.829,112.2265714285715
751.342,109.2627952380953
753.853,87.84162380952387
756.362,99.24649047619053
758.869,82.42736666666671
761.375,65.38214285714291
763.879,81.29910952380959
766.381,100.65296666666673
768.882,79.25133809523815
771.38,90.28316190476193
773.877,69.31833809523812
776.372,44.022161904761944
778.866,50.29799523809529
781.357,85.38302857142862
783.847,89.51410000000006
786.335,99.3095190476191
788.821,93.43484285714293
791.306,108.17499047619054
793.789,126.38648095238105
796.27,147.30681904761914
798.749,151.31638095238102
801.227,158.557761904762
803.702,162.22090476190488
806.176,181.1153809523811
808.649,198.7172380952382
811.119,193.9787142857144
813.588,198.42347619047632
816.055,192.95661904761914
818.521,147.67335714285724
820.984,113.9552857142858
823.446,125.0404714285715
825.906,106.07225714285723
828.365,129.81291904761912
830.821,142.88231428571436
833.276,133.3288000000001
835.729,134.81981904761915
838.181,136.16548571428575
840.631,134.7952095238096
843.079,123.13850000000005
845.525,125.5296095238096
847.97,109.30326666666673
850.412,119.17466666666672
852.854,81.66886190476195
855.293,89.69174285714291
857.731,82.72095238095244
860.167,82.75776666666671
862.601,57.565604761904815
865.034,77.09817619047622
867.465,64.69046190476196
869.894,65.86785714285719
872.321,88.20345238095243
874.747,93.1751190476191
877.171,104.16566190476198
879.594,99.0813904761905
882.014,85.40042380952386
884.433,62.553200000000054
886.851,83.6845095238096
889.266,92.32014285714293
891.68,125.17640476190482
894.092,130.30295714285722
896.503,126.93990476190484
898.912,130.75622857142866
901.319,147.70627619047627
903.724,139.03061904761913
906.128,128.4930476190477
908.53,131.1910000000001
910.931,143.98419047619058
913.329,163.73204761904773
915.726,179.67480952380964
918.122,183.100761904762
920.516,174.77400000000011
922.908,165.07795238095247
925.298,157.634380952381
927.687,140.58832380952387
930.074,118.08510476190482
932.459,95.27007142857148
934.843,102.66945714285721
937.225,100.90511428571435
939.605,92.12237619047625
941.984,104.46666666666673
944.361,80.79767619047622
946.736,68.68929047619054
949.11,82.95356190476195
951.482,77.73609523809529
953.853,61.7061428571429
956.222,66.7711142857143
958.589,43.362123809523844
960.954,41.67214761904766
963.318,48.79914285714288
965.68,42.41236190476193
968.041,52.60963809523814
970.4,50.4888666666667
972.757,67.62387142857148
975.113,75.39837619047621
977.467,44.957795238095244
979.819,15.161900000000008
982.17,12.632257142857146
984.519,-0.5808952380952084
986.866,30.81053333333337
989.212,56.285457142857176
991.556,62.894247619047675
993.899,98.21071904761914
996.24,140.61833333333342
998.579,169.02441904761915
1000.92,163.19327619047627
1003.25,133.8891714285715
1005.59,103.49552857142862
1007.92,79.91910476190482
1010.25,72.49533333333339
1012.58,80.75007142857147
1014.91,69.25655714285719
1017.24,63.730733333333376
1019.56,61.602795238095275
1021.88,63.826314285714346
1024.2,87.16439047619055
1026.52,115.52310000000008
1028.84,127.76021428571437
1031.16,156.16209523809533
1033.48,175.25319047619058
1035.79,199.89109523809537
1038.1,230.88514285714302
1040.41,266.950142857143
1042.72,277.22852380952395
1045.03,280.57690476190487
1047.33,241.99528571428584
1049.64,181.7690000000001
1051.94,149.18261904761917
1054.24,164.61661904761917
1056.54,174.593761904762
1058.84,206.01780952380963
1061.13,221.36380952380964
1063.43,214.29733333333346
1065.72,216.05485714285726
1068.01,201.8730476190477
1070.3,163.70257142857156
1072.59,170.20857142857156
1074.87,190.05576190476205
1077.16,237.9567142857145
1079.44,280.671142857143
1081.72,293.0069523809526
1084.0,304.29504761904786
1086.28,371.2950476190479
1088.56,448.3858571428575
1090.84,583.6603333333338
1093.11,690.1160476190479
1095.38,678.893666666667
1097.65,598.4665238095241
1099.92,508.5463809523812
1102.19,400.701904761905
1104.46,357.35923809523837
1106.72,354.848904761905
1108.98,339.64447619047644
1111.24,373.69561904761935
1113.5,427.14271428571453
1115.76,487.64895238095266
1118.02,522.878666666667
1120.28,518.876285714286
1122.53,487.7818095238098
1124.78,436.0688095238097
1127.03,363.21057142857165
1129.28,315.3465714285716
1131.53,273.47466666666685
1133.77,239.4486666666668
1136.02,215.69433333333345
1138.26,203.2091904761906
1140.5,199.46623809523823
1142.74,209.93895238095251
1144.98,218.24395238095252
1147.22,234.04461904761916
1149.45,231.19547619047634
1151.69,248.837142857143
1153.92,245.9190000000001
1156.15,221.48633333333345
1158.38,198.0127904761906
1160.61,166.82890952380959
1162.83,133.50380952380962
1165.06,118.13065238095245
1167.28,118.51635238095245
1169.5,104.23036666666673
1171.72,108.74672857142862
1173.94,83.63473333333337
1176.16,70.46394761904767
1178.37,76.85144761904769
1180.58,97.27141904761912
1182.8,103.76990476190483
1185.01,100.91667619047624
1187.22,76.37691904761908
1189.42,55.72076190476194
1191.63,48.61348571428575
1193.84,48.00628571428575
1196.04,49.4694923809524
1198.24,33.52597095238096
1200.44,19.41303238095239
1202.64,23.082315714285734
1204.84,25.29514761904764
1207.03,12.717796666666663
1209.23,7.921396190476189
1211.42,-1.6655799999999972
1213.61,-14.852588095238072
1215.8,22.02720857142861
1217.99,50.640865238095245
1220.18,33.036564761904785
1222.36,53.405210952381
1224.55,55.985884761904785
1226.73,65.11267619047625
1228.91,90.977080952381
1231.09,90.48493809523814
1233.27,58.82785238095242
1235.44,66.48322380952385
1237.62,83.50013809523817
1239.79,99.68932857142863
1241.96,111.48092380952386
1244.13,107.97178571428574
1246.3,77.87788571428577
1248.47,76.05829047619055
1250.64,99.18159047619055
1252.8,127.29714761904773
1254.96,156.1687904761906
1257.13,179.03671428571437
1259.29,172.80766666666676
1261.44,147.00780952380958
1263.6,135.7345714285715
1265.76,139.6568571428572
1267.91,136.77728571428582
1270.06,143.9550952380953
1272.22,141.62142857142862
1274.37,111.68380952380959
1276.51,121.572761904762
1278.66,138.91033333333345
1280.81,149.46095238095248
1282.95,168.7509523809525
1285.09,168.21171428571438
1287.23,146.89371428571437
1289.37,141.22795238095244
1291.51,147.26509523809534
1293.65,137.53145714285722
1295.78,134.553861904762
1297.92,109.85877142857149
1300.05,100.21113809523814
1302.18,89.42329523809532
1304.31,104.11705238095246
1306.44,132.152361904762
1308.57,159.19871428571437
1310.69,175.73528571428585
1312.82,185.1934761904763
1314.94,166.57623809523818
1317.06,157.6006666666668
1319.18,150.17438095238106
1321.3,152.25233333333347
1323.41,189.7420952380954
1325.53,266.1227619047621
1327.64,321.34947619047637
1329.75,364.3773333333335
1331.87,370.1617619047621
1333.98,354.8002857142859
1336.08,339.0099523809526
1338.19,326.7456190476192
1340.3,312.7242380952383
1342.4,287.7578095238097
1344.5,246.4679523809525
1346.6,193.61885714285725
1348.7,174.4511904761906
1350.8,144.2050000000001
1352.9,143.4545714285715
1354.99,166.01161904761915
1357.09,179.92571428571438
1359.18,174.72252380952395
1361.27,186.6422380952382
1363.36,187.06771428571443
1365.45,182.42966666666683
1367.54,224.9683333333335
1369.62,251.2566190476192
1371.7,291.81976190476206
1373.79,284.70695238095254
1375.87,306.538904761905
1377.95,314.88842857142873
1380.03,327.9952857142859
1382.1,328.33647619047633
1384.18,307.8178095238096
1386.25,228.67857142857156
1388.33,191.96719047619058
1390.4,152.20842857142864
1392.47,129.06990476190484
1394.54,137.5518095238096
1396.6,130.32147619047626
1398.67,120.42719047619056
1400.74,146.63080952380963
1402.8,164.21845714285723
1404.86,142.6661714285715
1406.92,130.11624761904767
1408.98,120.28330476190482
1411.04,93.69067619047627
1413.09,105.90931428571437
1415.15,115.65307619047626
1417.2,120.73039047619056
1419.25,129.33077619047629
1421.3,136.5487857142858
1423.35,99.19248095238099
1425.4,52.49856666666668
1427.45,31.84681428571433
1429.49,52.8543190476191
1431.54,79.56684761904769
1433.58,121.74426666666673
1435.62,136.9561238095239
1437.66,122.24771428571434
1439.7,123.33100000000007
1441.74,131.8224761904763
1443.77,124.57652380952388
1445.81,146.30442857142867
1447.84,146.7655238095239
1449.87,158.71861904761914
1451.9,170.77958095238105
1453.93,165.2312238095239
1455.96,132.40363809523816
1457.98,129.6743476190477
1460.01,123.61140000000009
1462.03,144.16370000000012
1464.05,189.85143809523822
1466.07,214.43309523809538
1468.09,232.33376190476204
1470.11,257.40695238095253
1472.13,254.88719047619057
1474.14,241.53247619047636
1476.16,239.2914285714287
1478.17,229.54161904761918
1480.18,212.27923809523824
1482.19,191.35785714285723
1484.2,148.1070952380953
1486.21,119.6184952380953
1488.21,100.31696190476197
1490.22,97.19912857142863
1492.22,83.26131428571432
1494.22,75.07163333333338
1496.22,56.57887142857146
1498.22,51.87513333333337
1500.22,55.766495238095274
1502.22,59.583133333333365
1504.21,45.65531904761908
1506.21,58.74178095238098
1508.2,50.696890476190504
1510.19,64.13684761904767
1512.18,64.72560000000003
1514.17,67.41298095238098
1516.16,50.05360476190479
1518.14,80.45466666666672
1520.13,66.75687619047622
1522.11,70.38668761904763
1524.09,39.8184161904762
1526.07,25.478908571428587
1528.05,10.271345714285747
1530.03,44.95639904761908
1532.01,56.580320952381
1533.98,67.28488761904765
1535.96,67.83109047619051
1537.93,66.93239523809528
1539.9,70.25497619047626
1541.87,80.56015714285721
1543.84,93.70471904761911
1545.81,79.11699047619052
1547.78,103.36842857142865
1549.74,132.7922476190477
1551.7,152.72224761904772
1553.67,156.87271904761914
1555.63,155.95854285714293
1557.59,146.45609523809532
1559.55,152.74714285714293
1561.5,168.6420000000001
1563.46,163.80814285714294
1565.41,157.96080952380962
1567.37,161.43461904761915
1569.32,176.039761904762
1571.27,175.3965238095239
1573.22,174.1255714285715
1575.17,148.1803333333334
1577.11,135.990761904762
1579.06,133.55861904761912
1581.0,133.4090476190477
1582.95,138.2105238095239
1584.89,143.1074857142858
1586.83,117.81610476190482
1588.77,129.48073333333343
1590.7,136.48446666666675
1592.64,153.01973333333345
1594.58,173.04089999999994
1596.51,170.5257714285713
1598.44,127.14274761904743
