Raman Shift,Processed Intensity
331.095,74.84283366666627
333.909,-6.651360857143047
336.721,-30.28473742857149
339.531,-19.26891504761904
342.339,-9.911198190476187
345.145,0.21980352380952306
347.949,8.747701047619042
350.751,-2.8454199047619033
353.55,14.352413333333363
356.348,24.73068523809524
359.144,25.918340000000022
361.937,23.8789523809524
364.729,24.339280952380996
367.518,55.69415714285725
370.306,149.387242857143
373.091,221.6732476190478
375.874,343.331904761905
378.656,409.23943809523826
381.435,351.1302238095239
384.212,262.1686952380953
386.988,146.04422380952386
389.761,38.114380952381026
392.532,61.21407142857149
395.301,61.56038190476191
398.068,30.657215238095255
400.833,25.390868571428555
403.596,-0.4465152380952424
406.358,-26.34718380952379
409.117,17.531110476190484
411.874,10.508034285714295
414.629,16.57105238095241
417.382,32.375457142857165
420.133,55.72041904761909
422.882,38.21569047619052
425.629,80.09118571428579
428.374,120.00634761904773
431.117,169.19260952380967
433.858,230.21620952380965
436.597,247.11997142857155
439.334,187.42391904761914
442.069,120.79174285714289
444.802,82.88801428571435
447.533,87.09178095238106
450.262,131.87851904761914
452.989,177.81909523809537
455.714,228.15214285714296
458.438,208.83093333333343
461.159,175.14281428571434
463.878,139.51820000000004
466.595,112.91167142857152
469.31,97.46906666666673
472.024,125.81283333333342
474.735,136.18478095238103
477.444,134.82720952380961
480.152,139.50615238095247
482.857,159.98815238095247
485.561,157.85009523809535
488.262,168.19200000000012
490.962,179.21021904761915
493.659,164.05338571428578
496.355,128.58436666666674
499.048,99.09512380952386
501.74,64.21118571428576
504.43,55.17680952380958
507.118,66.80813809523815
509.804,107.25475714285724
512.488,141.52320000000012
515.17,191.38243809523823
517.85,219.6965238095239
520.528,221.80558095238106
523.204,190.2400733333334
525.878,132.81661142857146
528.551,64.77990380952384
531.221,45.18493142857147
533.89,51.752637142857196
536.556,52.48964000000005
539.221,79.54548761904766
541.883,89.40297142857148
544.544,101.11645714285723
547.203,132.7877196190477
549.86,107.70853009523813
552.515,87.40885066666674
555.168,93.41850038095247
557.819,129.17204114285727
560.469,166.24685390476202
563.116,202.55301485714293
565.761,167.19104285714295
568.405,133.07085714285722
571.047,102.53083333333342
573.687,113.95660000000007
576.324,108.73384761904767
578.96,111.2001190476191
581.594,77.45472380952383
584.227,57.215919047619096
586.857,54.963371428571485
589.485,73.36690952380958
592.112,73.57273333333339
594.737,97.20257142857149
597.359,83.78304285714293
599.98,93.60218095238102
602.599,101.2335952380953
605.216,122.77426666666675
607.831,136.89251428571438
610.445,143.97037619047626
613.056,110.53281904761909
615.666,84.152080952381
618.274,67.16200476190481
620.88,56.75324285714289
623.484,65.02110000000003
626.086,57.01288095238098
628.686,58.72810000000007
631.284,81.21358571428578
633.881,130.99225714285723
636.476,155.68175714285724
639.068,167.89981904761916
641.659,155.0254761904763
644.249,137.34247619047625
646.836,114.32461904761914
649.421,121.96996095238102
652.005,101.94231333333336
654.587,54.33429333333335
657.166,37.285477142857175
659.745,21.983126666666696
662.321,26.852394285714333
664.895,69.69954666666672
667.468,84.37783333333337
670.038,71.26432857142862
672.607,94.30750000000006
675.174,90.64586666666672
677.739,102.70393333333342
680.303,142.85840000000007
682.864,153.39022857142862
685.424,127.1519571428572
687.982,126.75817142857147
690.538,87.72762857142861
693.092,70.53194000000005
695.645,52.30906142857145
698.195,38.86353714285717
700.744,46.66662428571433
703.291,46.42779904761906
705.836,35.6658185714286
708.38,41.28054476190477
710.921,24.362361904761933
713.461,31.66835238095242
715.999,68.09845714285719
718.535,83.8861571428572
721.069,91.26485238095245
723.602,120.03932380952386
726.133,121.2527952380953
728.662,97.94840952380957
731.189,75.35987142857147
733.714,70.67355238095243
736.238,76.93257619047628
738.759,112.22805714285722
741.279,136.60363809523815
743.798,117.10289523809527
746.314,91.9601047619048
748.829,66.93353333333339
751.342,73.01940476190481
753.853,51.64300238095242
756.362,75.5626428571429
758.869,66.15619761904763
761.375,34.51583333333334
763.879,38.2100928571429
766.381,50.85523809523812
768.882,33.2582190476191
771.38,45.3687904761905
773.877,60.803928571428614
776.372,60.70450476190483
778.866,116.78272857142866
781.357,148.75130000000007
783.847,158.6560571428572
786.335,130.4002952380953
788.821,120.26863809523815
791.306,109.06956190476198
793.789,112.46835238095245
796.27,130.79796190476202
798.749,167.72423809523818
801.227,154.5798476190477
803.702,165.17421904761918
806.176,191.36410476190488
808.649,204.57769523809537
811.119,202.57689523809535
813.588,214.2192952380953
816.055,161.31437619047628
818.521,146.8628000000001
820.984,135.19829047619055
823.446,163.36921904761914
825.906,140.28070000000008
828.365,134.64814285714291
830.821,106.61515238095242
833.276,86.61150476190483
835.729,92.97156190476203
838.181,150.74437142857153
840.631,168.7886095238096
843.079,159.153180952381
845.525,149.50612380952384
847.97,104.51590000000006
850.412,84.660280952381
852.854,67.51251428571432
855.293,68.02730000000005
857.731,74.3013238095239
860.167,114.67020476190483
862.601,110.85034761904767
865.034,103.46295238095243
867.465,88.70065714285718
869.894,74.23270000000007
872.321,93.68017142857151
874.747,131.23634761904768
877.171,125.61795714285722
879.594,123.39902380952385
882.014,97.24871428571431
884.433,59.78885714285719
886.851,61.641257142857214
889.266,105.14162857142867
891.68,133.95987142857155
894.092,179.43178095238108
896.503,185.27491428571437
898.912,167.96819047619056
901.319,160.6100476190477
903.724,160.44119047619054
906.128,140.60761904761915
908.53,125.82638095238102
910.931,136.91033333333345
913.329,143.5290000000001
915.726,167.4477142857144
918.122,191.0980000000001
920.516,191.67314285714298
922.908,170.36714285714294
925.298,175.2304190476191
927.687,153.50422857142863
930.074,130.9061190476191
932.459,99.58188571428576
934.843,72.39165714285718
937.225,48.576895238095275
939.605,74.3787333333334
941.984,82.32391428571432
944.361,75.70117142857146
946.736,52.989761904761934
949.11,61.57345238095242
951.482,32.26498095238099
953.853,65.30535714285719
956.222,71.60227333333336
958.589,47.63482809523811
960.954,47.69159428571433
963.318,60.10851476190478
965.68,35.45994666666672
968.041,72.89105190476197
970.4,84.16660571428574
972.757,63.76527666666669
975.113,51.26089238095238
977.467,20.608072857142858
979.819,0.09472285714288464
982.17,13.24656142857145
984.519,32.92271714285718
986.866,48.88693238095242
989.212,71.90257619047625
991.556,110.39977142857151
993.899,156.76107142857154
996.24,174.84461428571439
998.579,192.0803523809525
1000.92,188.9455714285715
1003.25,160.20290476190485
1005.59,162.7100380952382
1007.92,145.84872857142867
1010.25,143.1909142857144
1012.58,137.97522857142866
1014.91,139.0116952380953
1017.24,103.20523809523814
1019.56,103.26983809523816
1021.88,95.4915857142858
1024.2,119.48977142857152
1026.52,138.69225714285724
1028.84,139.6705190476191
1031.16,119.85258095238103
1033.48,140.76180476190487
1035.79,173.25481904761918
1038.1,195.61705238095252
1040.41,240.3234571428573
1042.72,249.4212857142859
1045.03,243.52838095238113
1047.33,239.50123809523822
1049.64,224.00514285714297
1051.94,195.2297142857144
1054.24,214.31671428571443
1056.54,211.26509523809534
1058.84,189.69204761904774
1061.13,161.21571428571437
1063.43,162.45314285714295
1065.72,165.3553809523811
1068.01,190.49271428571438
1070.3,195.14909523809536
1072.59,192.6084285714287
1074.87,199.4883809523811
1077.16,234.0725714285716
1079.44,267.4070000000002
1081.72,292.1564761904764
1084.0,315.4141428571431
1086.28,359.74933333333365
1088.56,475.3508571428575
1090.84,608.6927142857147
1093.11,735.0112380952385
1095.38,754.3994761904765
1097.65,667.379142857143
1099.92,524.1860000000003
1102.19,431.1036190476193
1104.46,370.74885714285745
1106.72,351.45309523809544
1108.98,358.16614285714314
1111.24,379.88595238095263
1113.5,425.2770000000003
1115.76,484.9557619047622
1118.02,538.8728095238098
1120.28,554.6445238095241
1122.53,532.4591904761907
1124.78,492.8381428571431
1127.03,439.30314285714314
1129.28,378.3277619047621
1131.53,331.38614285714306
1133.77,290.09476190476204
1136.02,264.49938095238116
1138.26,258.88295238095253
1140.5,253.52919047619065
1142.74,252.76900000000015
1144.98,236.88595238095252
1147.22,230.92557142857157
1149.45,265.31423809523824
1151.69,254.90647619047633
1153.92,246.08123809523823
1156.15,240.4077523809525
1158.38,194.83646666666678
1160.61,171.6988380952382
1162.83,169.08776190476198
1165.06,126.1440333333334
1167.28,93.48479523809529
1169.5,85.20325714285718
1171.72,52.44057619047624
1173.94,53.57566666666673
1176.16,85.60649047619054
1178.37,114.96026190476198
1180.58,108.63518095238099
1182.8,97.72480952380954
1185.01,64.60851428571429
1187.22,24.28455333333335
1189.42,2.370460476190487
1191.63,4.484020952380957
1193.84,4.62379666666669
1196.04,29.883759047619087
1198.24,63.07223857142861
1200.44,57.61671952380955
1202.64,51.42096095238099
1204.84,46.48407666666669
1207.03,36.80531809523812
1209.23,30.003080476190494
1211.42,41.743501904761914
1213.61,15.883342857142862
1215.8,8.708066666666678
1217.99,11.741347619047627
1220.18,23.26892380952384
1222.36,30.862380952380988
1224.55,60.33156190476194
1226.73,64.20069047619052
1228.91,75.8515428571429
1231.09,74.7608190476191
1233.27,83.31036666666671
1235.44,86.83452857142862
1237.62,80.19159047619051
1239.79,56.47800476190479
1241.96,55.31440952380955
1244.13,52.65445238095243
1246.3,59.07118571428576
1248.47,86.42366666666672
1250.64,96.04679047619052
1252.8,102.70431904761912
1254.96,111.49368571428577
1257.13,120.98821904761913
1259.29,146.04739047619057
1261.44,149.435580952381
1263.6,141.01206666666673
1265.76,132.73155238095245
1267.91,109.26350952380957
1270.06,86.03884761904769
1272.22,98.34618571428578
1274.37,94.94983809523816
1276.51,108.09106190476199
1278.66,145.15313333333341
1280.81,179.71076190476202
1282.95,190.14785714285725
1285.09,174.37195238095245
1287.23,149.90990476190484
1289.37,137.050761904762
1291.51,141.8447333333334
1293.65,141.96201904761912
1295.78,144.83440952380957
1297.92,101.13149523809528
1300.05,86.2852571428572
1302.18,94.44164761904769
1304.31,109.60408571428579
1306.44,113.39478095238103
1308.57,116.1503428571429
1310.69,96.30265714285723
1312.82,112.99741904761913
1314.94,133.95249523809534
1317.06,161.83788571428582
1319.18,159.37118095238105
1321.3,156.12680952380964
1323.41,192.06038095238114
1325.53,260.07961904761925
1327.64,312.18819047619064
1329.75,358.2460952380954
1331.87,344.4948571428573
1333.98,321.6512857142859
1336.08,303.6706666666668
1338.19,297.7942857142859
1340.3,268.4062380952382
1342.4,252.1759523809525
1344.5,213.91595238095252
1346.6,200.0572857142858
1348.7,183.0788095238096
1350.8,176.268761904762
1352.9,150.24904761904767
1354.99,142.78385714285722
1357.09,129.59009523809533
1359.18,132.24133333333342
1361.27,139.88266666666675
1363.36,140.61147619047628
1365.45,134.28728571428582
1367.54,161.76890476190488
1369.62,188.29633333333345
1371.7,225.10947619047636
1373.79,237.78123809523822
1375.87,251.6468095238097
1377.95,273.89809523809544
1380.03,292.86947619047635
1382.1,302.6098095238097
1384.18,289.02509523809533
1386.25,241.21128571428588
1388.33,211.026761904762
1390.4,194.4720276190477
1392.47,136.59519666666674
1394.54,109.92035523809531
1396.6,82.35263666666671
1398.67,67.27308857142863
1400.74,80.2056633333334
1402.8,108.24519428571432
1404.86,78.77237619047624
1406.92,75.97697619047624
1408.98,66.38231428571432
1411.04,46.27327142857146
1413.09,46.934557142857194
1415.15,78.69843809523815
1417.2,82.32542380952385
1419.25,91.00454285714291
1421.3,115.0200952380953
1423.35,109.7035714285715
1425.4,98.14839047619054
1427.45,97.44791904761908
1429.49,62.83812857142859
1431.54,43.74530000000005
1433.58,60.69128095238101
1435.62,80.05433809523817
1437.66,98.87978095238101
1439.7,101.926980952381
1441.74,104.62179047619054
1443.77,102.9138190476191
1445.81,92.60991428571434
1447.84,84.56416190476196
1449.87,89.96420000000006
1451.9,80.94993809523817
1453.93,99.18488571428578
1455.96,95.33269047619052
1457.98,91.43799047619054
1460.01,100.30696666666677
1462.03,127.22202857142867
1464.05,158.03726666666677
1466.07,192.32083809523823
1468.09,229.21233333333348
1470.11,237.85161904761918
1472.13,225.85423809523817
1474.14,208.78809523809537
1476.16,212.88838095238108
1478.17,209.05647619047633
1480.18,219.47973333333343
1482.19,195.29774285714294
1484.2,126.88820000000007
1486.21,90.39071428571435
1488.21,68.51672380952385
1490.22,45.69169047619051
1492.22,36.53174761904765
1494.22,51.65284761904765
1496.22,37.48068571428575
1498.22,46.726761904761936
1500.22,45.48353809523812
1502.22,43.98645714285717
1504.21,47.23290571428575
1506.21,48.077543809523824
1508.2,43.32745904761907
1510.19,58.266089523809555
1512.18,42.60547333333336
1514.17,43.39114190476192
1516.16,29.144939523809523
1518.14,18.293572380952412
1520.13,20.78770904761907
1522.11,40.43525333333335
1524.09,31.7585242857143
1526.07,31.8514361904762
1528.05,22.141304761904788
1530.03,20.43655000000001
1532.01,27.259957142857168
1533.98,32.99152619047621
1535.96,44.916141904761936
1537.93,39.03307761904763
1539.9,39.484479047619075
1541.87,51.3175152380953
1543.84,66.38873142857148
1545.81,61.41197047619052
1547.78,65.10109904761909
1549.74,79.59868095238102
1551.7,86.57124285714293
1553.67,126.59013809523819
1555.63,161.17907619047628
1557.59,150.76655238095245
1559.55,131.44787619047625
1561.5,128.36572380952387
1563.46,123.42541904761916
1565.41,143.38897142857152
1567.37,173.20882857142865
1569.32,173.93309523809532
1571.27,166.9432857142858
1573.22,140.14414285714292
1575.17,141.39366666666675
1577.11,152.40650476190487
1579.06,142.7546476190477
1581.0,139.20067619047626
1582.95,122.55501904761911
1584.89,115.53262857142867
1586.83,137.18174285714298
1588.77,166.2173142857144
1590.7,176.73566666666673
1592.64,171.2610952380953
1594.58,141.22335714285722
1596.51,124.59964285714308
1598.44,144.39095238095308
