Raman Shift,Processed Intensity
331.095,110.2872976190473
333.909,-2.763116666666889
336.721,-31.615309523809643
339.531,-9.31984761904759
342.339,24.31033809523812
345.145,32.55818095238098
347.949,67.23218571428575
350.751,30.142233333333316
353.55,-21.329147619047628
356.348,-13.94079523809522
359.144,9.597619047619089
361.937,28.72084285714293
364.729,106.34115714285721
367.518,123.18228095238103
370.306,145.6835619047621
373.091,253.47610000000017
375.874,350.24020000000024
378.656,381.80076190476206
381.435,350.1743142857144
384.212,236.28396666666671
386.988,126.48270952380959
389.761,67.36280476190481
392.532,45.37520000000004
395.301,34.97252857142859
398.068,47.94204285714289
400.833,35.45339047619049
403.596,36.20148095238096
406.358,-2.4030714285714563
409.117,-15.329223809523805
411.874,-5.496833333333303
414.629,15.985176190476214
417.382,40.96160000000003
420.133,55.46916190476193
422.882,61.260080952381045
425.629,110.70699523809536
428.374,203.7548809523811
431.117,267.0646761904764
433.858,317.15516190476205
436.597,316.070142857143
439.334,292.52061904761916
442.069,245.98119047619062
444.802,210.25980952380962
447.533,195.64261904761915
450.262,196.27304761904773
452.989,228.53323809523826
455.714,284.9014285714287
458.438,293.4756666666668
461.159,252.68804761904775
463.878,197.59014285714292
466.595,137.42485714285723
469.31,112.91145714285724
472.024,113.91281428571433
474.735,114.29205714285722
477.444,99.770280952381
480.152,112.02058095238104
482.857,145.05057619047628
485.561,160.1059333333334
488.262,155.051761904762
490.962,158.46800000000007
493.659,134.600761904762
496.355,126.17304761904771
499.048,120.57471428571434
501.74,134.19557142857155
504.43,125.14019047619055
507.118,172.32271428571443
509.804,181.037761904762
512.488,182.29485714285727
515.17,197.57952380952395
517.85,222.75839047619058
520.528,176.6978904761906
523.204,174.35976190476194
525.878,103.56275714285718
528.551,102.6969142857144
531.221,100.77136666666671
533.89,114.46213333333338
536.556,101.06336666666671
539.221,108.53632380952388
541.883,86.03223809523817
544.544,129.84491428571434
547.203,127.55422857142865
549.86,122.7871952380953
552.515,112.4085952380953
555.168,100.66399523809531
557.819,110.94149523809536
560.469,153.3430809523811
563.116,217.35175238095252
565.761,209.11671904761914
568.405,196.16800952380964
571.047,169.79680476190487
573.687,147.96110476190483
576.324,139.1895761904763
578.96,179.86821904761916
581.594,165.9062380952382
584.227,172.64080952380965
586.857,171.7422857142858
589.485,170.11890476190487
592.112,145.48790476190484
594.737,146.85214285714295
597.359,123.88047619047626
599.98,138.66990476190483
602.599,134.3650476190477
605.216,156.0624095238096
607.831,139.95316190476197
610.445,119.5139666666667
613.056,71.88784761904766
615.666,80.50318571428576
618.274,64.78815714285719
620.88,71.31349047619054
623.484,95.41093809523818
626.086,127.31726666666677
628.686,179.8875190476192
631.284,251.78644761904775
633.881,265.44009523809535
636.476,245.0364761904763
639.068,209.71485714285726
641.659,197.0436666666668
644.249,187.73319047619057
646.836,176.68461904761912
649.421,164.2746571428572
652.005,124.59447809523814
654.587,75.1631323809524
657.166,38.8808819047619
659.745,11.980716190476214
662.321,11.648030476190513
664.895,32.25853428571431
667.468,34.18791333333335
670.038,45.7640304761905
672.607,25.60039523809527
675.174,69.88167142857151
677.739,97.98319047619054
680.303,118.56600000000006
682.864,112.86220952380958
685.424,98.00876190476193
687.982,52.71401904761908
690.538,50.30518095238097
693.092,32.58601904761908
695.645,45.83643695238099
698.195,47.95518790476192
700.744,35.50787961904763
703.291,21.012566380952375
705.836,-9.72692895238096
708.38,-15.954311142857126
710.921,6.039243619047638
713.461,28.62930952380956
715.999,45.763049523809556
718.535,68.43538095238098
721.069,65.02232380952385
723.602,62.042871428571466
726.133,77.63505238095243
728.662,73.69920952380956
731.189,65.89756190476197
733.714,89.17811428571434
736.238,108.25113809523816
738.759,100.16005238095245
741.279,120.37712857142863
743.798,93.42242857142861
746.314,81.05396190476198
748.829,81.79209523809529
751.342,83.96691428571434
753.853,88.62256190476198
756.362,106.70856666666673
758.869,96.17414285714293
761.375,90.6830047619048
763.879,87.47071428571434
766.381,81.4869714285715
768.882,96.9674095238096
771.38,108.71928095238098
773.877,81.88328095238099
776.372,50.647923809523846
778.866,47.34483333333337
781.357,56.87693809523817
783.847,101.57609047619056
786.335,123.25048571428576
788.821,121.13682857142865
791.306,124.47234761904771
793.789,139.30392380952392
796.27,161.15422380952393
798.749,208.355961904762
801.227,218.05152380952393
803.702,240.66880952380967
806.176,234.49385714285725
808.649,241.812142857143
811.119,237.57585714285727
813.588,251.40433333333348
816.055,225.82161904761915
818.521,203.3990476190477
820.984,163.09009523809533
823.446,161.75197142857155
825.906,151.90942380952387
828.365,144.84910952380957
830.821,124.66719523809529
833.276,104.60244285714293
835.729,110.98956666666676
838.181,123.97256666666674
840.631,127.88623809523816
843.079,131.68417142857152
845.525,132.1296952380953
847.97,112.46239047619055
850.412,105.92182857142863
852.854,111.55777142857151
855.293,114.80060000000009
857.731,129.7949333333334
860.167,138.68547619047624
862.601,112.37888095238101
865.034,102.06766666666675
867.465,122.13505238095244
869.894,109.58326666666674
872.321,87.55741428571434
874.747,93.96459047619052
877.171,98.61667619047628
879.594,123.99198095238104
882.014,155.3789333333334
884.433,156.7800000000001
886.851,142.34033333333343
889.266,149.44366666666676
891.68,168.8546666666668
894.092,181.6232380952382
896.503,173.03804761904772
898.912,152.72066666666674
901.319,123.53071428571438
903.724,128.32838095238105
906.128,160.9262380952382
908.53,173.75523809523816
910.931,174.19919047619058
913.329,184.54638095238104
915.726,159.56161904761913
918.122,159.20028571428583
920.516,152.6080952380953
922.908,135.1684761904763
925.298,157.9321904761906
927.687,179.3304095238096
930.074,147.699361904762
932.459,141.2797238095239
934.843,119.74092380952389
937.225,111.6096238095239
939.605,117.50771428571434
941.984,123.62842380952388
944.361,121.92668571428581
946.736,118.07162857142863
949.11,99.58976666666672
951.482,86.4360428571429
953.853,64.70833809523816
956.222,77.50450952380959
958.589,108.68405142857148
960.954,81.53512523809526
963.318,68.01249809523814
965.68,54.07076523809526
968.041,45.99801238095242
970.4,34.84406333333336
972.757,61.23006571428574
975.113,44.729604761904774
977.467,43.82092095238097
979.819,16.363092380952384
982.17,19.834189523809542
984.519,22.950307619047656
986.866,40.57026571428574
989.212,60.21967333333338
991.556,79.85240190476196
993.899,101.56537619047629
996.24,148.93138095238106
998.579,180.47548571428578
1000.92,144.96104761904766
1003.25,119.57990000000005
1005.59,72.80932380952385
1007.92,69.17458571428578
1010.25,80.96217619047624
1012.58,105.0777952380953
1014.91,100.85573809523817
1017.24,118.8682476190477
1019.56,139.9735285714287
1021.88,183.36274285714296
1024.2,202.13157142857156
1026.52,208.0905714285715
1028.84,172.5255714285715
1031.16,150.0562380952382
1033.48,160.39757142857155
1035.79,179.5971904761906
1038.1,218.512523809524
1040.41,257.1918095238097
1042.72,276.8731428571431
1045.03,278.747142857143
1047.33,265.81380952380965
1049.64,227.8826190476192
1051.94,184.42957142857153
1054.24,161.88342857142868
1056.54,174.86304761904773
1058.84,172.0347142857144
1061.13,188.15995238095252
1063.43,194.2385714285715
1065.72,169.5557142857144
1068.01,184.01600000000013
1070.3,229.99976190476204
1072.59,246.41123809523822
1074.87,263.34476190476204
1077.16,254.41857142857157
1079.44,238.7750476190478
1081.72,261.36580952380973
1084.0,317.4281428571431
1086.28,368.15157142857174
1088.56,472.58252380952416
1090.84,586.2437142857146
1093.11,699.9440952380957
1095.38,746.4919523809527
1097.65,688.9812380952384
1099.92,562.2202380952383
1102.19,460.96942857142886
1104.46,380.70357142857165
1106.72,364.1358095238098
1108.98,375.02671428571455
1111.24,387.3747142857145
1113.5,430.5593333333336
1115.76,491.1503333333337
1118.02,514.8601428571432
1120.28,524.2587142857145
1122.53,494.43938095238116
1124.78,435.8291428571431
1127.03,396.9499523809526
1129.28,357.37123809523825
1131.53,320.75795238095253
1133.77,287.0129047619049
1136.02,256.2290476190478
1138.26,226.30947619047632
1140.5,228.91852380952398
1142.74,217.4823809523811
1144.98,221.0466666666668
1147.22,244.46623809523828
1149.45,254.88166666666683
1151.69,254.8146666666668
1153.92,257.21514285714295
1156.15,214.84242857142866
1158.38,171.4085238095239
1160.61,148.48238095238105
1162.83,139.34705714285724
1165.06,133.0475714285715
1167.28,128.39069523809528
1169.5,90.32612380952384
1171.72,65.75614761904764
1173.94,38.154171428571466
1176.16,49.99356190476194
1178.37,66.7952571428572
1180.58,70.84214761904765
1182.8,66.55990952380955
1185.01,44.802800000000005
1187.22,23.71083809523812
1189.42,23.7097285714286
1191.63,35.93951904761907
1193.84,37.7308285714286
1196.04,55.22380952380954
1198.24,51.511109523809566
1200.44,65.92360476190481
1202.64,59.41130476190478
1204.84,56.01958571428575
1207.03,43.317838095238116
1209.23,48.827938095238146
1211.42,67.5957428571429
1213.61,56.81019047619046
1215.8,21.660357142857155
1217.99,3.3355904761904736
1220.18,-7.307890476190453
1222.36,11.729180952380995
1224.55,52.63673809523814
1226.73,76.84325238095244
1228.91,107.06253809523815
1231.09,106.43775714285718
1233.27,119.63577619047625
1235.44,105.75230476190481
1237.62,89.54982380952387
1239.79,83.41028095238102
1241.96,85.42933809523814
1244.13,77.37038571428577
1246.3,83.99650952380958
1248.47,91.30928571428579
1250.64,117.64342857142866
1252.8,150.9530142857144
1254.96,175.95413333333346
1257.13,196.45819047619062
1259.29,203.61023809523823
1261.44,236.698142857143
1263.6,236.2956190476192
1265.76,217.73866666666675
1267.91,186.60138095238105
1270.06,159.07642857142866
1272.22,145.2620000000001
1274.37,181.35109523809535
1276.51,194.25166666666678
1278.66,178.20502380952388
1280.81,160.35719047619054
1282.95,143.28240476190484
1285.09,121.7935238095239
1287.23,146.79854761904772
1289.37,168.7770476190477
1291.51,171.73247619047626
1293.65,158.62059047619056
1295.78,136.25440000000006
1297.92,116.58996190476198
1300.05,102.24992857142863
1302.18,105.19036190476201
1304.31,127.22445238095244
1306.44,143.8317714285715
1308.57,156.30175714285724
1310.69,194.20949523809534
1312.82,193.22557142857156
1314.94,236.92500000000018
1317.06,273.6450476190478
1319.18,297.53219047619064
1321.3,285.92328571428584
1323.41,276.7744285714287
1325.53,288.23223809523836
1327.64,342.2523333333336
1329.75,370.7911428571431
1331.87,400.28057142857165
1333.98,374.5336666666669
1336.08,337.03038095238117
1338.19,331.4880952380954
1340.3,307.910142857143
1342.4,266.9669047619049
1344.5,231.8995238095239
1346.6,195.42533333333347
1348.7,170.59514285714295
1350.8,167.74519047619057
1352.9,149.92614285714293
1354.99,149.80785714285722
1357.09,134.29776190476196
1359.18,141.3982857142858
1361.27,147.01657142857152
1363.36,173.20285714285725
1365.45,178.53114285714298
1367.54,208.67033333333347
1369.62,224.2416190476192
1371.7,274.7707619047621
1373.79,320.02142857142877
1375.87,343.042904761905
1377.95,335.45609523809543
1380.03,329.59547619047635
1382.1,291.4147619047621
1384.18,278.29614285714297
1386.25,240.81209523809534
1388.33,183.72538095238104
1390.4,156.0844857142858
1392.47,121.41346190476197
1394.54,89.37920952380959
1396.6,89.79145238095244
1398.67,79.50720952380958
1400.74,67.19294761904769
1402.8,96.9912190476191
1404.86,106.75836190476197
1406.92,116.87464285714293
1408.98,114.43429523809527
1411.04,110.67445238095243
1413.09,86.83183809523815
1415.15,90.6668333333334
1417.2,105.08247619047626
1419.25,114.93452857142863
1421.3,98.4115571428572
1423.35,94.7498428571429
1425.4,84.89955238095243
1427.45,71.76307619047623
1429.49,61.43329523809526
1431.54,64.09845904761909
1433.58,47.61312333333336
1435.62,36.21271333333336
1437.66,51.46612428571432
1439.7,52.037094285714325
1441.74,58.017990000000054
1443.77,78.21542095238098
1445.81,80.29306380952386
1447.84,47.39075190476193
1449.87,48.17198952380956
1451.9,51.39571476190481
1453.93,82.15396571428579
1455.96,101.72933285714292
1457.98,125.88034952380958
1460.01,103.88961904761912
1462.03,119.18233333333342
1464.05,156.51752380952394
1466.07,192.74914285714297
1468.09,230.96923809523824
1470.11,257.9360952380954
1472.13,253.83728571428588
1474.14,272.47885714285735
1476.16,295.90552380952397
1478.17,267.5903809523811
1480.18,259.6730761904763
1482.19,207.0076476190477
1484.2,155.11505714285727
1486.21,132.03977142857153
1488.21,130.58850476190483
1490.22,105.04388095238102
1492.22,95.16492380952384
1494.22,70.99654285714288
1496.22,53.01214285714289
1498.22,42.35200000000003
1500.22,49.96577142857145
1502.22,45.041396190476206
1504.21,31.14784142857145
1506.21,39.99700190476193
1508.2,19.634206190476196
1510.19,19.104825714285745
1512.18,27.359122380952396
1514.17,38.06175809523812
1516.16,45.40123809523813
1518.14,58.661457142857174
1520.13,55.60262380952386
1522.11,72.74690952380956
1524.09,89.3783952380953
1526.07,98.6862333333334
1528.05,100.76427142857148
1530.03,66.42078333333336
1532.01,45.55935714285717
1533.98,41.65511666666671
1535.96,49.27833809523813
1537.93,58.999616666666725
1539.9,87.24662380952387
1541.87,87.25673809523815
1543.84,94.50527619047625
1545.81,105.4203952380953
1547.78,106.47755238095246
1549.74,101.24789047619055
1551.7,133.6354380952382
1553.67,148.78295238095245
1555.63,175.40428571428583
1557.59,181.07061904761915
1559.55,169.59114285714296
1561.5,138.20423809523817
1563.46,145.95714285714294
1565.41,133.5169523809525
1567.37,156.93104761904772
1569.32,172.1042380952382
1571.27,180.27485714285723
1573.22,173.30019047619058
1575.17,172.9425238095239
1577.11,149.0118095238096
1579.06,131.9843333333334
1581.0,143.81333333333345
1582.95,164.3085238095239
1584.89,186.3752857142858
1586.83,191.20466666666675
1588.77,196.2732380952382
1590.7,180.057761904762
1592.64,187.6545238095239
1594.58,192.77826190476185
1596.51,182.28733333333324
1598.44,144.34940476190457
