Raman Shift,Processed Intensity
331.095,4.495497738095114
333.909,-24.67642095238101
336.721,-31.446971666666723
339.531,-26.203058571428585
342.339,-36.64161642857143
345.145,-23.363629047619057
347.949,12.10323785714288
350.751,6.756393809523802
353.55,-8.59524285714287
356.348,17.858466666666672
359.144,-4.546642857142851
361.937,19.71710476190483
364.729,97.13180952380958
367.518,113.99020952380961
370.306,145.3016571428573
373.091,246.8859904761906
375.874,319.8509523809526
378.656,371.9242380952383
381.435,359.2169523809525
384.212,285.7459714285715
386.988,190.00633333333343
389.761,126.54190952380961
392.532,78.42212857142857
395.301,43.95570000000003
398.068,23.881914285714302
400.833,9.179457142857142
403.596,2.3048380952381002
406.358,0.33510952380950987
409.117,-5.127347619047607
411.874,-9.431046666666678
414.629,-12.637310952380961
417.382,-12.615521904761891
420.133,4.3376966666667
422.882,37.49865904761913
425.629,102.6209080952382
428.374,188.60261047619065
431.117,281.05684761904786
433.858,312.883923809524
436.597,287.6044761904763
439.334,233.4064285714287
442.069,199.288142857143
444.802,192.82080952380966
447.533,199.6239047619049
450.262,195.2701904761906
452.989,211.66680952380966
455.714,236.81642857142873
458.438,247.34166666666673
461.159,220.1040952380953
463.878,159.96595238095244
466.595,123.88514285714294
469.31,131.48683809523817
472.024,143.01557619047628
474.735,144.33570476190485
477.444,120.9786428571429
480.152,97.66659047619055
482.857,94.83678571428581
485.561,134.92641904761916
488.262,179.27764761904774
490.962,202.47131428571436
493.659,182.3740476190477
496.355,151.37676190476196
499.048,118.82290476190484
501.74,104.1508571428572
504.43,114.65680952380961
507.118,122.06514285714294
509.804,151.7671904761906
512.488,181.8686666666668
515.17,227.57033333333348
517.85,238.02528571428584
520.528,226.0061904761906
523.204,193.04700000000008
525.878,167.44371428571438
528.551,159.11133333333345
531.221,174.86917142857152
533.89,157.20310000000006
536.556,156.5991142857144
539.221,132.30452857142865
541.883,130.61426666666674
544.544,146.06129047619058
547.203,152.13050476190483
549.86,115.16373809523816
552.515,126.74070476190485
555.168,115.82183333333343
557.819,141.4144761904763
560.469,185.8118142857144
563.116,184.78273333333343
565.761,162.23857142857153
568.405,171.23304761904768
571.047,153.2965238095239
573.687,152.0532857142858
576.324,156.03233333333338
578.96,153.0005238095239
581.594,167.8190761904763
584.227,159.30152857142863
586.857,147.59458095238102
589.485,152.8919476190477
592.112,143.81529523809533
594.737,142.89120000000008
597.359,126.59760476190479
599.98,100.65055714285722
602.599,99.52732857142867
605.216,157.1806523809525
607.831,180.8490523809525
610.445,182.6278380952382
613.056,140.08780952380957
615.666,130.08550476190484
618.274,101.09562380952389
620.88,121.54486666666676
623.484,145.28818571428585
626.086,205.5613904761906
628.686,250.45652857142872
631.284,296.54212380952396
633.881,305.95719047619065
636.476,263.7454285714287
639.068,227.7596666666668
641.659,210.94752380952394
644.249,179.30380952380963
646.836,170.96634285714296
649.421,161.40539047619058
652.005,134.51990476190485
654.587,105.82772857142861
657.166,72.17924761904764
659.745,47.329895238095276
662.321,48.4157666666667
664.895,43.52499523809528
667.468,59.65061904761909
670.038,76.16594285714291
672.607,78.92093809523814
675.174,94.38427142857148
677.739,82.02459523809527
680.303,97.21532380952388
682.864,89.94881428571433
685.424,89.64593333333337
687.982,84.53745523809528
690.538,54.901631428571434
693.092,44.731324761904816
695.645,67.20974476190477
698.195,36.99658666666667
700.744,8.323198095238086
703.291,-15.055078095238123
705.836,-45.477819047619036
708.38,-24.56989523809521
710.921,34.04378571428577
713.461,80.45316190476197
715.999,140.272061904762
718.535,170.9246952380953
721.069,173.83473333333342
723.602,153.6645714285715
726.133,150.9818238095239
728.662,106.8776928571429
731.189,91.15801428571436
733.714,81.15308809523815
736.238,75.1450571428572
738.759,79.1308690476191
741.279,116.29869523809532
743.798,103.50284285714291
746.314,127.02655714285723
748.829,136.4867428571429
751.342,115.16706190476195
753.853,107.39880000000008
756.362,125.75190000000009
758.869,126.17710476190486
761.375,137.19677142857148
763.879,126.9050428571429
766.381,99.87235714285721
768.882,93.57384285714294
771.38,108.96124285714293
773.877,120.60541428571435
776.372,126.98216190476198
778.866,136.28170476190482
781.357,120.64682380952387
783.847,91.07729047619053
786.335,83.47822380952387
788.821,90.89729047619056
791.306,84.62060952380958
793.789,129.6965380952382
796.27,136.12550000000007
798.749,137.00342857142869
801.227,166.28378571428584
803.702,215.58652380952395
806.176,225.96052380952398
808.649,260.35933333333344
811.119,256.54609523809535
813.588,231.42680952380965
816.055,208.47933333333344
818.521,190.32433333333344
820.984,173.48766666666677
823.446,160.78033333333343
825.906,158.2518095238096
828.365,149.14219047619056
830.821,140.5008095238096
833.276,116.80614285714293
835.729,113.1557333333334
838.181,106.93285238095245
840.631,107.13976190476198
843.079,94.77903809523815
845.525,104.80525714285722
847.97,102.55434761904769
850.412,106.5524428571429
852.854,91.99280000000003
855.293,80.06854285714289
857.731,69.9251571428572
860.167,73.37510952380957
862.601,78.99244761904767
865.034,72.35147619047622
867.465,57.121719047619095
869.894,61.115366666666716
872.321,80.4783428571429
874.747,84.40409523809528
877.171,95.03836190476196
879.594,89.241280952381
882.014,77.82546190476197
884.433,100.74585238095247
886.851,153.05324761904774
889.266,184.79838571428584
891.68,204.07950476190487
894.092,199.94709523809536
896.503,172.26146666666676
898.912,144.88253809523817
901.319,129.09879047619054
903.724,124.7707476190477
906.128,128.71060000000008
908.53,137.3023000000001
910.931,157.88218095238105
913.329,167.35761904761915
915.726,148.54085714285722
918.122,138.48266666666674
920.516,146.7092857142858
922.908,149.0330000000001
925.298,158.93295238095249
927.687,173.36369523809532
930.074,142.85189047619053
932.459,97.01922857142863
934.843,99.48701428571434
937.225,92.59086190476195
939.605,93.14293809523815
941.984,99.24045238095242
944.361,98.40961714285719
946.736,66.55727428571431
949.11,61.54254380952384
951.482,54.84365428571432
953.853,63.89107238095244
956.222,76.78183619047627
958.589,107.61291238095242
960.954,94.95735238095241
963.318,79.95951904761908
965.68,76.90663809523814
968.041,81.799980952381
970.4,73.97407619047623
972.757,74.76333333333335
975.113,45.31161904761905
977.467,14.143576190476209
979.819,13.06956000000002
982.17,13.042498095238102
984.519,16.777186666666694
986.866,23.08344476190478
989.212,45.91404857142863
991.556,77.22156952380959
993.899,114.67232666666673
996.24,133.88556190476197
998.579,142.67030476190482
1000.92,115.02652380952388
1003.25,127.81095238095249
1005.59,133.16600000000008
1007.92,146.2338095238096
1010.25,155.01385714285723
1012.58,172.50500000000008
1014.91,148.6590476190477
1017.24,168.6178095238096
1019.56,154.18980952380963
1021.88,170.0406666666668
1024.2,188.45476190476205
1026.52,205.81161904761916
1028.84,196.49076190476202
1031.16,214.9196190476192
1033.48,205.8588571428573
1035.79,240.92571428571443
1038.1,282.3090952380954
1040.41,295.2930952380954
1042.72,292.63757142857156
1045.03,274.67447619047635
1047.33,239.35433333333347
1049.64,202.72285714285726
1051.94,202.25409523809537
1054.24,213.23204761904776
1056.54,225.08323809523822
1058.84,229.71038095238106
1061.13,223.25428571428586
1063.43,193.76061904761917
1065.72,200.89376190476207
1068.01,227.36600000000013
1070.3,246.22271428571446
1072.59,240.2236190476192
1074.87,246.9858095238097
1077.16,257.4590952380954
1079.44,284.78428571428594
1081.72,334.43528571428595
1084.0,414.21938095238124
1086.28,466.9440000000004
1088.56,582.74980952381
1090.84,691.9678095238099
1093.11,775.4526666666671
1095.38,793.5357142857147
1097.65,739.0719047619052
1099.92,630.2495238095241
1102.19,534.9237142857145
1104.46,453.13995238095265
1106.72,435.4670476190479
1108.98,434.8557619047622
1111.24,466.01795238095275
1113.5,492.9043333333336
1115.76,529.4173809523813
1118.02,570.8407619047622
1120.28,602.7917142857146
1122.53,591.8876190476193
1124.78,565.507285714286
1127.03,470.36376190476216
1129.28,422.9784285714288
1131.53,381.3020000000002
1133.77,347.0475714285716
1136.02,311.1180476190478
1138.26,284.84523809523824
1140.5,266.94219047619066
1142.74,277.40695238095253
1144.98,287.5243333333335
1147.22,310.9124285714287
1149.45,287.6171904761906
1151.69,283.8758095238097
1153.92,272.782523809524
1156.15,250.47919047619064
1158.38,236.34600000000015
1160.61,221.1918571428572
1162.83,182.58709523809537
1165.06,168.24585714285723
1167.28,160.35807619047628
1169.5,140.68531428571438
1171.72,142.98891428571437
1173.94,123.98325714285721
1176.16,116.71588571428578
1178.37,111.90128000000007
1180.58,92.77752190476194
1182.8,54.44017333333336
1185.01,22.270541904761902
1187.22,-2.3974104761904638
1189.42,-11.8486457142857
1191.63,20.726983809523848
1193.84,54.854256190476235
1196.04,76.5342047619048
1198.24,75.48231428571432
1200.44,73.08080000000002
1202.64,40.09291904761907
1204.84,36.80579523809527
1207.03,44.45908952380954
1209.23,32.53059666666669
1211.42,28.355393333333346
1213.61,19.316155714285713
1215.8,10.93853619047622
1217.99,35.93872047619052
1220.18,51.7471847619048
1222.36,76.17557619047625
1224.55,78.22584761904764
1226.73,85.80469523809529
1228.91,84.72390952380957
1231.09,87.84277619047624
1233.27,79.83015714285719
1235.44,90.02179047619053
1237.62,94.89588095238103
1239.79,104.454780952381
1241.96,86.98667619047623
1244.13,69.11288095238099
1246.3,52.88356190476195
1248.47,78.443961904762
1250.64,129.08182857142867
1252.8,158.75231428571436
1254.96,173.02929523809533
1257.13,167.9629047619049
1259.29,156.5557142857144
1261.44,179.5719523809525
1263.6,201.4901904761906
1265.76,198.88461904761914
1267.91,192.90076190476196
1270.06,159.30314285714294
1272.22,148.52285714285725
1274.37,156.51466666666676
1276.51,165.13835238095248
1278.66,140.39620952380957
1280.81,124.33856190476196
1282.95,100.20579047619056
1285.09,107.23887619047628
1287.23,119.39269047619054
1289.37,133.19346666666672
1291.51,103.07227142857144
1293.65,77.65072380952385
1295.78,68.21676666666671
1297.92,89.10622857142864
1300.05,97.89308571428577
1302.18,115.10326666666673
1304.31,111.54881904761912
1306.44,113.37499047619056
1308.57,128.0604000000001
1310.69,144.60673333333338
1312.82,148.4930000000001
1314.94,165.57814285714295
1317.06,180.5309523809525
1319.18,201.16333333333347
1321.3,224.38223809523822
1323.41,218.33200000000014
1325.53,252.82461904761925
1327.64,293.7189047619049
1329.75,333.9216190476193
1331.87,342.2918095238098
1333.98,359.7357142857145
1336.08,332.49328571428583
1338.19,314.8517142857144
1340.3,278.09852380952395
1342.4,255.28309523809534
1344.5,203.16857142857154
1346.6,176.9942380952382
1348.7,142.52361904761912
1350.8,153.85276190476202
1352.9,159.17385714285726
1354.99,172.10690476190487
1357.09,174.12923809523818
1359.18,151.7178571428572
1361.27,141.73080952380965
1363.36,173.45457142857157
1365.45,216.22319047619067
1367.54,219.32290476190488
1369.62,211.9925238095239
1371.7,221.8038095238097
1373.79,248.09061904761924
1375.87,280.3294761904764
1377.95,331.5204285714288
1380.03,311.3300476190477
1382.1,258.80614285714296
1384.18,214.18652380952392
1386.25,191.08990476190488
1388.33,175.18285714285727
1390.4,167.27449523809534
1392.47,145.6973047619048
1394.54,119.97475714285721
1396.6,92.48680952380958
1398.67,88.4705952380953
1400.74,61.59198095238098
1402.8,62.51627142857148
1404.86,66.76623809523815
1406.92,105.81645333333343
1408.98,101.18944857142861
1411.04,110.55016380952388
1413.09,87.84932285714292
1415.15,85.18019238095245
1417.2,90.2077057142858
1419.25,120.92948190476197
1421.3,116.48642857142865
1423.35,108.82865714285718
1425.4,96.19206190476194
1427.45,64.43146190476193
1429.49,60.782357142857194
1431.54,71.14706666666672
1433.58,89.23730952380956
1435.62,65.71718095238099
1437.66,78.10788571428576
1439.7,64.45427142857147
1441.74,64.22963809523814
1443.77,66.52661904761909
1445.81,70.29477142857147
1447.84,51.38841428571432
1449.87,67.70954761904767
1451.9,73.11246190476196
1453.93,91.5467952380953
1455.96,107.19989047619053
1457.98,113.8309571428572
1460.01,108.3896190476191
1462.03,141.01580952380965
1464.05,166.94495238095251
1466.07,216.317142857143
1468.09,268.5105714285716
1470.11,282.2844761904763
1472.13,287.7315714285716
1474.14,293.7540476190478
1476.16,280.1588571428573
1478.17,255.27671428571438
1480.18,237.10533333333348
1482.19,194.40419047619056
1484.2,172.83766666666676
1486.21,152.07038095238107
1488.21,160.00506666666678
1490.22,148.78256190476196
1492.22,108.21049523809528
1494.22,61.049038095238124
1496.22,37.05826666666669
1498.22,15.712771428571457
1500.22,38.106460952380985
1502.22,44.33324428571429
1504.21,29.868093333333352
1506.21,28.42418333333335
1508.2,29.762506666666674
1510.19,9.644090000000013
1512.18,27.734923809523824
1514.17,16.605831428571427
1516.16,12.92294190476192
1518.14,25.59067047619049
1520.13,26.989728571428582
1522.11,21.977114285714315
1524.09,49.50517047619051
1526.07,39.3834823809524
1528.05,39.469283809523844
1530.03,55.66756523809528
1532.01,72.40714476190482
1533.98,70.6883385714286
1535.96,61.94008285714287
1537.93,46.01990095238098
1539.9,41.975840952381
1541.87,63.85597047619053
1543.84,74.08930380952383
1545.81,62.24775714285718
1547.78,74.23651428571435
1549.74,83.1036952380953
1551.7,96.04038095238101
1553.67,121.52310952380958
1555.63,111.50459047619053
1557.59,119.22357619047628
1559.55,138.4421714285715
1561.5,118.92270476190484
1563.46,128.38003809523818
1565.41,119.90973809523815
1567.37,115.46451428571437
1569.32,124.04503333333341
1571.27,111.50868571428578
1573.22,106.47474761904769
1575.17,122.41972380952387
1577.11,112.77290476190483
1579.06,117.96285714285722
1581.0,138.89494285714295
1582.95,136.95041904761914
1584.89,146.08193333333338
1586.83,133.28986666666674
1588.77,144.81250476190488
1590.7,151.5548476190477
1592.64,171.4698000000001
1594.58,163.22422857142857
1596.51,142.91384285714295
1598.44,113.5390428571432
