Raman Shift,Processed Intensity
331.095,13.626776190475953
333.909,-24.835926190476407
336.721,-19.83266190476205
339.531,3.24718571428572
342.339,-3.4624000000000175
345.145,-9.541080952380955
347.949,-0.7098380952380907
350.751,-17.06926857142858
353.55,-17.24236380952381
356.348,11.292210476190476
359.144,-17.84745523809524
361.937,-2.9463704761904452
364.729,28.378693333333345
367.518,44.41739809523817
370.306,102.03240952380966
373.091,209.99302380952398
375.874,283.73666190476206
378.656,340.9883333333335
381.435,317.09364666666676
384.212,222.20942666666673
386.988,117.87506142857144
389.761,15.060318095238104
392.532,-33.8825319047619
395.301,-32.17081238095238
398.068,-29.02024714285715
400.833,-13.787672380952372
403.596,-2.5902047619047757
406.358,5.218633333333345
409.117,0.5726238095238134
411.874,6.59759523809525
414.629,28.135319047619088
417.382,53.88601428571431
420.133,43.59901428571432
422.882,49.168023809523845
425.629,84.67850476190486
428.374,145.50260952380967
431.117,227.25247619047636
433.858,275.0647047619049
436.597,265.5534761904763
439.334,238.4289047619049
442.069,245.49780952380968
444.802,231.66261904761922
447.533,215.68461904761918
450.262,204.42085714285724
452.989,202.2530952380954
455.714,244.5158095238097
458.438,251.30671428571438
461.159,222.05714285714294
463.878,186.7708476190477
466.595,132.73787142857148
469.31,109.77239047619057
472.024,118.59420476190482
474.735,115.87575238095246
477.444,101.38541428571435
480.152,125.84438095238104
482.857,139.68845714285723
485.561,156.92507619047632
488.262,157.80004761904775
490.962,181.3217238095239
493.659,143.30810476190481
496.355,135.1014476190477
499.048,125.94884761904768
501.74,115.04978095238104
504.43,111.55610476190486
507.118,154.3346285714287
509.804,169.25176190476205
512.488,197.0793809523811
515.17,220.73152380952394
517.85,232.21804761904775
520.528,200.9294761904763
523.204,177.6844761904763
525.878,154.25466666666676
528.551,139.982761904762
531.221,143.40185714285724
533.89,153.23566666666673
536.556,143.68361904761912
539.221,136.75438095238104
541.883,145.45676190476198
544.544,155.8944000000001
547.203,146.50430476190485
549.86,115.62784761904769
552.515,122.08245714285724
555.168,144.7328000000001
557.819,163.10978095238107
560.469,187.74454285714296
563.116,202.31038095238105
565.761,173.09947619047628
568.405,168.78466666666677
571.047,164.18095238095245
573.687,147.76990476190485
576.324,143.22361904761917
578.96,168.92757142857153
581.594,177.552761904762
584.227,193.15109523809534
586.857,203.01157142857156
589.485,205.5662857142858
592.112,184.29447619047627
594.737,171.3889523809525
597.359,178.80409523809536
599.98,171.5417142857144
602.599,168.79385714285726
605.216,172.65667619047628
607.831,135.6072000000001
610.445,129.83600952380962
613.056,135.81919047619056
615.666,104.88959047619055
618.274,83.28500952380958
620.88,102.33711428571436
623.484,103.99698095238107
626.086,181.50058095238109
628.686,257.1794476190478
631.284,308.60252380952403
633.881,305.2434761904763
636.476,296.8131904761906
639.068,235.4989047619049
641.659,199.53485714285725
644.249,180.393761904762
646.836,186.73820952380964
649.421,152.039880952381
652.005,133.7227371428572
654.587,81.40118952380955
657.166,36.403579047619075
659.745,10.058477142857154
662.321,3.979826666666671
664.895,-2.2663676190475925
667.468,26.505099047619083
670.038,53.003108571428605
672.607,61.079402380952395
675.174,40.44279666666667
677.739,32.37360523809526
680.303,18.771099523809536
682.864,9.29651761904763
685.424,13.753988095238096
687.982,13.233426666666677
690.538,4.25335190476192
693.092,19.760960952380962
695.645,16.274910000000002
698.195,17.266373333333355
700.744,17.254150000000017
703.291,30.32856476190478
705.836,26.484806666666678
708.38,29.337134285714306
710.921,23.357112380952408
713.461,43.77819809523813
715.999,55.500652380952424
718.535,77.90095238095242
721.069,83.68907619047623
723.602,74.62260000000003
726.133,55.41169047619051
728.662,55.14745714285718
731.189,52.20691904761909
733.714,64.87187619047623
736.238,79.66239523809529
738.759,84.38432857142863
741.279,77.2246428571429
743.798,61.989400000000025
746.314,60.72309523809528
748.829,50.850938095238135
751.342,69.37005714285719
753.853,58.75365714285716
756.362,58.61810819047623
758.869,38.294192476190496
761.375,31.874946857142874
763.879,26.357985619047657
766.381,43.36050400000001
768.882,35.11854961904767
771.38,69.82112247619052
773.877,81.895080952381
776.372,72.33904761904765
778.866,71.38987142857147
781.357,46.09405714285717
783.847,44.16511428571434
786.335,71.74500952380959
788.821,81.21410952380958
791.306,85.90512857142863
793.789,93.67487619047624
796.27,106.6184000000001
798.749,147.35472380952393
801.227,186.55048571428583
803.702,219.11066666666682
806.176,220.65457142857156
808.649,215.5633809523811
811.119,230.98047619047628
813.588,235.0491904761906
816.055,207.8654761904763
818.521,197.23963809523818
820.984,140.98242380952388
823.446,120.23754285714296
825.906,117.91096190476198
828.365,122.00400000000008
830.821,114.27941904761911
833.276,133.54826666666676
835.729,135.19312857142867
838.181,137.167680952381
840.631,117.80692380952387
843.079,89.68415238095243
845.525,67.6578952380953
847.97,77.30179047619055
850.412,89.80812380952386
852.854,92.51200952380958
855.293,79.98690952380956
857.731,69.52058571428576
860.167,69.35318095238101
862.601,80.5346952380953
865.034,78.01949047619051
867.465,72.80988571428574
869.894,62.33668571428574
872.321,42.22125714285716
874.747,33.13261904761907
877.171,43.21592380952385
879.594,57.9499571428572
882.014,75.05112857142863
884.433,111.37905238095246
886.851,132.1745476190477
889.266,161.01133333333343
891.68,186.70142857142866
894.092,190.43800000000007
896.503,167.6040476190477
898.912,138.29728571428578
901.319,115.0920476190477
903.724,120.70471428571437
906.128,135.51885714285723
908.53,135.77533333333344
910.931,152.76195238095247
913.329,146.05247619047626
915.726,145.4590476190477
918.122,158.983761904762
920.516,162.67690476190486
922.908,148.73138095238104
925.298,146.10157142857153
927.687,166.07540000000012
930.074,153.2265190476191
932.459,148.652380952381
934.843,129.49806190476195
937.225,116.38446666666674
939.605,85.78991904761912
941.984,107.38300952380959
944.361,100.45134380952388
946.736,90.13973666666672
949.11,64.44983047619051
951.482,46.52611095238096
953.853,29.179844761904803
956.222,41.03163666666672
958.589,75.27337714285719
960.954,82.81125714285719
963.318,87.837080952381
965.68,76.1616285714286
968.041,77.50031619047623
970.4,57.56856619047622
972.757,54.84354571428574
975.113,31.945261428571445
977.467,38.160320952380985
979.819,21.060895714285724
982.17,39.21921904761908
984.519,40.87390857142859
986.866,45.21603238095241
989.212,46.15082380952384
991.556,63.86930952380957
993.899,74.41928571428579
996.24,116.42051904761911
998.579,131.82544285714292
1000.92,129.87240000000006
1003.25,122.79952857142862
1005.59,114.0357714285715
1007.92,98.10477619047624
1010.25,94.10208571428576
1012.58,84.3608190476191
1014.91,69.261880952381
1017.24,106.66199047619057
1019.56,141.2281000000001
1021.88,149.24536190476204
1024.2,146.85662380952388
1026.52,135.39490476190483
1028.84,102.43138095238106
1031.16,130.2510476190477
1033.48,164.52023809523826
1035.79,207.85728571428587
1038.1,253.2620476190478
1040.41,286.54357142857157
1042.72,283.9868095238097
1045.03,286.6388095238097
1047.33,285.4989047619049
1049.64,252.1854285714287
1051.94,232.17395238095253
1054.24,199.08280952380966
1056.54,176.95861904761918
1058.84,175.37209523809534
1061.13,174.03690476190485
1063.43,167.1901904761906
1065.72,170.8785238095239
1068.01,188.72004761904773
1070.3,210.571142857143
1072.59,210.04980952380964
1074.87,199.96447619047632
1077.16,208.12404761904776
1079.44,212.7175714285716
1081.72,257.79161904761924
1084.0,324.05980952380975
1086.28,395.8545238095241
1088.56,485.8407619047623
1090.84,610.541666666667
1093.11,703.0988095238099
1095.38,724.415666666667
1097.65,692.1103333333335
1099.92,602.3248095238098
1102.19,511.24823809523843
1104.46,447.49828571428594
1106.72,414.12157142857166
1108.98,392.6407142857146
1111.24,395.00690476190505
1113.5,440.9808571428575
1115.76,532.6091904761909
1118.02,564.7951904761908
1120.28,547.9189047619051
1122.53,536.6458095238098
1124.78,473.87947619047645
1127.03,430.6660952380955
1129.28,409.6234761904764
1131.53,375.84600000000023
1133.77,312.90395238095255
1136.02,295.22466666666685
1138.26,271.7591904761906
1140.5,243.55433333333346
1142.74,224.18004761904774
1144.98,231.96890476190492
1147.22,252.15776190476208
1149.45,275.36447619047635
1151.69,266.6356190476192
1153.92,236.6369523809525
1156.15,189.22452380952387
1158.38,149.34952380952393
1160.61,156.82052380952393
1162.83,173.8269523809525
1165.06,162.3204000000001
1167.28,151.4426571428572
1169.5,104.76443809523812
1171.72,72.33217619047623
1173.94,55.430880952381
1176.16,60.059680952381
1178.37,72.83670952380956
1180.58,70.23744761904764
1182.8,56.737300952380984
1185.01,41.90694761904762
1187.22,19.317136666666674
1189.42,8.96718761904763
1191.63,16.90404904761906
1193.84,17.079501428571447
1196.04,17.493000952380964
1198.24,31.71540809523812
1200.44,38.936706190476215
1202.64,38.585007142857165
1204.84,30.56460428571429
1207.03,30.6846462857143
1209.23,11.516217714285737
1211.42,24.297127809523833
1213.61,31.64622514285715
1215.8,23.944322095238093
1217.99,-0.5705318095238106
1220.18,-3.7554184761904783
1222.36,-1.705395238095221
1224.55,18.5798285714286
1226.73,30.481614285714308
1228.91,52.81001904761909
1231.09,75.08956666666671
1233.27,85.41616190476196
1235.44,91.9811428571429
1237.62,79.92837619047621
1239.79,53.73513333333338
1241.96,62.73601428571435
1244.13,75.21802857142862
1246.3,82.37313333333339
1248.47,117.25017142857152
1250.64,144.46986666666677
1252.8,170.36734285714294
1254.96,184.51562857142864
1257.13,168.1068095238096
1259.29,160.52423809523822
1261.44,185.43623809523822
1263.6,208.4639047619049
1265.76,215.94295238095253
1267.91,213.06571428571442
1270.06,181.5484761904763
1272.22,162.0130476190477
1274.37,123.46169047619055
1276.51,110.13463809523817
1278.66,94.55854285714292
1280.81,98.06908095238101
1282.95,84.28771428571434
1285.09,93.26484285714291
1287.23,82.09814761904768
1289.37,103.83786190476197
1291.51,96.05815714285718
1293.65,86.7140285714286
1295.78,50.95104285714288
1297.92,38.96247142857146
1300.05,52.37022380952388
1302.18,88.5103571428572
1304.31,116.76651428571438
1306.44,151.665280952381
1308.57,140.97131428571436
1310.69,142.87790476190486
1312.82,161.24533333333343
1314.94,195.02866666666682
1317.06,230.0399047619049
1319.18,257.6152380952382
1321.3,250.85247619047635
1323.41,249.51652380952396
1325.53,246.41966666666684
1327.64,285.2790000000002
1329.75,328.09690476190497
1331.87,361.25690476190493
1333.98,364.42828571428583
1336.08,344.6137619047621
1338.19,297.7203333333335
1340.3,266.4649523809525
1342.4,235.13604761904773
1344.5,189.97366666666673
1346.6,171.78993333333344
1348.7,152.01555238095244
1350.8,139.31933333333342
1352.9,119.98917619047624
1354.99,111.12268571428577
1357.09,88.81673333333339
1359.18,102.69249523809532
1361.27,111.18043809523817
1363.36,152.28228571428582
1365.45,174.3805285714287
1367.54,195.7627904761906
1369.62,209.1921904761906
1371.7,222.2896190476192
1373.79,241.34195238095253
1375.87,264.06471428571444
1377.95,283.8399523809525
1380.03,270.8117142857144
1382.1,253.79038095238107
1384.18,220.49128571428582
1386.25,185.43871428571438
1388.33,146.77614285714293
1390.4,135.64701904761912
1392.47,120.90885238095244
1394.54,106.99050476190482
1396.6,97.844380952381
1398.67,71.75613333333337
1400.74,45.43981428571431
1402.8,45.22860000000004
1404.86,59.40775238095243
1406.92,71.92907619047625
1408.98,73.12520000000004
1411.04,75.80479047619053
1413.09,66.109680952381
1415.15,65.99110952380957
1417.2,83.01931904761909
1419.25,99.24046190476196
1421.3,111.79586666666674
1423.35,120.58872380952387
1425.4,109.61723333333339
1427.45,80.07000952380956
1429.49,61.5166047619048
1431.54,54.05001428571434
1433.58,76.62040476190481
1435.62,70.3683666666667
1437.66,72.291480952381
1439.7,65.53005238095241
1441.74,71.79578571428577
1443.77,61.27637619047623
1445.81,70.96902380952385
1447.84,60.394676190476225
1449.87,57.64556190476195
1451.9,59.14716190476195
1453.93,67.22965714285718
1455.96,75.60422380952389
1457.98,107.88640952380959
1460.01,119.88244285714296
1462.03,164.63661904761915
1464.05,183.38352380952392
1466.07,187.8339047619049
1468.09,231.98461904761922
1470.11,273.6890000000002
1472.13,294.419523809524
1474.14,326.9825714285716
1476.16,328.75528571428583
1478.17,308.4483809523811
1480.18,284.1060952380954
1482.19,260.01057142857155
1484.2,217.3008857142858
1486.21,159.25981428571438
1488.21,129.12198095238102
1490.22,98.55063809523816
1492.22,86.87575428571435
1494.22,75.14175904761909
1496.22,61.821537142857174
1498.22,38.19788380952383
1500.22,36.60118000000003
1502.22,28.8379685714286
1504.21,49.81022952380955
1506.21,39.99145857142858
1508.2,37.80764095238096
1510.19,13.87534619047619
1512.18,1.3350742857142852
1514.17,-4.6725271428571284
1516.16,1.8504466666666786
1518.14,18.4258285714286
1520.13,36.24226190476191
1522.11,29.77425714285716
1524.09,35.82976942857145
1526.07,32.931145857142866
1528.05,20.029448857142878
1530.03,30.218668904761927
1532.01,40.59293933333337
1533.98,45.53221728571432
1535.96,48.94033609523811
1537.93,49.10226190476194
1539.9,44.874438095238126
1541.87,55.113428571428614
1543.84,62.19970476190479
1545.81,60.418619047619075
1547.78,67.48401904761911
1549.74,70.919680952381
1551.7,82.24931428571436
1553.67,95.5206571428572
1555.63,118.54300000000009
1557.59,136.84029523809534
1559.55,134.6985095238096
1561.5,122.11807619047627
1563.46,128.95670000000007
1565.41,138.548361904762
1567.37,160.08339523809533
1569.32,172.13403809523814
1571.27,151.2248095238096
1573.22,137.68990476190484
1575.17,146.38747619047632
1577.11,153.12780952380962
1579.06,150.8640000000001
1581.0,138.83523809523817
1582.95,131.94723809523816
1584.89,121.82038095238103
1586.83,119.88442857142864
1588.77,119.66414285714293
1590.7,129.1608095238096
1592.64,135.94738095238108
1594.58,156.9059285714287
1596.51,165.75214285714287
1598.44,148.15402380952375
