Raman Shift,Processed Intensity
331.095,31.346745238095036
333.909,-52.473095238095325
336.721,-57.582402380952416
339.531,-20.19864285714284
342.339,4.103119047619055
345.145,19.272257142857136
347.949,18.83127619047619
350.751,-6.410276190476202
353.55,-21.117590476190482
356.348,-20.668847619047625
359.144,-11.10735238095237
361.937,-5.855919047619024
364.729,15.521314285714306
367.518,42.890190476190554
370.306,105.92752380952396
373.091,214.2164857142859
375.874,332.3417095238097
378.656,382.46066666666684
381.435,343.4944190476192
384.212,242.98429904761912
386.988,125.28258047619052
389.761,49.028891428571455
392.532,-3.5642966666666673
395.301,-27.759250952380956
398.068,-21.578442095238096
400.833,-7.281085666666662
403.596,-13.505809428571434
406.358,2.8245099523809465
409.117,-5.640061333333335
411.874,1.7519729047619248
414.629,16.70116076190477
417.382,23.623729333333326
420.133,-2.2056006666666668
422.882,-10.129912761904743
425.629,13.556724000000074
428.374,99.32315485714298
431.117,215.401218857143
433.858,265.0719121904763
436.597,245.99780952380965
439.334,191.74728571428582
442.069,171.03266666666678
444.802,180.61490476190494
447.533,216.6364761904763
450.262,228.71728571428582
452.989,207.85861904761913
455.714,216.3006190476192
458.438,220.0460000000001
461.159,210.81278095238105
463.878,173.7475190476191
466.595,153.95016190476196
469.31,107.33070000000006
472.024,102.94252380952389
474.735,112.41077619047627
477.444,123.74221904761912
480.152,121.84826666666675
482.857,144.2127428571429
485.561,126.46214285714292
488.262,147.55709523809537
490.962,178.21995238095246
493.659,178.45933333333346
496.355,165.90266666666673
499.048,148.5111904761905
501.74,109.15123809523817
504.43,134.16533333333345
507.118,150.08638095238106
509.804,178.49523809523822
512.488,212.44866666666678
515.17,229.47947619047633
517.85,226.21666666666678
520.528,207.43114285714293
523.204,171.3702380952382
525.878,144.9480000000001
528.551,131.8875238095239
531.221,133.2928476190477
533.89,131.22071428571434
536.556,100.72733333333339
539.221,79.44032380952386
541.883,79.12980000000005
544.544,91.75614285714295
547.203,123.80349523809534
549.86,136.80359047619055
552.515,151.52548571428582
555.168,151.35757142857153
557.819,163.92533333333344
560.469,183.61657142857155
563.116,187.24685714285724
565.761,179.6797142857144
568.405,176.82542857142863
571.047,145.92747619047626
573.687,141.609761904762
576.324,136.1153333333334
578.96,145.06709523809536
581.594,163.802761904762
584.227,163.32585714285725
586.857,162.0680000000001
589.485,158.41347619047627
592.112,159.41214285714298
594.737,160.35185714285723
597.359,147.32980952380962
599.98,160.15652380952392
602.599,168.118761904762
605.216,159.9795238095239
607.831,159.02423809523816
610.445,140.39599047619055
613.056,107.52304761904767
615.666,104.83303809523814
618.274,86.80102857142863
620.88,87.71135238095245
623.484,94.37124761904771
626.086,137.49309523809535
628.686,185.4552952380954
631.284,236.77876190476204
633.881,243.41276190476202
636.476,259.4967619047621
639.068,236.31257142857157
641.659,202.95152380952393
644.249,188.50457142857155
646.836,153.58615714285722
649.421,91.14390952380958
652.005,73.50620000000004
654.587,46.57243809523812
657.166,37.67041809523814
659.745,40.651906190476204
662.321,34.36820285714288
664.895,36.527750952380984
667.468,34.88641238095241
670.038,54.485820476190526
672.607,74.84352285714289
675.174,71.28664285714291
677.739,77.6658428571429
680.303,100.83206190476197
682.864,90.54097619047624
685.424,84.02450000000003
687.982,78.27636666666669
690.538,60.09985714285718
693.092,59.15534761904766
695.645,58.484576190476204
698.195,31.65317142857142
700.744,-16.392209523809527
703.291,-9.60939952380951
705.836,-14.908522142857123
708.38,25.943341428571472
710.921,52.94140071428575
713.461,83.890550952381
715.999,80.83392547619052
718.535,101.9577671428572
721.069,81.25800000000005
723.602,104.20682857142863
726.133,104.5149428571429
728.662,93.55975714285717
731.189,77.43335714285719
733.714,77.27521428571434
736.238,63.79667619047625
738.759,88.80418571428577
741.279,95.15237142857147
743.798,91.3626571428572
746.314,99.242180952381
748.829,101.1218571428572
751.342,90.42819523809528
753.853,104.73058095238102
756.362,108.21780952380959
758.869,113.07877619047626
761.375,112.21652857142863
763.879,102.201180952381
766.381,78.93624285714291
768.882,89.84912380952386
771.38,90.27221904761907
773.877,74.4904047619048
776.372,60.1695666666667
778.866,70.07106666666672
781.357,59.8133571428572
783.847,94.87208571428579
786.335,108.43765238095244
788.821,116.1287333333334
791.306,124.659861904762
793.789,152.55481904761913
796.27,160.86146190476202
798.749,174.86558095238107
801.227,189.37700000000012
803.702,211.92014285714296
806.176,222.35304761904774
808.649,219.86633333333342
811.119,218.41352380952392
813.588,201.8999047619049
816.055,195.56452380952393
818.521,187.74209523809535
820.984,198.29080952380963
823.446,185.401761904762
825.906,187.26714285714297
828.365,170.17380952380958
830.821,146.12361904761912
833.276,126.30819047619056
835.729,118.6341428571429
838.181,131.00744761904772
840.631,145.4299476190477
843.079,129.04620476190482
845.525,125.1439095238096
847.97,131.29612857142865
850.412,106.21941904761911
852.854,102.7727047619048
855.293,61.81520000000001
857.731,51.77756666666672
860.167,64.80465714285721
862.601,89.56549047619053
865.034,85.10987142857147
867.465,75.24952380952384
869.894,61.55838095238102
872.321,96.89574285714293
874.747,113.50198571428578
877.171,124.42731428571436
879.594,118.19788095238103
882.014,109.33991428571434
884.433,136.71299523809535
886.851,144.46256666666676
889.266,135.59098095238105
891.68,148.72031904761914
894.092,148.66255238095246
896.503,147.6105857142858
898.912,154.4714190476191
901.319,123.72414285714291
903.724,119.65700000000008
906.128,144.36790476190487
908.53,152.33566666666675
910.931,161.80102857142865
913.329,145.43300476190484
915.726,107.75815238095245
918.122,116.58870952380961
920.516,125.64129523809532
922.908,133.63295714285724
925.298,134.09021904761912
927.687,142.11034190476195
930.074,97.83896333333337
932.459,92.65954571428577
934.843,91.95562238095243
937.225,92.25344571428576
939.605,70.98401571428576
941.984,84.62556571428574
944.361,73.41897619047624
946.736,73.03294761904768
949.11,65.3746666666667
951.482,62.25564761904766
953.853,53.72580000000005
956.222,58.596747619047676
958.589,85.48987619047624
960.954,95.45443333333338
963.318,79.4447571428572
965.68,75.6530190476191
968.041,73.8905666666667
970.4,47.730485714285734
972.757,52.936328571428604
975.113,43.60465714285715
977.467,27.165452380952395
979.819,20.09613333333335
982.17,25.6835904761905
984.519,24.071714285714325
986.866,45.26144285714289
989.212,61.777409523809574
991.556,76.14414761904767
993.899,81.26696666666672
996.24,116.14655714285723
998.579,137.8784857142858
1000.92,139.74894285714294
1003.25,148.85331428571436
1005.59,132.28686666666673
1007.92,102.66862857142866
1010.25,96.99872380952388
1012.58,86.61036190476196
1014.91,91.17016190476198
1017.24,127.10621904761913
1019.56,143.37055238095243
1021.88,140.0102952380953
1024.2,154.3585238095239
1026.52,143.50985714285724
1028.84,154.32071428571442
1031.16,188.83776190476203
1033.48,199.6319523809525
1035.79,196.89271428571442
1038.1,238.8095714285716
1040.41,254.28642857142876
1042.72,283.65552380952397
1045.03,305.9154285714287
1047.33,284.25580952380966
1049.64,230.2467142857144
1051.94,200.6965238095239
1054.24,198.36580952380967
1056.54,215.11057142857157
1058.84,240.64314285714298
1061.13,249.05766666666676
1063.43,229.7334285714287
1065.72,204.62157142857154
1068.01,208.05328571428583
1070.3,219.21785714285733
1072.59,228.97042857142873
1074.87,261.7382857142859
1077.16,283.13866666666684
1079.44,276.50333333333356
1081.72,286.9254761904764
1084.0,318.4984761904764
1086.28,390.0775238095241
1088.56,501.94661904761944
1090.84,636.7232380952385
1093.11,730.0243809523814
1095.38,749.3721904761909
1097.65,682.050047619048
1099.92,577.5323333333337
1102.19,476.38866666666695
1104.46,426.9029523809527
1106.72,398.5966666666669
1108.98,427.7062380952384
1111.24,453.37266666666693
1113.5,495.8319047619051
1115.76,559.3203809523812
1118.02,589.4550952380956
1120.28,591.1388095238099
1122.53,597.6074761904765
1124.78,566.4786190476194
1127.03,539.1310000000003
1129.28,476.70580952380976
1131.53,397.43938095238116
1133.77,319.3298571428573
1136.02,249.75604761904776
1138.26,225.6685714285716
1140.5,239.11338095238114
1142.74,247.94604761904782
1144.98,269.02185714285724
1147.22,283.9583809523811
1149.45,278.2777142857144
1151.69,268.73985714285726
1153.92,256.1527142857144
1156.15,238.32461904761917
1158.38,205.87261904761914
1160.61,192.8908095238096
1162.83,179.9494380952382
1165.06,145.6182714285715
1167.28,125.4197333333334
1169.5,123.97191904761912
1171.72,113.5114476190477
1173.94,115.7511952380953
1176.16,125.97617619047625
1178.37,101.13749047619052
1180.58,83.71039523809529
1182.8,62.551247619047636
1185.01,37.08770476190478
1187.22,12.366385714285723
1189.42,10.386704761904785
1191.63,28.671776190476237
1193.84,51.36386190476195
1196.04,70.17673809523814
1198.24,81.53856190476195
1200.44,84.82991428571434
1202.64,49.52672380952383
1204.84,52.962338095238124
1207.03,30.18428571428573
1209.23,30.049880952380995
1211.42,55.559404761904815
1213.61,66.80850476190479
1215.8,49.55965361904766
1217.99,40.95648623809525
1220.18,32.80923438095242
1222.36,29.35693614285718
1224.55,61.88646771428576
1226.73,64.49408147619052
1228.91,86.84781552380956
1231.09,70.52040000000004
1233.27,79.94180952380958
1235.44,85.06624761904769
1237.62,97.70489047619051
1239.79,92.28794285714291
1241.96,87.34125714285717
1244.13,70.43798571428577
1246.3,87.00880000000006
1248.47,104.34185238095245
1250.64,132.05811904761913
1252.8,134.82675714285722
1254.96,110.22161904761913
1257.13,122.14959523809534
1259.29,146.8990476190477
1261.44,168.99645238095252
1263.6,200.01538095238107
1265.76,189.24461904761912
1267.91,165.35361904761913
1270.06,157.249761904762
1272.22,132.0310476190477
1274.37,135.5100476190477
1276.51,146.26090476190487
1278.66,139.90569047619056
1280.81,143.01900000000006
1282.95,126.17502380952385
1285.09,106.85295238095246
1287.23,106.29402380952389
1289.37,132.45390476190488
1291.51,148.7163142857144
1293.65,144.13221904761912
1295.78,126.03778095238101
1297.92,105.48400952380956
1300.05,79.42636666666674
1302.18,92.15371428571436
1304.31,83.95484761904765
1306.44,91.88062857142866
1308.57,131.9339714285715
1310.69,169.54668571428581
1312.82,192.57913809523822
1314.94,241.4150666666668
1317.06,242.10519047619061
1319.18,229.27161904761917
1321.3,225.06028571428587
1323.41,241.18847619047636
1325.53,262.5638095238097
1327.64,314.23680952380977
1329.75,337.54333333333346
1331.87,327.7721904761907
1333.98,314.8788571428573
1336.08,337.9610000000002
1338.19,338.8306190476192
1340.3,327.77614285714304
1342.4,285.9905238095239
1344.5,231.190761904762
1346.6,177.5221904761906
1348.7,169.6535238095239
1350.8,158.34878095238102
1352.9,139.03873333333343
1354.99,135.8210857142858
1357.09,129.45979047619056
1359.18,120.24227619047629
1361.27,144.8369238095239
1363.36,172.62668571428583
1365.45,171.13680952380966
1367.54,180.22638095238105
1369.62,183.75380952380962
1371.7,189.0536190476192
1373.79,235.69847619047636
1375.87,258.8326666666668
1377.95,277.36171428571447
1380.03,268.0961904761906
1382.1,242.89361904761918
1384.18,235.9929523809525
1386.25,225.53780952380959
1388.33,180.52847619047625
1390.4,138.48908571428578
1392.47,90.37200000000004
1394.54,58.31989523809529
1396.6,67.5231428571429
1398.67,55.6006666666667
1400.74,61.31379523809528
1402.8,69.23317142857148
1404.86,72.78674761904767
1406.92,83.49738571428577
1408.98,88.22113809523813
1411.04,77.43289047619054
1413.09,86.65501904761912
1415.15,105.60016666666672
1417.2,116.21941904761913
1419.25,120.32033809523813
1421.3,103.80575714285719
1423.35,76.8640047619048
1425.4,55.969076190476216
1427.45,42.78549047619051
1429.49,55.168190476190524
1431.54,67.6384047619048
1433.58,59.71745714285716
1435.62,26.831252380952385
1437.66,30.834366666666703
1439.7,33.20017619047623
1441.74,65.49724761904766
1443.77,79.43701904761906
1445.81,75.92129523809525
1447.84,39.089914285714315
1449.87,56.84463809523814
1451.9,64.61092380952387
1453.93,82.86183809523816
1455.96,89.45137142857149
1457.98,100.0905952380953
1460.01,86.20472380952387
1462.03,121.40946190476201
1464.05,148.0352476190477
1466.07,183.74532380952394
1468.09,219.96500000000015
1470.11,242.26219047619065
1472.13,256.4908095238097
1474.14,278.07600000000014
1476.16,289.5862380952383
1478.17,301.3990000000001
1480.18,284.51090476190495
1482.19,242.49028571428582
1484.2,207.00079047619056
1486.21,153.13425238095246
1488.21,117.93526666666672
1490.22,97.01974285714289
1492.22,69.62261904761908
1494.22,48.40788095238099
1496.22,48.18202857142859
1498.22,35.418342857142875
1500.22,36.59021428571432
1502.22,41.83778095238098
1504.21,54.06315333333336
1506.21,53.88282714285717
1508.2,36.151449523809525
1510.19,14.58095380952382
1512.18,17.597611428571458
1514.17,35.9610947619048
1516.16,50.62172333333336
1518.14,49.625130476190485
1520.13,32.540858571428586
1522.11,22.65289238095241
1524.09,34.62624142857146
1526.07,54.030772380952406
1528.05,54.4364904761905
1530.03,52.55630000000003
1532.01,49.67471428571432
1533.98,59.12390000000005
1535.96,53.855204761904794
1537.93,66.2961952380953
1539.9,89.92242380952388
1541.87,105.68534285714291
1543.84,104.06048571428578
1545.81,110.61865238095243
1547.78,83.5498571428572
1549.74,86.04405238095245
1551.7,108.33935238095246
1553.67,145.0068000000001
1555.63,168.1414476190477
1557.59,176.83825714285723
1559.55,172.6211238095239
1561.5,142.82336190476198
1563.46,139.3022000000001
1565.41,147.01049523809533
1567.37,155.32943809523817
1569.32,152.87821904761913
1571.27,151.46698095238102
1573.22,137.95323809523822
1575.17,153.62304761904772
1577.11,156.4774761904763
1579.06,171.37390476190487
1581.0,171.59871428571438
1582.95,163.8195238095239
1584.89,168.17966666666675
1586.83,148.39457142857154
1588.77,153.84633333333346
1590.7,159.58285714285722
1592.64,163.1291904761906
1594.58,176.3912380952381
1596.51,180.20352380952374
1598.44,164.23388095238084
