Raman Shift,Processed Intensity
331.095,15.930267619047466
333.909,-44.763739523809704
336.721,-55.28206952380968
339.531,-33.675779047619045
342.339,8.313165714285729
345.145,20.53864
347.949,13.665646190476185
350.751,10.408081904761907
353.55,5.719240476190473
356.348,-19.493809523809535
359.144,-20.084507142857152
361.937,-21.047742857142858
364.729,-9.472042857142824
367.518,23.88862857142862
370.306,57.28229047619055
373.091,149.62486190476207
375.874,251.73866190476213
378.656,326.8281904761907
381.435,321.81409523809526
384.212,237.7611190476191
386.988,120.49787619047626
389.761,78.80660952380957
392.532,35.85215714285716
395.301,11.991209523809522
398.068,0.05845238095237981
400.833,-23.443276190476205
403.596,-36.961971428571445
406.358,-16.753483619047625
409.117,-15.78646028571429
411.874,-2.8850919999999762
414.629,30.17545933333335
417.382,46.95490323809526
420.133,29.34762066666669
422.882,48.249221142857195
425.629,78.65193333333343
428.374,130.6922285714287
431.117,208.84088571428586
433.858,270.2841523809525
436.597,260.44697142857154
439.334,215.85097142857148
442.069,164.2091333333334
444.802,114.9500761904763
447.533,139.4072285714287
450.262,182.7728285714287
452.989,246.47687619047636
455.714,265.9035047619049
458.438,240.15152857142866
461.159,181.36807619047627
463.878,119.176680952381
466.595,80.63086666666673
469.31,81.78359047619054
472.024,96.40351428571435
474.735,105.78284285714294
477.444,123.40532380952388
480.152,114.75465238095246
482.857,121.45805714285721
485.561,124.23800000000008
488.262,137.6750000000001
490.962,157.87280952380965
493.659,196.55528571428584
496.355,203.2549523809525
499.048,181.60042857142867
501.74,160.3155238095239
504.43,128.50552380952388
507.118,109.13238095238104
509.804,138.3964761904763
512.488,192.54547619047634
515.17,232.58933333333349
517.85,262.72809523809536
520.528,239.3527142857144
523.204,199.04414285714296
525.878,138.66895238095248
528.551,135.52218095238104
531.221,123.32741904761912
533.89,118.95050476190482
536.556,116.49605714285723
539.221,120.54412380952388
541.883,118.15065714285726
544.544,157.46661904761913
547.203,160.49990952380958
549.86,143.5914190476191
552.515,119.70105238095245
555.168,103.69319047619058
557.819,121.00307142857153
560.469,157.0178380952382
563.116,178.83897142857154
565.761,197.6628571428573
568.405,208.78023809523825
571.047,237.48228571428587
573.687,244.77319047619062
576.324,237.08585714285726
578.96,232.32871428571445
581.594,233.21966666666682
584.227,229.04728571428583
586.857,236.38595238095252
589.485,236.85676190476204
592.112,233.65209523809537
594.737,234.3444761904763
597.359,218.12514285714298
599.98,196.23305714285726
602.599,150.19212857142864
605.216,135.8116857142858
607.831,132.51940476190484
610.445,112.88588571428579
613.056,118.09995714285722
615.666,127.54090476190484
618.274,129.8256857142858
620.88,146.8564380952382
623.484,185.77310476190488
626.086,197.09633333333346
628.686,259.4418571428573
631.284,304.043523809524
633.881,319.85000000000014
636.476,304.04680952380966
639.068,342.867523809524
641.659,299.45019047619064
644.249,289.31342857142874
646.836,256.2135904761906
649.421,183.62168571428577
652.005,125.00777238095247
654.587,107.31842000000002
657.166,41.59538285714289
659.745,32.737027619047645
662.321,32.30864952380955
664.895,43.54231523809527
667.468,40.71745333333333
670.038,0.16124761904761353
672.607,6.724585714285759
675.174,36.401547619047676
677.739,79.18609047619056
680.303,118.40582380952387
682.864,122.10265238095242
685.424,83.93770000000005
687.982,72.33397142857147
690.538,65.09582857142863
693.092,77.55139523809528
695.645,60.07673809523811
698.195,54.42900952380953
700.744,19.365519047619046
703.291,2.024723809523829
705.836,5.021471428571447
708.38,30.875626666666683
710.921,29.29769333333335
713.461,27.236562857142864
715.999,41.87913523809529
718.535,51.508162857142906
721.069,84.2157695238096
723.602,113.66588380952386
726.133,102.47481428571433
728.662,88.68785238095244
731.189,96.63557619047623
733.714,74.22069047619054
736.238,89.34574761904767
738.759,97.43763333333338
741.279,97.0181333333334
743.798,94.32384285714289
746.314,87.73397142857146
748.829,75.5328666666667
751.342,64.71924761904765
753.853,71.91118571428576
756.362,76.58364285714288
758.869,59.92616190476193
761.375,61.08078571428575
763.879,62.3801666666667
766.381,67.44273809523814
768.882,68.69660952380956
771.38,72.90332380952384
773.877,61.77686190476194
776.372,53.69799523809527
778.866,63.952352380952426
781.357,68.1114047619048
783.847,64.36574761904768
786.335,66.1441523809524
788.821,77.58993809523815
791.306,98.41750952380961
793.789,134.53210952380962
796.27,142.69620476190485
798.749,162.24379047619058
801.227,171.79480952380962
803.702,182.96914285714297
806.176,198.7674761904763
808.649,199.9525238095239
811.119,192.5728095238096
813.588,174.2484761904763
816.055,173.02833333333342
818.521,148.58023809523817
820.984,160.09626666666676
823.446,139.43455238095245
825.906,138.88191428571434
828.365,123.2494952380953
830.821,124.63386666666676
833.276,111.84607619047628
835.729,127.60207619047625
838.181,120.85576190476198
840.631,119.32300000000008
843.079,130.1483333333334
845.525,137.14282857142865
847.97,132.5939333333334
850.412,110.0271428571429
852.854,91.63487619047622
855.293,47.99042380952384
857.731,43.952528571428616
860.167,45.90393333333337
862.601,61.8942266666667
865.034,53.02047428571431
867.465,43.046424761904774
869.894,38.16453047619052
872.321,46.51942000000004
874.747,70.30360761904768
877.171,88.47122190476195
879.594,87.59548571428577
882.014,87.86890952380958
884.433,106.48401904761911
886.851,107.29960476190482
889.266,113.74631428571436
891.68,116.5876000000001
894.092,132.4922761904763
896.503,147.9386380952382
898.912,169.023561904762
901.319,149.7012333333334
903.724,119.59270476190483
906.128,110.22333809523818
908.53,125.49984761904771
910.931,145.4244238095239
913.329,166.47459047619054
915.726,147.89042857142863
918.122,144.72158095238103
920.516,118.92174761904768
922.908,117.77839047619054
925.298,109.10305238095245
927.687,114.23042857142865
930.074,109.44810952380958
932.459,107.51975238095243
934.843,78.49442857142861
937.225,60.46911428571432
939.605,66.44541904761911
941.984,95.37722857142865
944.361,127.78966666666673
946.736,120.39859047619052
949.11,112.77690571428576
951.482,65.49746761904765
953.853,42.942806666666705
956.222,38.25708952380957
958.589,59.155701904761955
960.954,74.64007714285721
963.318,96.85429619047623
965.68,92.3710047619048
968.041,84.14371428571432
970.4,86.31639523809528
972.757,91.36627333333337
975.113,75.8657947619048
977.467,64.53017238095242
979.819,42.741254761904784
982.17,31.54743142857146
984.519,35.71140714285717
986.866,46.18613428571432
989.212,49.35336857142863
991.556,99.21357809523816
993.899,124.19551904761913
996.24,147.25225714285722
998.579,148.00301904761912
1000.92,116.87667142857147
1003.25,93.9210571428572
1005.59,84.2316428571429
1007.92,76.18942857142864
1010.25,92.1277952380953
1012.58,107.23718095238101
1014.91,109.85076190476198
1017.24,127.9682857142858
1019.56,145.8754761904763
1021.88,149.23895238095247
1024.2,169.8199523809525
1026.52,173.0945238095239
1028.84,191.7286190476192
1031.16,208.15033333333346
1033.48,246.6450952380954
1035.79,258.8790952380954
1038.1,273.8040952380954
1040.41,294.70509523809545
1042.72,300.48619047619064
1045.03,272.3845714285716
1047.33,250.44728571428587
1049.64,221.1496666666668
1051.94,184.72909523809537
1054.24,196.89857142857153
1056.54,177.84790476190486
1058.84,178.8141904761906
1061.13,199.1298571428573
1063.43,216.17504761904777
1065.72,224.09147619047638
1068.01,234.9253809523811
1070.3,214.104142857143
1072.59,202.05533333333346
1074.87,239.77800000000016
1077.16,252.79471428571443
1079.44,261.4850952380954
1081.72,267.84790476190494
1084.0,282.1674761904764
1086.28,322.8710476190479
1088.56,421.52904761904796
1090.84,535.0445714285719
1093.11,618.8926190476195
1095.38,669.3576190476193
1097.65,629.1047142857145
1099.92,539.5610000000003
1102.19,428.3921904761907
1104.46,365.02490476190496
1106.72,328.1246190476193
1108.98,346.8803809523812
1111.24,360.71904761904784
1113.5,409.11561904761936
1115.76,459.402285714286
1118.02,515.7200000000003
1120.28,535.1625714285717
1122.53,530.6332380952384
1124.78,497.0352857142859
1127.03,438.31952380952396
1129.28,366.6752380952383
1131.53,318.1960476190478
1133.77,259.2612380952383
1136.02,237.05995238095252
1138.26,226.2096666666668
1140.5,227.51866666666677
1142.74,244.84271428571444
1144.98,256.3706190476192
1147.22,251.00566666666683
1149.45,265.65119047619066
1151.69,253.4962380952382
1153.92,224.77785714285727
1156.15,217.68485714285728
1158.38,169.93014285714293
1160.61,117.70285714285721
1162.83,95.1920666666667
1165.06,82.01558095238101
1167.28,74.12442380952389
1169.5,91.04109523809528
1171.72,102.9548714285715
1173.94,100.62640952380958
1176.16,93.00685238095242
1178.37,80.33313333333336
1180.58,56.79458095238097
1182.8,26.961504761904788
1185.01,19.59466190476192
1187.22,31.169195238095273
1189.42,47.11259123809527
1191.63,49.04291552380954
1193.84,42.054459619047634
1196.04,44.2891663809524
1198.24,23.793831047619072
1200.44,40.52003457142861
1202.64,54.84799123809526
1204.84,47.9199723809524
1207.03,41.497358095238106
1209.23,14.817782857142845
1211.42,0.2143038095238321
1213.61,15.734320952380973
1215.8,22.85397238095241
1217.99,55.95426952380956
1220.18,53.51168523809525
1222.36,54.9552371428572
1224.55,67.19019095238099
1226.73,96.40776095238101
1228.91,98.8944328571429
1231.09,114.98445428571434
1233.27,81.5361190476191
1235.44,80.78876666666672
1237.62,66.17236190476197
1239.79,93.92645238095247
1241.96,108.05241428571435
1244.13,139.64751904761914
1246.3,143.9516000000001
1248.47,151.6807142857144
1250.64,164.55142857142872
1252.8,199.04185714285725
1254.96,207.96352380952393
1257.13,217.31914285714296
1259.29,220.68252380952396
1261.44,231.19871428571443
1263.6,249.06100000000018
1265.76,279.60523809523824
1267.91,278.3102380952382
1270.06,250.46461904761918
1272.22,231.30942857142867
1274.37,203.5617142857144
1276.51,166.12933333333342
1278.66,160.3010000000001
1280.81,159.93685714285724
1282.95,156.6112380952382
1285.09,159.8034857142858
1287.23,139.23112857142863
1289.37,114.13563809523819
1291.51,119.85349047619056
1293.65,116.57856666666675
1295.78,125.07598571428579
1297.92,133.25398571428576
1300.05,117.25852380952388
1302.18,117.95026190476199
1304.31,141.66561904761912
1306.44,147.78904761904772
1308.57,160.46671428571437
1310.69,174.79747619047632
1312.82,169.6890000000001
1314.94,159.8592380952382
1317.06,186.0733809523811
1319.18,204.71542857142873
1321.3,236.45542857142874
1323.41,273.9636666666669
1325.53,292.38571428571447
1327.64,325.3439523809526
1329.75,374.5560952380955
1331.87,405.7866190476193
1333.98,395.22923809523826
1336.08,351.17314285714303
1338.19,309.38276190476205
1340.3,267.95628571428585
1342.4,243.8965714285716
1344.5,241.587161904762
1346.6,187.17361428571436
1348.7,139.99227619047628
1350.8,116.56943333333338
1352.9,88.19299047619056
1354.99,104.48428095238104
1357.09,143.82678095238106
1359.18,157.7464761904763
1361.27,183.4836666666668
1363.36,176.99285714285725
1365.45,175.22785714285726
1367.54,165.90509523809533
1369.62,157.97861904761913
1371.7,162.11657142857155
1373.79,193.36833333333348
1375.87,202.9256190476192
1377.95,240.50347619047633
1380.03,272.3414761904763
1382.1,261.4404285714287
1384.18,227.2771904761906
1386.25,197.70995238095247
1388.33,150.4058761904763
1390.4,127.55557619047627
1392.47,112.921380952381
1394.54,89.45563333333337
1396.6,61.15806666666671
1398.67,65.69532857142862
1400.74,71.87632380952385
1402.8,104.79584761904769
1404.86,102.40548571428577
1406.92,94.27574761904765
1408.98,78.35775238095243
1411.04,80.12645238095244
1413.09,68.53262857142863
1415.15,104.95565238095246
1417.2,110.06047619047625
1419.25,114.08313333333342
1421.3,127.92601904761912
1423.35,135.53892380952388
1425.4,127.30041904761913
1427.45,131.0649476190477
1429.49,101.78236666666672
1431.54,93.06885238095245
1433.58,73.68328571428574
1435.62,74.43188095238102
1437.66,94.16844761904767
1439.7,105.93745238095244
1441.74,90.44973333333337
1443.77,91.74944285714291
1445.81,93.5473476190477
1447.84,106.98247619047626
1449.87,121.71786190476196
1451.9,106.1306666666667
1453.93,99.50260952380958
1455.96,87.16334285714292
1457.98,100.77582857142865
1460.01,108.05026190476198
1462.03,144.8398761904763
1464.05,172.56932380952392
1466.07,243.99651428571445
1468.09,294.7843333333335
1470.11,323.1667142857144
1472.13,337.4732857142859
1474.14,344.03333333333353
1476.16,347.17652380952404
1478.17,328.9941904761907
1480.18,289.57776190476204
1482.19,243.2566666666668
1484.2,209.69401904761918
1486.21,173.21976666666677
1488.21,143.59235714285722
1490.22,109.8558333333334
1492.22,97.57850000000008
1494.22,82.6617952380953
1496.22,88.43549047619054
1498.22,88.32558095238099
1500.22,90.09089523809531
1502.22,94.25256190476195
1504.21,71.42710952380955
1506.21,47.4214666666667
1508.2,25.042623809523818
1510.19,4.098128571428598
1512.18,8.776257142857157
1514.17,31.503757142857175
1516.16,37.374119047619104
1518.14,93.14780476190482
1520.13,100.7280047619048
1522.11,110.44678095238099
1524.09,78.68387142857146
1526.07,77.34272380952386
1528.05,70.08922857142862
1530.03,78.06543809523814
1532.01,66.93714761904766
1533.98,85.0846047619048
1535.96,63.745261904761946
1537.93,68.48984285714289
1539.9,70.22282857142862
1541.87,76.84846190476196
1543.84,101.22375714285721
1545.81,120.82454285714292
1547.78,116.5079333333334
1549.74,111.98798095238101
1551.7,99.21704761904769
1553.67,98.67123809523818
1555.63,140.06538095238105
1557.59,156.4471904761906
1559.55,176.24566666666678
1561.5,194.93704761904775
1563.46,204.47395238095248
1565.41,199.47600000000014
1567.37,202.22933333333344
1569.32,186.6870952380953
1571.27,168.37380952380963
1573.22,161.9566666666668
1575.17,177.10295238095247
1577.11,185.05157142857158
1579.06,188.94633333333343
1581.0,203.97847619047633
1582.95,209.006142857143
1584.89,221.1256666666668
1586.83,232.62342857142866
1588.77,229.21480952380963
1590.7,198.71085714285726
1592.64,185.11214285714297
1594.58,175.65816666666672
1596.51,186.37388095238117
1598.44,227.42711904761967
