Raman Shift,Processed Intensity
331.095,14.151622857142637
333.909,-40.50138952380955
336.721,-41.70542666666664
339.531,-15.012705238095226
342.339,1.40513619047619
345.145,5.353177619047601
347.949,-15.028821428571451
350.751,-24.695205952380967
353.55,-33.83726571428571
356.348,-12.406946904761899
359.144,6.930734285714295
361.937,13.464458809523823
364.729,20.293760000000038
367.518,54.28143333333341
370.306,116.10091428571442
373.091,215.475123809524
375.874,295.4136476190478
378.656,350.118142857143
381.435,337.8872380952382
384.212,281.25864476190486
386.988,193.34306619047624
389.761,95.72938000000002
392.532,0.6265895238095247
395.301,-32.325858809523815
398.068,-38.62956571428571
400.833,-18.880136904761912
403.596,-14.337921428571455
406.358,-30.261608333333356
409.117,-36.67017571428572
411.874,-29.771421904761894
414.629,4.133280952380983
417.382,28.887019047619063
420.133,56.00096666666671
422.882,62.89265238095243
425.629,98.93341428571438
428.374,150.0196666666668
431.117,202.8584666666668
433.858,234.92046666666684
436.597,253.67722857142869
439.334,232.69671428571442
442.069,215.59571428571442
444.802,213.3727142857144
447.533,191.64619047619058
450.262,209.94085714285728
452.989,252.16252380952398
455.714,291.4564285714287
458.438,289.82566666666685
461.159,256.083761904762
463.878,194.33023809523817
466.595,139.33237619047625
469.31,111.66695238095245
472.024,89.48325714285718
474.735,75.40708571428578
477.444,85.06505714285724
480.152,144.79798095238107
482.857,183.66188095238107
485.561,227.14145714285726
488.262,218.3881904761906
490.962,203.8874285714287
493.659,194.07761904761915
496.355,176.01590476190484
499.048,174.3789047619049
501.74,188.89104761904773
504.43,170.08604761904772
507.118,154.68861904761914
509.804,171.18571428571437
512.488,201.82547619047637
515.17,263.0468095238097
517.85,286.1937142857144
520.528,261.60980952380964
523.204,190.68661904761913
525.878,148.6723238095239
528.551,124.5771333333334
531.221,125.36326666666673
533.89,119.6600095238096
536.556,125.52460000000009
539.221,126.77637142857152
541.883,162.6624380952382
544.544,155.81132380952388
547.203,142.6602952380953
549.86,114.93259047619053
552.515,110.06497142857151
555.168,111.2084380952382
557.819,173.75141904761918
560.469,209.55892380952395
563.116,218.92366666666678
565.761,212.091142857143
568.405,217.16304761904775
571.047,205.2883333333335
573.687,229.18680952380964
576.324,221.9592857142858
578.96,197.61057142857157
581.594,207.9074761904763
584.227,202.09242857142868
586.857,209.78857142857157
589.485,224.42790476190487
592.112,193.68023809523817
594.737,165.4055238095239
597.359,145.08197619047624
599.98,103.09261904761914
602.599,135.34359523809536
605.216,170.45537142857154
607.831,169.90482380952392
610.445,166.50210476190483
613.056,111.58034761904766
615.666,74.2820857142858
618.274,94.46365238095245
620.88,102.74338095238103
623.484,128.69090952380964
626.086,173.73345714285728
628.686,206.20195238095252
631.284,253.903523809524
633.881,310.4546666666668
636.476,297.4240000000001
639.068,269.90323809523824
641.659,239.6034380952382
644.249,182.1871523809525
646.836,151.36480761904772
649.421,128.75099333333338
652.005,74.19854952380953
654.587,26.13128952380953
657.166,-0.3126700000000031
659.745,-13.18586761904759
662.321,21.2686966666667
664.895,45.807614285714315
667.468,47.854246190476196
670.038,36.54614238095238
672.607,-3.4078409523809547
675.174,-0.1558480952380652
677.739,24.010796190476228
680.303,54.22943000000004
682.864,86.87549714285718
685.424,93.22920000000002
687.982,63.142142857142886
690.538,49.56135714285716
693.092,39.24309523809527
695.645,39.70570476190479
698.195,46.515161904761925
700.744,41.28508571428573
703.291,20.438680952380967
705.836,29.160938095238137
708.38,54.39910952380956
710.921,54.9098523809524
713.461,56.069009523809555
715.999,58.34767142857145
718.535,41.26468571428576
721.069,58.67237619047624
723.602,95.9944190476191
726.133,94.13097619047625
728.662,73.55371904761907
731.189,50.924890476190484
733.714,26.38309523809526
736.238,16.16250952380956
738.759,49.877761904761954
741.279,79.38240952380956
743.798,79.19650000000004
746.314,66.98316666666669
748.829,57.548485714285746
751.342,46.88920952380956
753.853,62.52587619047624
756.362,69.21748571428576
758.869,70.19921428571432
761.375,62.0874285714286
763.879,75.78428000000004
766.381,71.28729809523813
768.882,56.73702333333335
771.38,38.84554190476193
773.877,28.229839523809552
776.372,51.03090190476197
778.866,79.19926714285718
781.357,80.97134190476194
783.847,83.29820952380959
786.335,100.55906190476199
788.821,114.18115238095245
791.306,140.35419523809531
793.789,135.648361904762
796.27,138.30085714285724
798.749,150.45385714285723
801.227,167.58257142857155
803.702,182.82933333333344
806.176,205.5749523809525
808.649,206.67609523809534
811.119,216.60842857142868
813.588,215.41952380952392
816.055,215.39528571428582
818.521,228.96438095238113
820.984,211.41242857142868
823.446,200.5493333333335
825.906,194.7562857142858
828.365,177.65290476190486
830.821,173.09726666666677
833.276,162.47083809523818
835.729,120.01234285714294
838.181,125.38920952380963
840.631,145.64987619047628
843.079,138.84296666666674
845.525,141.06503809523818
847.97,108.74579047619054
850.412,113.64842857142865
852.854,106.39337619047625
855.293,95.79151428571433
857.731,91.60617142857149
860.167,89.36286666666672
862.601,69.20610952380957
865.034,80.89938095238098
867.465,75.25396190476195
869.894,81.22428571428577
872.321,89.57393809523815
874.747,102.7813047619048
877.171,104.18183333333337
879.594,107.44405714285722
882.014,130.9987095238096
884.433,121.94335238095242
886.851,92.89912380952387
889.266,96.1065333333334
891.68,110.13974285714296
894.092,137.0482761904763
896.503,174.40646666666674
898.912,172.1214761904763
901.319,171.57680952380966
903.724,181.20338095238108
906.128,182.09961904761914
908.53,169.7439523809525
910.931,164.94866666666678
913.329,166.81204761904775
915.726,179.4321904761906
918.122,194.09714285714296
920.516,196.95293333333342
922.908,165.3358380952382
925.298,130.29610476190481
927.687,108.93240000000007
930.074,131.3904095238096
932.459,126.8635476190477
934.843,140.4977333333334
937.225,139.72470000000007
939.605,107.45199523809531
941.984,104.11117619047627
944.361,111.41966190476195
946.736,104.19024761904768
949.11,96.90232380952385
951.482,79.36848095238098
953.853,43.163214285714325
956.222,52.43236666666671
958.589,58.75067142857149
960.954,95.2164190476191
963.318,98.73753809523812
965.68,85.12670952380957
968.041,92.33929047619054
970.4,69.56907619047621
972.757,56.72391809523813
975.113,43.66405142857143
977.467,21.10690476190478
979.819,2.4364933333333516
982.17,28.84619714285716
984.519,22.14872095238098
986.866,38.39457428571432
989.212,54.77712095238099
991.556,80.8706590476191
993.899,92.34452380952386
996.24,87.34423809523814
998.579,83.58649523809527
1000.92,72.55008571428576
1003.25,67.3802428571429
1005.59,68.46020476190479
1007.92,61.07777619047621
1010.25,45.99687619047623
1012.58,36.98115714285717
1014.91,52.08016666666671
1017.24,77.67647142857147
1019.56,82.05726190476194
1021.88,66.65247142857146
1024.2,51.558585714285734
1026.52,45.10986190476197
1028.84,61.78346666666674
1031.16,102.2467857142858
1033.48,126.69097619047626
1035.79,151.02105714285725
1038.1,157.99912857142868
1040.41,199.6729142857144
1042.72,226.23295238095253
1045.03,247.10776190476201
1047.33,216.82081428571436
1049.64,160.13338571428574
1051.94,103.71127142857151
1054.24,95.07799523809533
1056.54,111.61336666666676
1058.84,146.4117857142858
1061.13,145.37692857142864
1063.43,128.7458476190477
1065.72,116.08829047619054
1068.01,121.355561904762
1070.3,118.9269476190477
1072.59,144.89597142857153
1074.87,146.54666666666677
1077.16,153.16295238095248
1079.44,179.50461904761917
1081.72,226.85561904761923
1084.0,269.73785714285737
1086.28,344.482285714286
1088.56,435.89609523809554
1090.84,543.6438571428575
1093.11,633.5325714285717
1095.38,669.4172380952384
1097.65,629.1522380952384
1099.92,547.925666666667
1102.19,445.06785714285735
1104.46,375.6718571428574
1106.72,343.3061428571431
1108.98,324.2060952380955
1111.24,362.2261904761907
1113.5,412.7920952380955
1115.76,463.3771904761908
1118.02,518.1690476190479
1120.28,548.0221428571432
1122.53,505.45690476190504
1124.78,454.8041904761907
1127.03,378.63204761904785
1129.28,344.03314285714305
1131.53,305.52814285714305
1133.77,260.01904761904774
1136.02,219.69290476190488
1138.26,173.49938095238105
1140.5,155.10200000000012
1142.74,185.83157142857158
1144.98,217.3518095238097
1147.22,256.1359523809526
1149.45,274.60961904761916
1151.69,270.2933809523811
1153.92,230.56542857142867
1156.15,202.04242857142867
1158.38,172.1974285714287
1160.61,155.26633333333342
1162.83,135.76995238095245
1165.06,141.8008476190477
1167.28,122.3565333333334
1169.5,116.33925238095242
1171.72,89.60348571428574
1173.94,59.4328666666667
1176.16,53.25326666666672
1178.37,69.82465714285719
1180.58,88.71614285714293
1182.8,100.49703809523814
1185.01,92.68914761904767
1187.22,70.95718571428576
1189.42,61.68020000000005
1191.63,54.046942857142895
1193.84,47.05565714285718
1196.04,65.27633809523815
1198.24,76.99312857142861
1200.44,68.77606190476195
1202.64,60.81436666666669
1204.84,36.67831428571431
1207.03,24.509735238095274
1209.23,39.78404952380954
1211.42,25.11936952380952
1213.61,0.2769852380952327
1215.8,-5.695960000000002
1217.99,-16.371218571428557
1220.18,3.108195238095268
1222.36,48.88509190476195
1224.55,71.6263228571429
1226.73,82.95130000000006
1228.91,84.47951904761906
1231.09,71.02111428571433
1233.27,59.005347619047676
1235.44,64.52829523809528
1237.62,93.78143809523817
1239.79,101.2897571428572
1241.96,113.43551428571438
1244.13,135.2199238095239
1246.3,137.1208476190477
1248.47,156.28247619047636
1250.64,196.32576190476203
1252.8,202.72852380952395
1254.96,225.96909523809538
1257.13,240.38276190476205
1259.29,247.68600000000015
1261.44,273.92823809523827
1263.6,296.73123809523827
1265.76,291.525523809524
1267.91,265.2185714285715
1270.06,235.9081904761906
1272.22,223.83504761904774
1274.37,198.62052380952392
1276.51,196.5060476190477
1278.66,181.20828571428578
1280.81,158.58738095238107
1282.95,162.83657142857152
1285.09,162.14938095238102
1287.23,147.19547619047628
1289.37,151.45442857142865
1291.51,139.11952380952388
1293.65,149.33671428571438
1295.78,161.63300000000007
1297.92,148.82109523809532
1300.05,134.33300000000008
1302.18,134.45747619047629
1304.31,135.86461904761916
1306.44,193.50980952380965
1308.57,222.25385714285727
1310.69,229.2904285714287
1312.82,229.00385714285727
1314.94,214.06409523809538
1317.06,226.56971428571444
1319.18,255.33323809523824
1321.3,271.8823333333335
1323.41,282.3152857142859
1325.53,323.82590476190495
1327.64,332.94133333333355
1329.75,380.23614285714314
1331.87,387.5705714285716
1333.98,371.7578571428573
1336.08,339.5628571428573
1338.19,328.5123333333335
1340.3,301.84757142857165
1342.4,303.52395238095255
1344.5,267.06800000000015
1346.6,226.1496666666668
1348.7,188.81966666666676
1350.8,187.89009523809537
1352.9,188.69738095238108
1354.99,180.76776190476198
1357.09,162.2465714285715
1359.18,149.04138095238105
1361.27,153.39295238095252
1363.36,174.58914285714297
1365.45,207.7277142857144
1367.54,206.52514285714298
1369.62,206.22161904761919
1371.7,210.7716666666668
1373.79,258.7013809523811
1375.87,290.10757142857165
1377.95,319.5158571428573
1380.03,298.45176190476207
1382.1,261.7263809523811
1384.18,224.10300000000015
1386.25,209.011761904762
1388.33,196.406161904762
1390.4,155.47777619047628
1392.47,106.79889523809528
1394.54,77.41813809523815
1396.6,56.33604761904766
1398.67,37.21987142857146
1400.74,45.593952380952416
1402.8,54.60131428571434
1404.86,69.52783809523817
1406.92,100.75443809523817
1408.98,126.2810095238096
1411.04,121.48831904761913
1413.09,113.04240952380958
1415.15,114.51412857142864
1417.2,112.28360000000006
1419.25,119.96915714285723
1421.3,124.56965714285722
1423.35,126.13162857142865
1425.4,113.08215714285721
1427.45,103.37233333333337
1429.49,78.09575714285718
1431.54,56.01287142857146
1433.58,51.64549047619052
1435.62,51.37269523809527
1437.66,64.66867619047623
1439.7,80.67404761904766
1441.74,74.86273333333335
1443.77,52.32754285714288
1445.81,54.399304761904794
1447.84,59.45633809523815
1449.87,58.734042857142896
1451.9,64.6582428571429
1453.93,80.79733809523813
1455.96,86.81488095238102
1457.98,100.99341428571435
1460.01,109.42502380952388
1462.03,103.86818095238104
1464.05,129.55766190476203
1466.07,193.29961904761922
1468.09,258.328542857143
1470.11,315.25990476190486
1472.13,332.18538095238114
1474.14,342.2437142857145
1476.16,350.33619047619067
1478.17,330.7449523809525
1480.18,287.37080952380967
1482.19,228.35305714285724
1484.2,150.0687000000001
1486.21,107.7994952380953
1488.21,96.01816666666673
1490.22,83.95892380952387
1492.22,82.23701428571432
1494.22,66.32508571428575
1496.22,51.124104761904796
1498.22,48.72578571428575
1500.22,45.41226761904764
1502.22,32.03717
1504.21,23.78755904761905
1506.21,14.564801428571442
1508.2,18.746598190476206
1510.19,15.044063666666677
1512.18,22.83508733333334
1514.17,11.926188238095243
1516.16,13.124037809523827
1518.14,23.854449380952392
1520.13,20.448156285714294
1522.11,11.04551571428573
1524.09,23.31086571428573
1526.07,31.33725238095241
1528.05,43.455980952380976
1530.03,49.66514285714287
1532.01,46.2010904761905
1533.98,37.49077142857145
1535.96,40.199400000000026
1537.93,33.23040952380953
1539.9,21.39217142857144
1541.87,11.112252380952395
1543.84,14.532652380952406
1545.81,26.367019047619088
1547.78,65.56691904761911
1549.74,98.0846095238096
1551.7,115.1576952380953
1553.67,133.26232857142864
1555.63,138.0650476190477
1557.59,131.70885714285723
1559.55,137.28890476190486
1561.5,164.4724761904763
1563.46,169.26004761904775
1565.41,200.84252380952393
1567.37,195.45876190476199
1569.32,187.96652380952392
1571.27,178.9379047619049
1573.22,169.94514285714297
1575.17,173.13266666666678
1577.11,185.16773333333342
1579.06,143.14709047619053
1581.0,133.50018095238104
1582.95,136.46657619047627
1584.89,121.52360952380963
1586.83,142.7684238095239
1588.77,161.15440000000007
1590.7,155.20690476190487
1592.64,153.02285714285725
1594.58,154.0325476190477
1596.51,159.7852619047621
1598.44,173.28266666666693
