Raman Shift,Processed Intensity
331.095,131.7353676190475
333.909,27.462939047619045
336.721,-18.57866523809514
339.531,-20.440721904761883
342.339,19.372791428571475
345.145,44.90591523809525
347.949,38.53735238095235
350.751,-0.8294428571428663
353.55,-9.528105714285706
356.348,-20.31970095238093
359.144,26.607202857142887
361.937,45.92239142857145
364.729,45.67778380952387
367.518,71.1646180952382
370.306,145.34176571428586
373.091,225.0744000000002
375.874,351.27673333333354
378.656,404.00671428571445
381.435,359.1809809523811
384.212,259.1462857142858
386.988,147.53614285714292
389.761,38.271544761904785
392.532,-5.439236190476184
395.301,-6.00596761904761
398.068,-17.836516190476193
400.833,-6.289430476190475
403.596,2.944839047619029
406.358,-9.679623809523822
409.117,-35.75473161904763
411.874,-38.251722095238115
414.629,-37.28311752380951
417.382,16.27840590476197
420.133,79.13304533333341
422.882,121.83940838095245
425.629,133.19604838095248
428.374,165.05049523809538
431.117,193.72776190476208
433.858,275.0301904761906
436.597,275.3806666666668
439.334,243.05990476190487
442.069,200.11238095238105
444.802,159.01176190476198
447.533,128.7091904761906
450.262,167.5372380952382
452.989,202.21071428571443
455.714,234.5406666666668
458.438,246.29142857142867
461.159,199.84666666666675
463.878,151.0199238095239
466.595,104.48225238095245
469.31,96.28636666666674
472.024,86.86694761904768
474.735,94.08751904761912
477.444,111.28827142857152
480.152,139.8575857142858
482.857,154.13654285714293
485.561,160.41938095238103
488.262,150.5242380952382
490.962,145.60328571428582
493.659,158.3327142857144
496.355,156.29333333333344
499.048,159.3047142857144
501.74,174.99628571428582
504.43,158.90204761904772
507.118,163.65180952380962
509.804,177.39885714285722
512.488,173.0109047619049
515.17,197.87980952380968
517.85,229.25476190476203
520.528,233.90847619047628
523.204,233.94680952380966
525.878,210.04715238095247
528.551,152.12489047619056
531.221,118.04768571428576
533.89,104.2548714285715
536.556,111.7091333333334
539.221,103.13460000000006
541.883,110.58895238095246
544.544,134.84395714285722
547.203,150.76637142857155
549.86,167.7938523809525
552.515,180.98340000000007
555.168,170.2006666666668
557.819,168.16833333333346
560.469,207.37080952380967
563.116,217.9111904761906
565.761,220.93961904761915
568.405,204.082761904762
571.047,175.8710000000001
573.687,161.92961904761918
576.324,178.31219047619064
578.96,203.64342857142873
581.594,226.64295238095252
584.227,237.64900000000011
586.857,216.28485714285728
589.485,225.1256666666668
592.112,235.03209523809537
594.737,235.15040952380963
597.359,170.67376666666672
599.98,161.50905714285722
602.599,129.61061428571438
605.216,126.59861904761914
607.831,122.14060952380959
610.445,117.99933333333337
613.056,60.46044761904767
615.666,77.09485714285721
618.274,89.18805714285722
620.88,115.11947619047629
623.484,167.17358571428588
626.086,234.34820952380971
628.686,287.35538095238115
631.284,321.1448095238097
633.881,362.7611904761907
636.476,350.7721428571431
639.068,322.8886190476192
641.659,253.2489523809525
644.249,205.9918095238096
646.836,147.92196666666675
649.421,141.93896666666674
652.005,122.37077142857147
654.587,92.06912380952383
657.166,48.74242857142861
659.745,30.52769266666667
662.321,3.7519038571428656
664.895,4.646855333333351
667.468,9.92033995238096
670.038,18.37523628571431
672.607,26.33814909523811
675.174,44.70701171428574
677.739,35.09401190476192
680.303,46.3969704761905
682.864,30.942234761904768
685.424,28.675204761904777
687.982,10.779364761904775
690.538,15.247749523809524
693.092,2.502025714285723
695.645,11.773455238095245
698.195,8.626651904761921
700.744,21.626325714285734
703.291,44.194390476190506
705.836,40.94335714285716
708.38,36.152469523809536
710.921,20.10116952380952
713.461,6.497548571428592
715.999,18.621254285714322
718.535,47.13308190476194
721.069,62.169902857142915
723.602,91.01205047619052
726.133,113.22535714285722
728.662,110.1853571428572
731.189,123.12493333333339
733.714,107.56277619047621
736.238,81.82709523809528
738.759,75.10369047619054
741.279,89.53075238095244
743.798,102.91329047619057
746.314,129.81847619047625
748.829,131.8611428571429
751.342,124.0371333333334
753.853,100.67580476190483
756.362,87.77354761904768
758.869,88.56487428571431
761.375,60.57030761904764
763.879,41.3104866666667
766.381,30.02042571428573
768.882,19.792586666666708
771.38,57.48164190476196
773.877,73.56121333333336
776.372,59.07671142857146
778.866,48.40706095238098
781.357,48.45517809523815
783.847,74.60057714285723
786.335,119.93682952380959
788.821,130.93899523809532
791.306,141.74888571428582
793.789,154.9369523809525
796.27,181.78828571428585
798.749,209.826142857143
801.227,232.76404761904777
803.702,258.84042857142873
806.176,269.7692857142859
808.649,294.7888571428573
811.119,303.0900000000002
813.588,291.4350476190478
816.055,264.3959523809525
818.521,251.21180952380962
820.984,213.8353809523811
823.446,189.64895238095247
825.906,186.84380952380965
828.365,179.70723809523818
830.821,147.95480952380962
833.276,156.44514285714297
835.729,156.17995238095247
838.181,154.39914285714298
840.631,159.53295238095245
843.079,146.9168571428572
845.525,129.31495238095246
847.97,129.3956476190477
850.412,127.49501428571436
852.854,117.04371904761909
855.293,93.23488571428577
857.731,72.88052857142863
860.167,65.03102380952384
862.601,59.45068571428575
865.034,57.14259523809527
867.465,60.49030000000005
869.894,73.63982380952386
872.321,83.64177142857149
874.747,103.97534285714293
877.171,119.97708095238102
879.594,103.50727619047625
882.014,106.0929190476191
884.433,89.68970000000004
886.851,103.4914476190477
889.266,132.78726190476198
891.68,156.19927619047627
894.092,165.35026666666678
896.503,174.9581238095239
898.912,166.54976190476202
901.319,166.2242857142858
903.724,151.84238095238103
906.128,157.45490476190486
908.53,162.20828571428584
910.931,179.05885714285725
913.329,196.1524761904763
915.726,190.4932857142858
918.122,158.22757142857154
920.516,136.78755238095243
922.908,98.84310000000006
925.298,89.35058095238102
927.687,92.36056666666673
930.074,113.06743809523816
932.459,118.14129047619056
934.843,137.77610476190483
937.225,126.3087428571429
939.605,126.59971428571436
941.984,104.17598571428576
944.361,103.99342857142864
946.736,82.24568571428576
949.11,84.31680952380955
951.482,58.97199523809527
953.853,66.2143047619048
956.222,50.427742857142896
958.589,65.8059428571429
960.954,68.39930000000007
963.318,99.63920000000007
965.68,133.29041904761914
968.041,145.83183333333338
970.4,119.02794285714288
972.757,81.40510380952382
975.113,31.870477619047634
977.467,11.093035238095263
979.819,13.122747619047622
982.17,5.056981904761916
984.519,9.85016666666668
986.866,24.266163809523828
989.212,28.83058238095241
991.556,41.21176571428575
993.899,69.41145619047623
996.24,67.04997285714288
998.579,68.22388380952385
1000.92,74.55340809523813
1003.25,67.8967266666667
1005.59,48.73090142857147
1007.92,74.48561904761908
1010.25,54.208774761904785
1012.58,39.99617809523813
1014.91,55.65769190476196
1017.24,76.71718285714292
1019.56,86.74656047619055
1021.88,115.79332000000005
1024.2,134.28574285714294
1026.52,133.7952857142858
1028.84,148.89271428571436
1031.16,153.33938095238102
1033.48,149.70633333333345
1035.79,169.46871428571438
1038.1,191.05457142857153
1040.41,214.03461904761923
1042.72,252.83609523809542
1045.03,264.36276190476207
1047.33,238.66061904761918
1049.64,206.3000000000001
1051.94,157.94633333333343
1054.24,152.64580952380965
1056.54,165.49200000000008
1058.84,165.81680952380958
1061.13,150.80871428571436
1063.43,146.22804761904771
1065.72,144.02542857142868
1068.01,161.9607142857144
1070.3,193.2223809523811
1072.59,189.23704761904773
1074.87,180.28800000000012
1077.16,186.32576190476203
1079.44,197.06247619047636
1081.72,227.82923809523828
1084.0,275.2430476190478
1086.28,330.1584285714288
1088.56,428.7634761904765
1090.84,569.0081904761909
1093.11,697.6043333333337
1095.38,720.3592380952384
1097.65,636.7465714285718
1099.92,532.4307142857145
1102.19,427.02819047619073
1104.46,370.29809523809547
1106.72,378.2378095238097
1108.98,381.60676190476215
1111.24,411.21176190476217
1113.5,471.3841904761908
1115.76,501.74014285714316
1118.02,502.5151904761908
1120.28,523.9924761904765
1122.53,513.264666666667
1124.78,506.7100952380955
1127.03,465.08857142857164
1129.28,382.92100000000016
1131.53,307.1573809523811
1133.77,266.60480952380965
1136.02,237.73695238095254
1138.26,223.9325238095239
1140.5,201.42761904761917
1142.74,185.98128571428586
1144.98,221.30576190476205
1147.22,259.3034761904763
1149.45,266.73390476190485
1151.69,243.64266666666677
1153.92,226.36128571428586
1156.15,222.98258095238106
1158.38,205.50505714285723
1160.61,199.25990476190486
1162.83,148.05474761904767
1165.06,90.93539047619052
1167.28,60.09071904761909
1169.5,52.56656190476194
1171.72,58.59961428571435
1173.94,87.56911428571432
1176.16,86.1881190476191
1178.37,75.02672380952384
1180.58,78.8932190476191
1182.8,58.45315238095242
1185.01,59.46740000000002
1187.22,41.79214504761906
1189.42,12.236077666666679
1191.63,9.465164857142891
1193.84,31.002516142857168
1196.04,57.32401247619052
1198.24,65.61947766666668
1200.44,59.60290695238096
1202.64,34.17886666666668
1204.84,24.966323809523836
1207.03,19.346263809523837
1209.23,24.890470952380955
1211.42,24.122784761904782
1213.61,31.51985761904764
1215.8,39.46315619047622
1217.99,38.524690952380965
1220.18,23.94327666666666
1222.36,2.2435447619047757
1224.55,6.426434761904784
1226.73,29.064420952380985
1228.91,44.15872714285716
1231.09,61.42489142857147
1233.27,55.76910952380955
1235.44,61.764300000000055
1237.62,51.98355714285719
1239.79,72.90460476190484
1241.96,95.7674333333334
1244.13,138.907461904762
1246.3,142.51705238095246
1248.47,173.5504476190477
1250.64,168.8670000000001
1252.8,181.611761904762
1254.96,197.4061904761906
1257.13,221.6339047619049
1259.29,225.72561904761918
1261.44,246.87452380952396
1263.6,273.368523809524
1265.76,292.3534761904764
1267.91,272.2603333333335
1270.06,252.9492380952382
1272.22,220.51785714285725
1274.37,199.96961904761918
1276.51,204.87833333333347
1278.66,190.53304761904772
1280.81,175.5075714285715
1282.95,169.85285714285726
1285.09,152.00047619047626
1287.23,135.76304761904768
1289.37,138.90557142857148
1291.51,131.4312380952382
1293.65,154.29510476190487
1295.78,154.7862714285715
1297.92,149.95544761904767
1300.05,122.47249047619056
1302.18,129.91206666666676
1304.31,139.65822380952392
1306.44,151.76153333333343
1308.57,164.08214285714297
1310.69,178.62314285714297
1312.82,194.43552380952397
1314.94,233.76057142857158
1317.06,266.31566666666686
1319.18,275.1988571428573
1321.3,292.27023809523826
1323.41,286.86623809523826
1325.53,298.6563333333335
1327.64,322.26261904761924
1329.75,351.9261428571431
1331.87,373.12561904761924
1333.98,379.62609523809544
1336.08,355.1920476190478
1338.19,321.9690476190477
1340.3,269.00742857142865
1342.4,225.92880952380966
1344.5,202.7356666666668
1346.6,192.33509523809533
1348.7,164.49123809523817
1350.8,152.11114285714294
1352.9,140.9592857142858
1354.99,139.8945238095239
1357.09,147.6813333333334
1359.18,155.60714285714292
1361.27,130.43547619047627
1363.36,117.50180952380961
1365.45,110.66476190476197
1367.54,134.21166666666676
1369.62,165.85852380952392
1371.7,191.8446666666668
1373.79,210.64738095238107
1375.87,241.74428571428587
1377.95,250.99323809523827
1380.03,279.1100000000002
1382.1,261.52347619047634
1384.18,231.42509523809534
1386.25,191.1484761904763
1388.33,166.6466000000001
1390.4,137.15778095238102
1392.47,112.82506190476194
1394.54,67.74352857142861
1396.6,43.10376666666669
1398.67,37.28608571428576
1400.74,53.9571571428572
1402.8,90.40183809523816
1404.86,117.23844571428577
1406.92,100.08512190476195
1408.98,84.65532000000005
1411.04,71.47152571428576
1413.09,78.67518666666675
1415.15,78.26508857142862
1417.2,115.38234095238101
1419.25,123.50174285714293
1421.3,123.81209047619056
1423.35,138.50192857142866
1425.4,153.80718571428577
1427.45,135.15446666666676
1429.49,136.35080476190484
1431.54,116.06087142857147
1433.58,102.23447019047627
1435.62,80.48849947619051
1437.66,73.82061800000005
1439.7,82.46593052380958
1441.74,84.85050371428578
1443.77,82.87642328571435
1445.81,88.39797971428575
1447.84,87.69801428571435
1449.87,93.01200952380957
1451.9,104.33664285714292
1453.93,108.66932380952387
1455.96,108.91180000000007
1457.98,95.8227476190477
1460.01,113.87524761904771
1462.03,134.54257142857153
1464.05,185.58347619047635
1466.07,253.28080952380972
1468.09,303.2977619047621
1470.11,371.29785714285737
1472.13,404.3260000000002
1474.14,407.18857142857166
1476.16,390.6920476190478
1478.17,349.6430952380954
1480.18,293.8000952380954
1482.19,270.06482857142873
1484.2,214.43473333333347
1486.21,161.33522857142864
1488.21,136.38258095238103
1490.22,100.24082380952387
1492.22,90.33555714285721
1494.22,69.33068095238099
1496.22,70.03308095238101
1498.22,75.67829047619053
1500.22,67.7400523809524
1502.22,61.35885514285718
1504.21,46.103759190476204
1506.21,7.448712190476219
1508.2,24.486619380952405
1510.19,40.64415219047621
1512.18,39.63358680952385
1514.17,56.40541371428574
1516.16,59.91021333333336
1518.14,46.76530952380956
1520.13,45.39766190476195
1522.11,58.23424285714291
1524.09,71.8450428571429
1526.07,87.51433333333338
1528.05,91.85993333333337
1530.03,96.68994285714291
1532.01,93.14624285714291
1533.98,82.79914761904766
1535.96,64.0286047619048
1537.93,63.262223809523846
1539.9,52.49913333333338
1541.87,67.35740952380957
1543.84,78.36027142857148
1545.81,74.07848571428576
1547.78,84.84470000000007
1549.74,114.65839047619056
1551.7,152.2809380952382
1553.67,181.37864285714295
1555.63,176.38000000000005
1557.59,158.95114285714294
1559.55,145.18704761904772
1561.5,175.13514285714297
1563.46,205.3666666666668
1565.41,230.59585714285726
1567.37,241.48947619047632
1569.32,212.57123809523821
1571.27,175.79366666666678
1573.22,163.7284761904763
1575.17,160.28023809523822
1577.11,156.2590952380953
1579.06,173.23633333333342
1581.0,167.8315238095239
1582.95,164.33095238095248
1584.89,158.49685714285724
1586.83,161.1865238095239
1588.77,147.35319047619058
1590.7,158.425761904762
1592.64,173.88071428571436
1594.58,187.57616666666672
1596.51,195.48866666666675
1598.44,192.9520476190478
