Raman Shift,Processed Intensity
331.095,-24.246181904761578
333.909,12.235606666666762
336.721,4.290833809523825
339.531,-21.62866380952383
342.339,-17.428539999999998
345.145,1.3907800000000066
347.949,8.639722857142871
350.751,30.510707619047622
353.55,22.24489238095236
356.348,-11.248758095238093
359.144,-16.250608571428568
361.937,-11.706439999999985
364.729,5.86756857142862
367.518,71.19482000000008
370.306,116.61884857142867
373.091,172.81783333333345
375.874,256.66188571428586
378.656,315.2126000000002
381.435,307.43769523809533
384.212,243.4016166666667
386.988,132.83660952380953
389.761,21.333586190476204
392.532,-14.562659047619036
395.301,-28.639534761904777
398.068,-23.44463523809524
400.833,-22.61943619047619
403.596,3.0056095238095306
406.358,3.3158161904761814
409.117,-4.468712380952403
411.874,-26.459699047619054
414.629,-18.38649428571427
417.382,9.737223809523853
420.133,48.89921428571432
422.882,55.183790476190524
425.629,105.58118571428582
428.374,153.8450380952382
431.117,230.15848571428592
433.858,285.80126666666683
436.597,281.10167619047627
439.334,212.38905714285724
442.069,149.04116190476196
444.802,104.19913333333344
447.533,94.00416190476199
450.262,143.93248571428586
452.989,205.22262857142871
455.714,249.6376380952382
458.438,227.2271142857144
461.159,195.89873333333338
463.878,113.08393809523817
466.595,93.07247619047627
469.31,84.15453809523818
472.024,115.57307619047629
474.735,120.0956714285715
477.444,148.9188380952382
480.152,140.76314285714295
482.857,163.9682380952382
485.561,184.87461904761918
488.262,193.68009523809533
490.962,162.15438095238102
493.659,158.40042857142865
496.355,146.42657142857155
499.048,174.85994285714298
501.74,175.090061904762
504.43,166.64926666666676
507.118,127.97489047619055
509.804,124.9800761904763
512.488,150.91206190476203
515.17,199.30356190476203
517.85,212.16314285714296
520.528,208.2614285714287
523.204,161.8930000000001
525.878,139.5424000000001
528.551,116.59942380952388
531.221,110.64394285714295
533.89,121.16038571428578
536.556,119.15690476190483
539.221,108.73655238095245
541.883,114.47856190476196
544.544,124.81915714285722
547.203,135.28916190476198
549.86,156.9437476190477
552.515,177.36086666666674
555.168,173.26133333333343
557.819,173.79461904761916
560.469,187.5857142857144
563.116,171.49719047619055
565.761,201.43942857142872
568.405,237.65519047619063
571.047,259.29200000000014
573.687,271.78285714285727
576.324,244.56042857142864
578.96,199.24709523809537
581.594,191.9414761904763
584.227,184.17009523809534
586.857,178.74523809523822
589.485,196.43071428571443
592.112,188.99033333333347
594.737,213.3296666666668
597.359,202.02138095238104
599.98,184.1610000000001
602.599,164.70147619047628
605.216,158.02366666666674
607.831,132.1270000000001
610.445,143.48647619047625
613.056,134.72019047619057
615.666,157.30233333333345
618.274,178.8504285714287
620.88,195.02904761904773
623.484,199.31157142857154
626.086,200.98066666666682
628.686,245.98557142857163
631.284,295.7037619047621
633.881,323.32219047619066
636.476,324.50366666666685
639.068,302.2440952380953
641.659,251.72919047619064
644.249,238.85909523809536
646.836,202.1050476190477
649.421,180.5096476190477
652.005,146.16329047619053
654.587,115.67986666666673
657.166,90.10156190476194
659.745,45.99445714285715
662.321,24.829371428571463
664.895,38.55320476190481
667.468,64.54150476190482
670.038,60.9317904761905
672.607,48.71878571428573
675.174,39.516323809523854
677.739,72.84330952380958
680.303,74.26610000000002
682.864,85.39899047619049
685.424,59.09443809523811
687.982,33.49080952380957
690.538,48.20276190476196
693.092,72.89274285714289
695.645,54.69966190476194
698.195,56.905352380952415
700.744,36.9347
703.291,7.546090476190484
705.836,17.11710952380955
708.38,26.596914285714313
710.921,31.12528095238099
713.461,44.88981428571431
715.999,51.93540476190479
718.535,54.973680952381
721.069,75.0974190476191
723.602,84.49472380952383
726.133,74.02052380952384
728.662,64.10132857142861
731.189,59.21130952380956
733.714,65.2533047619048
736.238,70.51127619047624
738.759,78.79306190476194
741.279,85.57330952380957
743.798,74.46960476190479
746.314,58.62341428571432
748.829,47.6524904761905
751.342,36.26995238095241
753.853,33.52228571428574
756.362,47.21800952380955
758.869,32.49908095238097
761.375,49.507500000000036
763.879,44.480616666666684
766.381,40.227266666666694
768.882,46.7468404761905
771.38,48.13402380952383
773.877,37.00744514285717
776.372,29.795302523809525
778.866,28.878033619047656
781.357,47.87465509523814
783.847,67.68973838095242
786.335,80.60887395238099
788.821,88.15583800000003
791.306,78.33060952380958
793.789,84.27593809523813
796.27,77.75407619047623
798.749,79.76515238095244
801.227,104.26202380952391
803.702,149.24460952380966
806.176,218.04674761904778
808.649,253.8117523809525
811.119,229.30209523809535
813.588,196.47057142857153
816.055,167.22280952380964
818.521,162.41638095238105
820.984,177.7662476190477
823.446,161.93991428571434
825.906,130.9858285714286
828.365,114.3807714285715
830.821,101.8401333333334
833.276,105.36495238095245
835.729,116.57519047619051
838.181,97.80516666666671
840.631,98.38920190476195
843.079,75.18550190476194
845.525,70.90968000000005
847.97,58.37240761904765
850.412,57.38460857142861
852.854,47.37594476190479
855.293,50.63347333333335
857.731,20.920471428571453
860.167,31.238400000000016
862.601,25.06478571428573
865.034,29.020147619047645
867.465,38.62977142857146
869.894,54.94283809523813
872.321,59.15135714285718
874.747,67.44740952380955
877.171,74.64211904761909
879.594,73.35617142857149
882.014,72.49598571428575
884.433,83.44414761904765
886.851,87.9167190476191
889.266,100.67735238095246
891.68,126.48957142857151
894.092,141.5936857142858
896.503,149.51490476190483
898.912,146.49328571428578
901.319,120.10219047619056
903.724,130.91466666666676
906.128,136.40880952380962
908.53,155.25360000000012
910.931,159.9265952380953
913.329,128.09664761904767
915.726,94.1942714285715
918.122,117.17358095238103
920.516,111.6558095238096
922.908,110.54771428571433
925.298,97.70829523809527
927.687,60.85385714285717
930.074,39.98643333333338
932.459,50.726985714285746
934.843,54.31566190476194
937.225,64.89732857142862
939.605,73.9025428571429
941.984,64.52381904761907
944.361,62.763142857142896
946.736,68.00349523809528
949.11,66.1039904761905
951.482,47.066683333333344
953.853,41.79831904761907
956.222,41.34854523809527
958.589,42.528852380952415
960.954,63.76980238095242
963.318,58.311471428571444
965.68,43.346323809523845
968.041,42.400119047619064
970.4,37.42717142857144
972.757,25.38180476190478
975.113,16.313523809523808
977.467,5.271896190476204
979.819,0.020703333333331075
982.17,9.323706666666688
984.519,15.563668095238116
986.866,35.59955428571431
989.212,44.95697000000004
991.556,71.44721047619052
993.899,64.9767571428572
996.24,79.21375714285719
998.579,80.01703809523815
1000.92,82.14999523809529
1003.25,75.8044828571429
1005.59,49.69606857142858
1007.92,45.873637142857206
1010.25,64.38559809523815
1012.58,85.28059428571434
1014.91,94.8450971428572
1017.24,84.36540190476194
1019.56,73.98508095238103
1021.88,99.84727619047626
1024.2,118.61887142857151
1026.52,130.0141476190477
1028.84,141.74766666666676
1031.16,143.53347619047628
1033.48,159.99076190476202
1035.79,159.118761904762
1038.1,175.96485714285728
1040.41,240.00447619047634
1042.72,276.85628571428583
1045.03,276.2813809523811
1047.33,255.13642857142867
1049.64,175.84871428571438
1051.94,142.56028571428584
1054.24,159.22222857142867
1056.54,126.3571571428572
1058.84,129.7258380952382
1061.13,142.6605095238096
1063.43,126.25474285714297
1065.72,156.36425238095248
1068.01,190.79680000000013
1070.3,190.74128571428585
1072.59,205.57728571428584
1074.87,224.54104761904773
1077.16,210.67857142857156
1079.44,213.98776190476204
1081.72,218.32395238095256
1084.0,241.87557142857165
1086.28,318.83114285714316
1088.56,432.18847619047654
1090.84,532.4217619047623
1093.11,610.0525714285717
1095.38,610.2696190476195
1097.65,565.641666666667
1099.92,495.452523809524
1102.19,425.2711904761908
1104.46,381.0954285714287
1106.72,360.2086666666669
1108.98,381.0374285714288
1111.24,395.86461904761927
1113.5,407.5453809523812
1115.76,449.26747619047643
1118.02,470.1715714285717
1120.28,472.39828571428603
1122.53,488.75480952380974
1124.78,458.85752380952397
1127.03,418.323285714286
1129.28,382.7212380952383
1131.53,346.33457142857156
1133.77,282.2564761904763
1136.02,234.5796190476192
1138.26,205.0636190476192
1140.5,189.08709523809534
1142.74,225.076523809524
1144.98,270.9818571428573
1147.22,289.277142857143
1149.45,269.81733333333347
1151.69,257.50514285714297
1153.92,210.86214285714297
1156.15,193.74357142857156
1158.38,179.8617142857144
1160.61,178.881161904762
1162.83,136.8476857142858
1165.06,132.66418095238103
1167.28,122.09074285714293
1169.5,97.45884761904769
1171.72,103.19540000000006
1173.94,107.77484761904766
1176.16,105.76715714285722
1178.37,88.69467380952385
1180.58,78.79408095238098
1182.8,52.54013571428575
1185.01,46.884038095238125
1187.22,45.06265000000003
1189.42,56.741490476190485
1191.63,36.63384095238097
1193.84,19.11969571428573
1196.04,23.436291428571458
1198.24,30.10669952380956
1200.44,47.08262000000005
1202.64,65.55391952380957
1204.84,85.13918857142862
1207.03,53.88568095238098
1209.23,42.60271904761909
1211.42,51.0995428571429
1213.61,61.23354285714291
1215.8,85.24295142857149
1217.99,91.93760142857144
1220.18,51.12748380952384
1222.36,58.003631904761974
1224.55,74.18568380952387
1226.73,92.72211571428579
1228.91,126.61390857142862
1231.09,117.48132380952387
1233.27,111.46822857142865
1235.44,134.52858095238105
1237.62,144.5684476190477
1239.79,145.01777142857154
1241.96,146.54486666666674
1244.13,139.57985714285724
1246.3,163.838761904762
1248.47,187.5141904761906
1250.64,213.22723809523825
1252.8,233.02761904761923
1254.96,255.77442857142873
1257.13,270.2318095238097
1259.29,304.4496190476192
1261.44,327.76366666666684
1263.6,308.4620952380954
1265.76,288.1187619047621
1267.91,253.78385714285727
1270.06,225.2218571428573
1272.22,209.67328571428584
1274.37,203.47466666666676
1276.51,181.24738095238104
1278.66,179.61361904761915
1280.81,182.3379523809525
1282.95,185.47090476190485
1285.09,173.4438571428572
1287.23,157.25995238095246
1289.37,131.4933333333334
1291.51,133.1472380952382
1293.65,146.79590476190486
1295.78,157.82361904761916
1297.92,163.18566666666678
1300.05,180.26590476190486
1302.18,174.5914761904763
1304.31,178.35566666666676
1306.44,178.84733333333347
1308.57,194.30752380952396
1310.69,223.8346666666668
1312.82,262.0984285714287
1314.94,261.62576190476204
1317.06,259.0861904761906
1319.18,233.14938095238108
1321.3,252.53276190476214
1323.41,285.62014285714304
1325.53,320.2241428571431
1327.64,349.4425714285716
1329.75,370.1355714285716
1331.87,373.5914285714288
1333.98,393.3372380952383
1336.08,350.4230952380954
1338.19,346.2804761904764
1340.3,323.7686666666668
1342.4,281.4140952380954
1344.5,265.6003333333335
1346.6,226.23480952380962
1348.7,166.6054761904763
1350.8,148.33395238095247
1352.9,133.27895238095246
1354.99,130.2050000000001
1357.09,144.73333333333343
1359.18,152.38952380952392
1361.27,175.93723809523823
1363.36,190.18828571428583
1365.45,210.52480952380964
1367.54,210.66319047619058
1369.62,204.9859523809525
1371.7,205.68476190476207
1373.79,226.4273809523811
1375.87,269.3107142857145
1377.95,294.4783809523811
1380.03,295.5028571428573
1382.1,274.00452380952396
1384.18,245.1743809523811
1386.25,224.6794285714287
1388.33,212.52052380952395
1390.4,211.41210190476204
1392.47,166.9256090476191
1394.54,117.63282285714291
1396.6,76.58120047619052
1398.67,65.3420514285715
1400.74,65.53416619047626
1402.8,101.68086857142862
1404.86,78.78133333333338
1406.92,63.54912380952385
1408.98,78.84041428571436
1411.04,99.93991428571437
1413.09,124.56050952380963
1415.15,143.65360952380956
1417.2,135.50317142857148
1419.25,116.20276190476199
1421.3,143.84591428571437
1423.35,142.525961904762
1425.4,126.19325714285719
1427.45,110.22713333333341
1429.49,99.19639047619053
1431.54,89.33681904761912
1433.58,84.88422380952385
1435.62,76.07428571428575
1437.66,51.42830000000003
1439.7,42.27714761904765
1441.74,35.71322380952384
1443.77,61.40063333333338
1445.81,62.384076190476236
1447.84,83.04182380952386
1449.87,102.89475238095244
1451.9,96.46373809523816
1453.93,81.93629523809528
1455.96,85.7857571428572
1457.98,86.34253333333342
1460.01,109.07995714285724
1462.03,164.13745714285727
1464.05,201.32180952380966
1466.07,236.34423809523827
1468.09,289.96380952380974
1470.11,324.6536666666668
1472.13,332.601523809524
1474.14,332.8991904761907
1476.16,297.0203809523811
1478.17,256.91447619047636
1480.18,235.6264285714287
1482.19,222.01033333333348
1484.2,195.77818095238106
1486.21,169.5937238095239
1488.21,129.1211714285715
1490.22,102.07216190476196
1492.22,72.25380000000006
1494.22,75.56840952380956
1496.22,52.01386904761907
1498.22,31.159376190476216
1500.22,32.76478333333337
1502.22,56.01858571428575
1504.21,51.96658333333336
1506.21,59.416558095238116
1508.2,34.795438857142855
1510.19,2.5778926666666795
1512.18,1.572071047619068
1514.17,21.062421619047637
1516.16,34.95257295238099
1518.14,51.52719171428575
1520.13,63.26153790476195
1522.11,66.01191904761909
1524.09,64.82525619047621
1526.07,51.60567523809525
1528.05,30.590707619047627
1530.03,24.58939142857146
1532.01,27.553740952380984
1533.98,44.62628000000004
1535.96,45.42582761904763
1537.93,55.42839428571432
1539.9,40.87195857142859
1541.87,41.946936190476215
1543.84,35.41522714285717
1545.81,40.51500761904765
1547.78,44.817672857142924
1549.74,86.37124190476197
1551.7,121.60440952380961
1553.67,157.5649000000001
1555.63,158.3006238095239
1557.59,148.14540000000005
1559.55,122.14706190476197
1561.5,101.35392380952389
1563.46,129.62336666666675
1565.41,144.71758095238104
1567.37,138.49438095238102
1569.32,134.95457142857148
1571.27,140.24126666666675
1573.22,116.49824285714294
1575.17,143.96405714285723
1577.11,151.4967095238096
1579.06,135.71596190476197
1581.0,113.00362380952387
1582.95,127.12202857142864
1584.89,113.21485714285721
1586.83,128.47342857142866
1588.77,141.27995238095244
1590.7,133.96833333333342
1592.64,118.53947619047628
1594.58,125.82757142857155
1596.51,139.76200000000014
1598.44,157.0102619047621
