Raman Shift,Processed Intensity
331.095,73.64451104761874
333.909,10.775682952380635
336.721,-1.0157835476192503
339.531,15.231819714285738
342.339,23.83715271428573
345.145,40.21435533333335
347.949,27.516411428571423
350.751,2.27786857142857
353.55,-4.347005238095253
356.348,-31.536545714285726
359.144,-12.706517619047574
361.937,31.29969238095242
364.729,49.25851761904768
367.518,76.42353428571438
370.306,154.76326666666682
373.091,260.43770952380976
375.874,372.22659047619067
378.656,425.577723809524
381.435,373.4157000000001
384.212,240.0947476190477
386.988,127.5889523809524
389.761,61.159195238095265
392.532,9.257756190476215
395.301,1.2430538095238144
398.068,9.045736190476196
400.833,2.3595271428571474
403.596,-2.3588114285714363
406.358,-14.556131904761923
409.117,-17.39242
411.874,-20.169347619047617
414.629,-18.330204761904767
417.382,-0.3647952380952315
420.133,12.762114285714302
422.882,23.705719047619105
425.629,73.59882857142867
428.374,144.90836190476202
431.117,192.1026809523811
433.858,236.46025714285724
436.597,241.26034285714294
439.334,182.16431904761913
442.069,141.2630190476191
444.802,114.88596666666675
447.533,116.41173333333344
450.262,148.69522380952392
452.989,172.78215238095248
455.714,195.4816666666668
458.438,205.12690476190485
461.159,174.62321904761913
463.878,151.20996571428577
466.595,103.8887823809524
469.31,42.614017142857186
472.024,41.29319380952385
474.735,58.50107428571435
477.444,91.66973476190483
480.152,116.04110857142864
482.857,128.28615238095244
485.561,113.93361428571436
488.262,114.17900952380963
490.962,150.83728095238104
493.659,140.00906666666668
496.355,115.70016190476197
499.048,106.86896190476195
501.74,80.61718571428578
504.43,89.14190476190484
507.118,105.49708571428576
509.804,107.68949523809532
512.488,117.24959047619058
515.17,159.04168571428582
517.85,178.6439095238096
520.528,208.11114285714297
523.204,174.87879047619052
525.878,123.57302380952386
528.551,86.62928571428579
531.221,77.4357190476191
533.89,88.8562476190477
536.556,99.99297619047624
539.221,98.80504761904766
541.883,82.48965238095245
544.544,82.95809047619053
547.203,78.12162380952388
549.86,106.51047142857148
552.515,105.36872380952387
555.168,92.41670000000005
557.819,93.70791904761911
560.469,113.91470476190486
563.116,117.37573333333341
565.761,131.38185714285723
568.405,131.41423333333339
571.047,118.28733333333342
573.687,127.05330952380963
576.324,160.0975714285715
578.96,140.0429952380953
581.594,112.46475714285722
584.227,103.84244285714294
586.857,114.7033380952382
589.485,133.81224285714293
592.112,154.50511904761913
594.737,136.54617142857145
597.359,82.74705238095243
599.98,49.39506666666671
602.599,70.87290952380961
605.216,115.75327619047629
607.831,161.5131837142858
610.445,147.3913434761905
613.056,97.1499345714286
615.666,66.5508522380953
618.274,68.7842393333334
620.88,95.80177204761912
623.484,128.22160752380958
626.086,126.85225714285721
628.686,138.8352666666668
631.284,164.69255238095252
633.881,181.6123809523811
636.476,197.92585714285727
639.068,198.43985714285725
641.659,168.9135714285715
644.249,135.67747619047626
646.836,116.34691428571436
649.421,112.10862857142865
652.005,104.05419523809529
654.587,80.56046666666668
657.166,56.146995238095265
659.745,37.90474761904765
662.321,40.87662857142861
664.895,47.152990476190496
667.468,46.728895238095255
670.038,22.83728095238098
672.607,44.66357142857149
675.174,78.01175238095244
677.739,96.25739523809528
680.303,98.20454761904764
682.864,76.94287142857145
685.424,51.51438571428576
687.982,43.58032380952384
690.538,63.70630000000004
693.092,74.17259523809528
695.645,92.78317619047625
698.195,94.48498571428576
700.744,76.93926666666667
703.291,22.426461904761897
705.836,-11.820528571428573
708.38,-9.473319047619015
710.921,13.701300000000035
713.461,53.317761904761944
715.999,73.41915714285716
718.535,62.048780952380994
721.069,79.2978476190477
723.602,116.30500476190485
726.133,145.542561904762
728.662,154.5307428571429
731.189,122.40880000000003
733.714,69.03041428571431
736.238,64.24957142857149
738.759,77.77707142857152
741.279,94.75272857142865
743.798,124.26902857142863
746.314,118.18016666666674
748.829,108.1978857142858
751.342,125.60535714285722
753.853,130.87613809523816
756.362,111.29357142857151
758.869,121.52242380952387
761.375,114.98871428571435
763.879,109.21463809523817
766.381,113.34121904761912
768.882,106.50928095238102
771.38,93.2888190476191
773.877,94.39286190476197
776.372,91.72432380952387
778.866,88.66297142857148
781.357,100.5410952380953
783.847,109.50011428571435
786.335,97.06300952380958
788.821,96.2766571428572
791.306,97.37825714285721
793.789,125.93839047619058
796.27,154.29002857142865
798.749,162.9561714285715
801.227,160.41285714285723
803.702,149.08823809523818
806.176,170.02980952380966
808.649,200.7612857142858
811.119,203.9969047619049
813.588,196.73676190476198
816.055,173.83814285714294
818.521,152.96780952380962
820.984,154.45938095238105
823.446,165.3134761904763
825.906,173.24452380952394
828.365,194.0631142857144
830.821,176.48383333333342
833.276,151.2694952380953
835.729,126.9443476190477
838.181,130.65251428571435
840.631,119.96603809523818
843.079,124.88633333333341
845.525,108.08094761904766
847.97,95.74161904761912
850.412,100.7742714285715
852.854,124.56116190476197
855.293,108.29405714285718
857.731,83.16492857142862
860.167,77.55612380952387
862.601,86.75511904761912
865.034,84.57318571428577
867.465,118.3926714285715
869.894,110.02504761904768
872.321,99.66251428571435
874.747,108.8307047619048
877.171,95.19825238095243
879.594,82.86246190476197
882.014,103.01570000000005
884.433,114.94585714285722
886.851,133.17864285714293
889.266,142.7640476190477
891.68,155.46595238095247
894.092,146.95357142857154
896.503,144.8481904761906
898.912,183.05685714285727
901.319,192.01066666666676
903.724,180.71190476190486
906.128,177.25844761904767
908.53,125.50992380952387
910.931,115.135561904762
913.329,127.23293333333339
915.726,132.94789523809533
918.122,144.61611428571436
920.516,147.9070666666667
922.908,143.20418095238102
925.298,136.51055238095248
927.687,98.25740000000006
930.074,84.828580952381
932.459,71.8460285714286
934.843,61.693314285714344
937.225,95.18277142857148
939.605,109.31751904761911
941.984,92.24331428571433
944.361,94.9151571428572
946.736,84.33629047619051
949.11,64.60488571428576
951.482,71.77147142857146
953.853,66.8867142857143
956.222,39.28696190476194
958.589,32.641690476190504
960.954,67.33512857142863
963.318,90.41780000000006
965.68,99.98798571428576
968.041,98.33443809523813
970.4,72.46021428571431
972.757,41.606395238095274
975.113,46.77615714285717
977.467,50.44867619047621
979.819,50.19842380952384
982.17,42.64750476190477
984.519,17.560876190476186
986.866,8.417757142857155
989.212,5.125928571428589
991.556,13.307509523809554
993.899,50.91769047619053
996.24,80.91195238095243
998.579,93.62666666666672
1000.92,100.01708095238098
1003.25,94.41930000000004
1005.59,66.2645666666667
1007.92,56.2696047619048
1010.25,50.151295238095265
1012.58,36.05488095238098
1014.91,33.31581428571433
1017.24,58.88870952380958
1019.56,84.10854761904768
1021.88,87.59607142857148
1024.2,89.11463333333337
1026.52,72.4274047619048
1028.84,59.583023809523866
1031.16,93.20169047619056
1033.48,118.47406666666673
1035.79,129.2578523809525
1038.1,168.31521428571438
1040.41,186.3606380952382
1042.72,190.87023809523822
1045.03,207.2721904761906
1047.33,194.42280952380963
1049.64,161.4644761904763
1051.94,148.4915238095239
1054.24,168.93144761904773
1056.54,166.97387619047626
1058.84,157.6648952380953
1061.13,146.9554571428572
1063.43,116.6060857142858
1065.72,119.04373333333345
1068.01,163.83778095238105
1070.3,169.7481428571429
1072.59,152.62985714285722
1074.87,144.2900476190477
1077.16,143.10761904761918
1079.44,185.74695238095256
1081.72,235.01490476190497
1084.0,316.24223809523835
1086.28,389.9979523809527
1088.56,485.9456190476194
1090.84,594.4635238095242
1093.11,695.4059523809528
1095.38,695.341285714286
1097.65,628.0284285714288
1099.92,513.2739523809527
1102.19,410.9794761904765
1104.46,366.23690476190507
1106.72,384.0908571428574
1108.98,377.8236190476193
1111.24,388.0034761904765
1113.5,422.77019047619075
1115.76,469.1203809523812
1118.02,510.4793333333336
1120.28,525.1293333333336
1122.53,482.97176190476216
1124.78,449.4796666666669
1127.03,396.22142857142876
1129.28,329.6698095238097
1131.53,284.2500000000001
1133.77,231.67323809523825
1136.02,194.6504285714287
1138.26,195.13076190476204
1140.5,180.4922857142858
1142.74,171.82728571428584
1144.98,194.9895714285716
1147.22,219.69090476190493
1149.45,246.40438095238113
1151.69,266.88909523809536
1153.92,244.6184285714287
1156.15,201.25638095238105
1158.38,167.61014285714293
1160.61,129.15330952380958
1162.83,120.50263809523815
1165.06,111.60810952380956
1167.28,92.37237619047622
1169.5,56.793195238095265
1171.72,49.96439523809527
1173.94,57.121752380952444
1176.16,71.88283809523814
1178.37,84.10319523809528
1180.58,87.78147619047623
1182.8,71.15448095238098
1185.01,60.31651904761908
1187.22,55.26632380952382
1189.42,14.241356952380945
1191.63,-12.092373523809528
1193.84,-13.068627999999988
1196.04,11.550386857142884
1198.24,22.00269866666669
1200.44,49.1931264761905
1202.64,40.93143409523811
1204.84,32.97992285714289
1207.03,29.38673714285716
1209.23,30.676310476190483
1211.42,20.135151428571447
1213.61,22.287899047619053
1215.8,19.61168571428574
1217.99,31.536123809523836
1220.18,40.967061904761934
1222.36,48.572323809523844
1224.55,58.4484285714286
1226.73,44.02519523809526
1228.91,41.78018571428575
1231.09,46.71479523809527
1233.27,58.64000952380957
1235.44,69.12875238095242
1237.62,87.46848571428578
1239.79,101.99395714285721
1241.96,112.75455238095245
1244.13,116.22817142857149
1246.3,105.84518571428576
1248.47,96.70249523809531
1250.64,102.99273809523818
1252.8,136.62242857142866
1254.96,162.6886857142858
1257.13,189.14598095238105
1259.29,193.2343809523811
1261.44,179.09833333333344
1263.6,178.88323809523823
1265.76,169.5435238095239
1267.91,165.7002380952382
1270.06,160.7365238095239
1272.22,163.65466666666677
1274.37,163.8374761904763
1276.51,174.3350000000001
1278.66,177.34019047619057
1280.81,155.37885714285719
1282.95,144.35785714285723
1285.09,133.42247619047626
1287.23,137.336761904762
1289.37,132.0075714285715
1291.51,157.3899238095239
1293.65,135.58106666666674
1295.78,154.77385714285725
1297.92,139.3038952380953
1300.05,132.12602857142863
1302.18,102.38512380952388
1304.31,95.22626666666673
1306.44,104.88989523809533
1308.57,150.1400000000001
1310.69,170.97906666666677
1312.82,181.5046380952382
1314.94,190.3852380952382
1317.06,194.09933333333345
1319.18,222.8395714285716
1321.3,236.56042857142867
1323.41,237.83576190476208
1325.53,254.90538095238117
1327.64,312.437904761905
1329.75,358.7210476190478
1331.87,370.28066666666683
1333.98,341.83323809523824
1336.08,308.85685714285734
1338.19,294.25809523809545
1340.3,277.8005714285716
1342.4,263.9621904761906
1344.5,209.31638095238105
1346.6,169.9600000000001
1348.7,146.98980952380964
1350.8,152.7884761904763
1352.9,170.5479047619049
1354.99,173.26961904761913
1357.09,163.28852380952392
1359.18,165.7964285714287
1361.27,165.6992380952382
1363.36,169.9509523809525
1365.45,206.36204761904776
1367.54,206.74300000000014
1369.62,237.66661904761924
1371.7,267.08614285714305
1373.79,292.6690000000002
1375.87,291.2259047619049
1377.95,319.09061904761927
1380.03,308.31166666666684
1382.1,297.8420476190478
1384.18,270.6820476190477
1386.25,228.498761904762
1388.33,180.10223809523822
1390.4,175.20706666666675
1392.47,127.48042380952387
1394.54,109.30296190476196
1396.6,81.62707142857148
1398.67,86.8336476190477
1400.74,100.68430952380959
1402.8,129.55981904761913
1404.86,106.5549952380953
1406.92,112.52655238095242
1408.98,88.56908095238103
1411.04,98.34859047619054
1413.09,98.19782380952387
1415.15,112.87773333333341
1417.2,110.5780095238096
1419.25,124.0119714285715
1421.3,119.36900000000006
1423.35,104.93374761904767
1425.4,95.75288571428578
1427.45,81.87245238095242
1429.49,68.48184761904767
1431.54,77.62711428571434
1433.58,70.68788571428576
1435.62,88.42471904761913
1437.66,108.16936666666672
1439.7,105.68206190476197
1441.74,114.9137571428572
1443.77,122.81482857142862
1445.81,102.85994285714293
1447.84,105.85699047619052
1449.87,98.18498571428576
1451.9,87.74689047619054
1453.93,88.49356666666672
1455.96,107.08930000000007
1457.98,111.57982857142866
1460.01,129.2967952380953
1462.03,153.85715238095247
1464.05,182.35414285714296
1466.07,200.262142857143
1468.09,244.15047619047635
1470.11,269.2549047619049
1472.13,270.383142857143
1474.14,274.1520952380954
1476.16,278.41704761904776
1478.17,250.60457142857157
1480.18,248.95065714285727
1482.19,213.97675238095246
1484.2,158.63326666666677
1486.21,137.91800952380962
1488.21,111.35305714285718
1490.22,75.74596190476194
1492.22,62.33266666666668
1494.22,41.73018380952384
1496.22,25.31761000000002
1498.22,22.807081904761915
1500.22,33.2443804761905
1502.22,36.960924761904785
1504.21,34.00246238095241
1506.21,56.081412380952415
1508.2,63.14833333333337
1510.19,41.20149523809526
1512.18,32.62008095238096
1514.17,21.926238095238112
1516.16,20.451728571428603
1518.14,39.19500952380956
1520.13,66.48796190476193
1522.11,64.56733809523811
1524.09,72.19372857142861
1526.07,68.4612047619048
1528.05,63.225795238095266
1530.03,60.20075238095242
1532.01,56.67082380952384
1533.98,47.63512095238099
1535.96,38.235680476190474
1537.93,24.61465142857145
1539.9,15.866648095238116
1541.87,26.991103809523835
1543.84,33.08280428571431
1545.81,52.18896857142861
1547.78,66.07116666666671
1549.74,86.72915238095243
1551.7,79.9246666666667
1553.67,71.80041904761909
1555.63,66.97566666666673
1557.59,93.35480952380959
1559.55,122.9858333333334
1561.5,146.29752380952388
1563.46,142.81347619047625
1565.41,141.58184761904772
1567.37,125.60306190476197
1569.32,127.35350476190484
1571.27,128.83379523809532
1573.22,128.28264761904768
1575.17,130.08090000000007
1577.11,124.32473333333338
1579.06,105.44296190476197
1581.0,110.77001904761914
1582.95,124.73507619047626
1584.89,118.33883809523816
1586.83,109.01042857142863
1588.77,87.27422857142862
1590.7,81.65500952380961
1592.64,125.43936190476202
1594.58,175.747242857143
1596.51,191.67444285714282
1598.44,139.0549619047617
