Raman Shift,Processed Intensity
331.095,24.275190000000208
333.909,27.163463809523904
336.721,7.6345266666667015
339.531,-14.182924761904758
342.339,3.482559047619075
345.145,41.21196380952385
347.949,55.58697142857146
350.751,56.52311428571427
353.55,18.55555238095236
356.348,-32.39894285714287
359.144,-33.422809523809505
361.937,1.11635238095241
364.729,38.85163333333339
367.518,72.8458714285715
370.306,124.16227619047629
373.091,194.4369523809525
375.874,252.4490666666668
378.656,295.2648095238097
381.435,271.0937428571429
384.212,192.48007619047627
386.988,135.96855238095245
389.761,101.01018952380957
392.532,62.77069666666671
395.301,58.84585523809526
398.068,13.879827142857131
400.833,-10.243939999999988
403.596,-14.355230952380962
406.358,-8.47318333333333
409.117,-12.520507619047631
411.874,-16.84735571428574
414.629,-37.088393333333336
417.382,-6.686663333333314
420.133,6.344505714285749
422.882,51.18337619047625
425.629,104.19974761904771
428.374,142.43109523809534
431.117,196.0112571428573
433.858,240.3129333333335
436.597,221.6622380952382
439.334,185.57647619047628
442.069,146.85990476190483
444.802,108.26961904761913
447.533,114.65866666666676
450.262,165.40471428571442
452.989,217.41000000000014
455.714,263.1010761904763
458.438,256.81008095238104
461.159,194.44094285714291
463.878,123.42195714285721
466.595,87.9439333333334
469.31,76.62701428571437
472.024,109.13905714285721
474.735,140.48198095238104
477.444,134.99123809523817
480.152,123.47876190476197
482.857,127.37580952380962
485.561,143.1144761904763
488.262,163.74568571428583
490.962,176.0355476190477
493.659,130.5118047619048
496.355,103.08325238095246
499.048,103.80220476190482
501.74,104.95908095238103
504.43,120.32061428571436
507.118,115.987080952381
509.804,97.72560000000007
512.488,112.8747095238096
515.17,135.72542857142867
517.85,145.0926714285715
520.528,128.2200523809524
523.204,106.54162857142862
525.878,79.68209523809529
528.551,74.59942857142863
531.221,73.15606190476196
533.89,92.35765714285719
536.556,64.92391428571432
539.221,58.71743333333337
541.883,57.17201428571434
544.544,83.72170000000007
547.203,81.8000190476191
549.86,132.5075095238096
552.515,129.7060476190477
555.168,140.82906666666676
557.819,158.30980952380963
560.469,157.2956571428572
563.116,138.36221904761916
565.761,159.32374285714292
568.405,141.51719047619056
571.047,132.80376190476198
573.687,140.0440000000001
576.324,129.19390476190483
578.96,128.4945238095239
581.594,130.0920952380953
584.227,142.79863809523818
586.857,130.61701428571436
589.485,121.8350571428572
592.112,111.74118571428576
594.737,106.14626666666673
597.359,91.29034285714292
599.98,88.60333333333337
602.599,84.99130000000004
605.216,62.02676666666672
607.831,90.80613619047628
610.445,94.7105171428572
613.056,79.50233428571433
615.666,59.84841142857147
618.274,67.36754380952387
620.88,55.05975047619053
623.484,93.01990761904767
626.086,86.86624285714291
628.686,95.07420000000009
631.284,134.92829523809533
633.881,150.85592857142865
636.476,156.85577619047626
639.068,148.4024333333334
641.659,117.49399047619053
644.249,100.27165714285721
646.836,98.16179523809528
649.421,74.8766571428572
652.005,89.22339523809529
654.587,63.43770000000003
657.166,49.5644285714286
659.745,39.12501904761907
662.321,29.59289523809527
664.895,39.67955142857147
667.468,51.001203809523815
670.038,32.93591714285717
672.607,51.4805628571429
675.174,51.44176476190479
677.739,72.0069752380953
680.303,72.50622285714287
682.864,60.98394761904767
685.424,59.3416428571429
687.982,68.00447142857146
690.538,67.15970000000006
693.092,77.08976190476194
695.645,69.1244571428572
698.195,60.26047619047622
700.744,57.16105523809526
703.291,32.67996952380954
705.836,21.67099142857144
708.38,18.5117323809524
710.921,16.484550476190485
713.461,11.205216190476207
715.999,26.194320000000022
718.535,32.40111333333336
721.069,57.25088285714291
723.602,82.40741619047623
726.133,82.629680952381
728.662,42.62908571428572
731.189,42.307528571428605
733.714,35.47198571428575
736.238,51.69111904761909
738.759,60.96262380952384
741.279,60.23650476190478
743.798,52.653461904761954
746.314,66.25878095238099
748.829,77.43151428571433
751.342,74.88400952380955
753.853,59.99541428571431
756.362,44.90684285714289
758.869,56.569185714285744
761.375,62.55225714285719
763.879,64.23560952380956
766.381,76.189380952381
768.882,72.74566666666671
771.38,62.80812857142861
773.877,72.70886666666672
776.372,89.11377142857147
778.866,91.4029333333334
781.357,94.14702857142859
783.847,74.91674761904764
786.335,41.282904761904796
788.821,41.81624285714291
791.306,60.421361904761966
793.789,94.04994285714291
796.27,86.13039523809529
798.749,119.28133333333341
801.227,126.9790238095239
803.702,155.41397142857153
806.176,163.01463809523815
808.649,155.20951428571433
811.119,110.95100476190484
813.588,128.7153238095239
816.055,136.93168095238104
818.521,146.12416190476196
820.984,127.86442857142862
823.446,88.2958523809524
825.906,57.32349523809529
828.365,71.51914761904769
830.821,87.31215714285719
833.276,107.70321428571435
835.729,95.93096666666669
838.181,66.51994761904766
840.631,61.1852428571429
843.079,63.02271428571433
845.525,66.89048000000005
847.97,61.50382285714287
850.412,57.81580761904766
852.854,48.92277238095241
855.293,46.53997904761909
857.731,53.001780000000046
860.167,71.64255142857147
862.601,75.46339047619054
865.034,87.60815238095243
867.465,87.6971571428572
869.894,60.63637619047623
872.321,60.04581904761909
874.747,60.831666666666706
877.171,72.70946190476195
879.594,70.58524761904766
882.014,79.98411428571433
884.433,65.57406190476195
886.851,60.260990476190514
889.266,74.90351904761911
891.68,100.93165714285723
894.092,127.29915238095246
896.503,139.53124285714293
898.912,133.34376190476195
901.319,113.73791904761912
903.724,109.47716190476197
906.128,116.89630000000008
908.53,106.6634190476191
910.931,105.49436190476197
913.329,96.58118095238102
915.726,114.16314285714293
918.122,108.28977142857148
920.516,116.29568571428578
922.908,103.99216190476197
925.298,124.90440000000008
927.687,135.224561904762
930.074,144.76344285714293
932.459,140.61801904761913
934.843,130.98010000000008
937.225,108.08950952380958
939.605,83.42386190476194
941.984,74.41329047619053
944.361,69.96412380952387
946.736,84.64936666666674
949.11,116.2799714285715
951.482,124.09560952380957
953.853,105.81210000000004
956.222,85.76409523809528
958.589,70.52471428571434
960.954,75.9524095238096
963.318,96.47727619047625
965.68,98.95796190476196
968.041,102.34829523809529
970.4,88.79252380952386
972.757,71.38727619047624
975.113,83.80050476190479
977.467,59.93848095238097
979.819,31.13584285714287
982.17,16.10824285714287
984.519,14.2379285714286
986.866,28.526176190476235
989.212,64.4980285714286
991.556,69.82141904761909
993.899,93.35452857142863
996.24,104.57480952380959
998.579,108.43571428571435
1000.92,98.31925238095242
1003.25,84.55970476190481
1005.59,58.44367142857148
1007.92,61.44805714285719
1010.25,66.85940000000004
1012.58,81.48789523809529
1014.91,89.09606190476197
1017.24,73.01768571428573
1019.56,65.58654761904765
1021.88,57.707704761904814
1024.2,85.09573809523819
1026.52,118.94107142857152
1028.84,167.81517142857152
1031.16,160.3846190476191
1033.48,166.22042857142867
1035.79,170.46519047619057
1038.1,179.2140000000001
1040.41,184.37109523809536
1042.72,203.26928571428581
1045.03,195.47952380952393
1047.33,200.6197142857144
1049.64,209.35580952380963
1051.94,186.5439523809525
1054.24,180.27842857142866
1056.54,195.79652380952393
1058.84,204.19228571428587
1061.13,239.79800000000017
1063.43,234.660142857143
1065.72,223.30085714285727
1068.01,218.0049047619049
1070.3,209.15180952380967
1072.59,206.40680952380967
1074.87,230.67309523809536
1077.16,214.71123809523823
1079.44,209.8049523809525
1081.72,225.90571428571442
1084.0,237.29733333333354
1086.28,321.9308095238098
1088.56,422.13719047619077
1090.84,539.4391428571432
1093.11,623.1678095238099
1095.38,667.988666666667
1097.65,617.8522380952385
1099.92,544.8043809523813
1102.19,443.6050476190479
1104.46,388.2526666666669
1106.72,354.6024761904764
1108.98,367.70071428571447
1111.24,385.1167142857145
1113.5,413.4201904761907
1115.76,438.41914285714313
1118.02,456.11152380952404
1120.28,456.4006190476193
1122.53,428.80852380952405
1124.78,407.6668571428574
1127.03,367.3073809523811
1129.28,329.72871428571443
1131.53,279.78609523809536
1133.77,229.1922857142858
1136.02,170.32661904761915
1138.26,166.61642857142868
1140.5,178.86980952380966
1142.74,195.08561904761913
1144.98,212.35766666666677
1147.22,228.9226190476192
1149.45,233.20771428571445
1151.69,230.1166666666668
1153.92,211.31514285714292
1156.15,180.46885714285727
1158.38,171.10080952380966
1160.61,177.40038095238106
1162.83,174.93776190476197
1165.06,162.71279047619055
1167.28,138.15323333333342
1169.5,105.87754285714291
1171.72,87.6949190476191
1173.94,78.0334047619048
1176.16,70.2258428571429
1178.37,60.796242857142886
1180.58,50.26803333333335
1182.8,47.0698666666667
1185.01,29.487514285714298
1187.22,26.521219047619073
1189.42,28.552257142857165
1191.63,48.96201523809528
1193.84,47.941500952380984
1196.04,67.01520666666669
1198.24,52.61242285714288
1200.44,55.35304380952384
1202.64,41.142783333333355
1204.84,53.22074666666669
1207.03,37.7784842857143
1209.23,35.43615619047621
1211.42,24.194961904761918
1213.61,29.72278666666668
1215.8,17.259025238095255
1217.99,25.138340000000017
1220.18,16.647762857142865
1222.36,16.979120000000012
1224.55,15.324264285714303
1226.73,29.63700000000003
1228.91,43.109216666666704
1231.09,61.59948571428576
1233.27,80.06181904761911
1235.44,92.35469047619053
1237.62,91.57483333333337
1239.79,77.43806666666669
1241.96,70.70784285714291
1244.13,51.338128571428605
1246.3,69.42587142857148
1248.47,71.21066190476195
1250.64,101.07502380952388
1252.8,111.06836190476199
1254.96,140.66830476190484
1257.13,130.54320476190483
1259.29,128.64720000000008
1261.44,134.3152238095239
1263.6,147.73928095238102
1265.76,144.11176666666674
1267.91,136.52930000000006
1270.06,134.37475238095246
1272.22,116.31643809523817
1274.37,129.97503809523818
1276.51,126.92373809523815
1278.66,122.21173809523815
1280.81,85.17400000000005
1282.95,88.76480476190481
1285.09,64.84273809523813
1287.23,61.69521428571434
1289.37,96.80025238095247
1291.51,133.58777142857153
1293.65,144.86934285714295
1295.78,141.21800952380957
1297.92,116.49230476190482
1300.05,92.31294285714293
1302.18,100.63395238095245
1304.31,90.55196666666671
1306.44,95.25940000000006
1308.57,107.61466190476199
1310.69,120.71462857142865
1312.82,126.9893380952382
1314.94,156.29745714285724
1317.06,158.21204761904775
1319.18,189.73423809523823
1321.3,202.86566666666678
1323.41,208.5125238095239
1325.53,208.72376190476203
1327.64,224.83409523809536
1329.75,232.13071428571442
1331.87,251.28114285714298
1333.98,238.19190476190494
1336.08,256.24495238095255
1338.19,263.0608571428573
1340.3,251.73576190476206
1342.4,234.8897238095239
1344.5,174.3810571428572
1346.6,133.06801904761917
1348.7,134.5230857142858
1350.8,137.12851428571437
1352.9,122.74224285714291
1354.99,136.84128571428576
1357.09,116.4266238095239
1359.18,124.5940857142858
1361.27,135.963661904762
1363.36,168.67901904761914
1365.45,168.9312380952382
1367.54,181.43533333333346
1369.62,184.47771428571443
1371.7,209.43976190476204
1373.79,219.41719047619065
1375.87,268.2677142857145
1377.95,282.9916190476192
1380.03,277.73223809523824
1382.1,244.20423809523822
1384.18,248.979142857143
1386.25,214.43785714285727
1388.33,191.53333333333342
1390.4,162.12241904761913
1392.47,135.6339095238096
1394.54,101.78203809523816
1396.6,106.32857619047624
1398.67,84.51130952380959
1400.74,83.18744285714293
1402.8,100.40397619047626
1404.86,119.01790476190484
1406.92,125.55239523809531
1408.98,149.43545714285722
1411.04,133.0475333333334
1413.09,126.29287619047628
1415.15,127.59943809523817
1417.2,112.3948952380953
1419.25,107.29710476190485
1421.3,120.11480952380958
1423.35,102.7042714285715
1425.4,107.68330476190484
1427.45,109.86052380952388
1429.49,97.28213809523814
1431.54,88.08948571428576
1433.58,81.99562380952386
1435.62,76.80856190476194
1437.66,63.38367380952384
1439.7,53.957557142857176
1441.74,50.33795000000002
1443.77,29.665833333333357
1445.81,39.60595952380956
1447.84,52.01347142857147
1449.87,76.55281428571436
1451.9,109.6028571428572
1453.93,119.97085238095244
1455.96,107.17815238095244
1457.98,115.79390000000006
1460.01,105.53002857142867
1462.03,139.5268238095239
1464.05,170.21013333333346
1466.07,185.4821904761906
1468.09,208.00676190476204
1470.11,234.8769523809525
1472.13,238.5662857142859
1474.14,251.1198571428573
1476.16,247.72485714285727
1478.17,238.1410952380954
1480.18,232.41304761904775
1482.19,198.53869047619057
1484.2,166.84846666666675
1486.21,120.53058571428576
1488.21,93.86804761904767
1490.22,85.85880476190482
1492.22,84.45242380952384
1494.22,73.98018571428577
1496.22,64.01109523809525
1498.22,43.5907666666667
1500.22,46.860061904761935
1502.22,48.578909523809536
1504.21,24.983523809523817
1506.21,28.881771428571447
1508.2,25.93866666666668
1510.19,20.057483333333348
1512.18,21.094019047619057
1514.17,18.61851666666667
1516.16,17.677471428571465
1518.14,32.603316666666686
1520.13,45.395200000000024
1522.11,45.95722380952383
1524.09,48.57450952380955
1526.07,38.67519523809526
1528.05,47.163709523809544
1530.03,33.70655714285717
1532.01,47.06539047619052
1533.98,60.28796190476194
1535.96,76.5172285714286
1537.93,70.65814761904767
1539.9,72.90153809523812
1541.87,57.81920000000004
1543.84,57.84003809523813
1545.81,55.44095238095242
1547.78,56.384461904761935
1549.74,71.43322857142863
1551.7,104.63550952380959
1553.67,124.27815714285721
1555.63,136.17143809523816
1557.59,134.50699047619054
1559.55,117.28580952380959
1561.5,110.74719047619055
1563.46,125.79709523809532
1565.41,131.05566666666675
1567.37,156.5717142857144
1569.32,165.53738095238103
1571.27,147.42993809523819
1573.22,115.53658095238103
1575.17,115.90661428571434
1577.11,96.30291428571434
1579.06,94.48913809523815
1581.0,88.13366190476195
1582.95,75.52349047619053
1584.89,87.27937619047627
1586.83,108.30766190476196
1588.77,102.51454761904768
1590.7,93.47311428571433
1592.64,82.28022380952386
1594.58,77.05648095238101
1596.51,83.06543095238109
1598.44,105.47535714285746
