Raman Shift,Processed Intensity
331.095,-7.868280000000081
333.909,-8.001060952380895
336.721,2.583937619047698
339.531,21.84399904761908
342.339,48.68862095238101
345.145,79.86083904761908
347.949,99.9853104761905
350.751,62.40158095238097
353.55,41.164104761904795
356.348,24.089809523809546
359.144,21.663300000000035
361.937,37.08408571428578
364.729,86.69525238095245
367.518,117.84084761904774
370.306,181.0565904761906
373.091,280.4023904761907
375.874,364.7489523809526
378.656,377.4918095238097
381.435,342.8840000000002
384.212,259.7044000000001
386.988,151.78023333333343
389.761,91.74912857142861
392.532,33.25029523809523
395.301,-20.028235714285717
398.068,-47.96904285714287
400.833,-39.73832142857141
403.596,0.49838380952383154
406.358,30.862991428571444
409.117,41.38343238095239
411.874,12.32714809523806
414.629,-11.751396190476184
417.382,-32.62966428571427
420.133,2.2017980952381464
422.882,54.25371142857149
425.629,91.4671828571429
428.374,112.78386761904773
431.117,185.7657961904763
433.858,208.3097142857144
436.597,248.45604761904775
439.334,247.72247619047627
442.069,211.7706666666668
444.802,189.8341904761906
447.533,170.05266666666677
450.262,183.281142857143
452.989,219.51785714285728
455.714,216.95261904761918
458.438,222.44214285714295
461.159,198.84400000000005
463.878,140.2070476190477
466.595,132.9142857142858
469.31,136.9680000000001
472.024,131.37138095238106
474.735,152.17538095238103
477.444,156.43114285714293
480.152,145.23866666666675
482.857,138.31709523809533
485.561,123.86214285714294
488.262,122.450761904762
490.962,141.8507142857144
493.659,168.7821523809525
496.355,164.01400476190486
499.048,144.7433714285715
501.74,111.69128095238102
504.43,90.48397619047626
507.118,81.84306190476198
509.804,89.72817619047625
512.488,100.48051428571438
515.17,151.05989047619062
517.85,186.52142857142866
520.528,196.87331428571437
523.204,155.980280952381
525.878,111.80254285714292
528.551,70.96703333333339
531.221,84.62428571428578
533.89,93.06753809523815
536.556,106.63812380952388
539.221,104.29569523809533
541.883,122.95250476190486
544.544,148.2349047619049
547.203,166.95985714285726
549.86,172.61038095238106
552.515,166.90771428571438
555.168,157.71576190476202
557.819,139.46971428571436
560.469,150.79452380952392
563.116,135.17266666666677
565.761,147.0862380952382
568.405,160.54042857142866
571.047,158.15990476190484
573.687,149.18819047619058
576.324,143.01060000000007
578.96,114.29860000000008
581.594,118.10420000000006
584.227,110.76454285714291
586.857,114.33072380952389
589.485,129.09221904761912
592.112,145.33764761904771
594.737,155.35572380952388
597.359,151.7203095238096
599.98,106.38608095238101
602.599,94.68813809523814
605.216,97.67552857142864
607.831,110.6353000000001
610.445,128.28278571428578
613.056,129.9521333333334
615.666,110.69110476190482
618.274,105.02386666666673
620.88,105.04492380952387
623.484,106.51603809523816
626.086,105.19797142857152
628.686,127.18500952380961
631.284,150.9994380952382
633.881,177.35400000000013
636.476,185.43723809523823
639.068,173.00876190476197
641.659,144.78014285714295
644.249,126.84390476190484
646.836,120.14985714285721
649.421,123.64706285714293
652.005,99.14173428571434
654.587,70.39181714285718
657.166,34.20306666666667
659.745,10.761970476190502
662.321,17.25505714285716
664.895,16.820769523809535
667.468,31.12115333333337
670.038,42.913710476190495
672.607,58.57468571428576
675.174,60.670714285714304
677.739,64.7683904761905
680.303,38.719927619047624
682.864,22.47255619047619
685.424,0.8309742857142988
687.982,14.361534285714303
690.538,14.535431428571453
693.092,35.91910380952384
695.645,46.174256190476214
698.195,51.15308571428575
700.744,52.18401428571432
703.291,61.40500952380955
705.836,52.477914285714306
708.38,27.636061904761913
710.921,18.779552380952396
713.461,9.80849523809525
715.999,32.099357142857194
718.535,52.504790476190514
721.069,77.16330952380957
723.602,90.64190952380957
726.133,112.74626666666673
728.662,103.04354761904767
731.189,102.10124761904765
733.714,80.96306190476196
736.238,72.57757619047624
738.759,66.55999523809528
741.279,66.0499523809524
743.798,50.329504761904786
746.314,35.06201428571431
748.829,41.00617619047623
751.342,58.44458571428575
753.853,68.65999523809528
756.362,67.45911333333335
758.869,41.077360952380964
761.375,30.464579047619065
763.879,15.237420000000004
766.381,11.346012380952399
768.882,8.026389523809538
771.38,41.32413714285719
773.877,64.38047142857147
776.372,85.28904285714289
778.866,74.33415714285715
781.357,64.80025714285718
783.847,51.59098095238101
786.335,71.75291428571433
788.821,85.38057142857147
791.306,87.61613809523814
793.789,83.03052857142862
796.27,85.14715238095243
798.749,76.39429047619052
801.227,83.48634285714292
803.702,87.99451428571433
806.176,93.58579047619054
808.649,107.87929047619056
811.119,135.4945333333334
813.588,144.5750000000001
816.055,158.50214285714293
818.521,158.80042857142865
820.984,143.5663333333334
823.446,149.89557142857154
825.906,148.2657095238096
828.365,128.5827571428572
830.821,111.13326190476198
833.276,92.0617047619048
835.729,99.51260476190484
838.181,108.01083333333338
840.631,101.89156666666672
843.079,71.44210000000004
845.525,67.47377619047623
847.97,49.94079047619052
850.412,59.5594047619048
852.854,65.04575714285718
855.293,59.259090476190494
857.731,47.153833333333374
860.167,43.160909523809536
862.601,37.9490285714286
865.034,26.187133333333357
867.465,40.78234761904765
869.894,41.070352380952414
872.321,67.05351904761909
874.747,65.54386190476194
877.171,69.35334761904765
879.594,62.436923809523854
882.014,70.74936190476197
884.433,87.05529047619055
886.851,116.78570952380957
889.266,115.75296666666672
891.68,102.24538571428577
894.092,93.40856666666673
896.503,99.76854761904768
898.912,97.32835714285721
901.319,127.28089047619058
903.724,134.43859047619054
906.128,127.1374095238096
908.53,127.33241904761913
910.931,124.74031428571432
913.329,96.74490000000007
915.726,109.7297333333334
918.122,97.60215238095243
920.516,87.0314428571429
922.908,86.21066190476196
925.298,93.04708380952385
927.687,75.49561476190479
930.074,59.08264380952383
932.459,49.85810428571432
934.843,43.205429523809556
937.225,46.22220047619053
939.605,73.05359809523813
941.984,73.51141904761907
944.361,71.12171980952385
946.736,61.88662266666668
949.11,46.37970723809526
951.482,27.555383047619067
953.853,32.12993676190479
956.222,26.438635523809545
958.589,37.53096933333335
960.954,32.408725238095265
963.318,35.311716190476226
965.68,57.813050952381005
968.041,78.91425809523813
970.4,62.18826428571431
972.757,49.16030000000001
975.113,26.40313571428572
977.467,11.679938095238127
979.819,28.134767142857164
982.17,32.95920047619048
984.519,16.011410476190484
986.866,16.24473285714288
989.212,31.75525333333338
991.556,57.543710000000054
993.899,90.6584933333334
996.24,103.81434761904768
998.579,95.20219047619052
1000.92,79.96530000000004
1003.25,74.2944428571429
1005.59,63.237428571428616
1007.92,62.84217142857147
1010.25,49.77525714285718
1012.58,79.7032333333334
1014.91,99.05466666666673
1017.24,118.87698095238102
1019.56,115.40796190476196
1021.88,117.8854714285715
1024.2,98.78510476190485
1026.52,115.43963333333343
1028.84,139.27721904761916
1031.16,168.249561904762
1033.48,176.6895238095239
1035.79,177.16790476190482
1038.1,173.54066666666677
1040.41,178.3307142857144
1042.72,185.39452380952392
1045.03,196.54014285714294
1047.33,191.76709523809532
1049.64,180.6932380952382
1051.94,176.46004761904774
1054.24,187.44752380952394
1056.54,185.98761904761915
1058.84,182.79300000000012
1061.13,196.29161904761918
1063.43,210.67228571428586
1065.72,211.88600000000014
1068.01,199.78866666666676
1070.3,171.6162857142858
1072.59,160.367761904762
1074.87,174.1367142857144
1077.16,195.35023809523824
1079.44,221.00661904761918
1081.72,249.43761904761922
1084.0,280.4987619047621
1086.28,379.18842857142886
1088.56,479.6475714285718
1090.84,594.3983809523813
1093.11,659.8201904761908
1095.38,678.863666666667
1097.65,617.5747619047622
1099.92,528.6654285714288
1102.19,438.80095238095265
1104.46,382.407904761905
1106.72,347.81819047619075
1108.98,373.6488571428574
1111.24,395.136285714286
1113.5,444.8497619047622
1115.76,494.2163809523813
1118.02,504.4247619047622
1120.28,506.4253809523813
1122.53,493.359285714286
1124.78,458.98700000000025
1127.03,424.21119047619067
1129.28,340.60166666666674
1131.53,265.7756190476192
1133.77,211.73119047619056
1136.02,164.89533333333344
1138.26,148.83771428571436
1140.5,137.41380952380962
1142.74,139.5746666666668
1144.98,189.17552380952392
1147.22,242.69119047619063
1149.45,266.59609523809536
1151.69,253.8886666666668
1153.92,219.75795238095253
1156.15,204.05976190476204
1158.38,180.12590476190488
1160.61,174.90733333333344
1162.83,167.21209619047625
1165.06,116.70571285714291
1167.28,87.5771971428572
1169.5,83.11116333333337
1171.72,66.25890190476196
1173.94,66.92387476190481
1176.16,73.58130571428573
1178.37,51.515842857142886
1180.58,38.58362857142859
1182.8,33.68852380952383
1185.01,26.92488571428573
1187.22,32.9109904761905
1189.42,36.16992380952384
1191.63,29.462931428571434
1193.84,6.456083809523808
1196.04,-0.37489904761903947
1198.24,9.921930476190512
1200.44,32.870096190476225
1202.64,68.61224571428576
1204.84,74.6721504761905
1207.03,64.71646476190479
1209.23,43.84056466666668
1211.42,24.94942847619048
1213.61,6.61479685714287
1215.8,2.075217619047624
1217.99,6.75983342857145
1220.18,29.907335333333354
1222.36,29.61373647619049
1224.55,32.02273961904764
1226.73,50.087616476190504
1228.91,46.142774476190496
1231.09,44.951232476190505
1233.27,43.56178152380954
1235.44,50.832904761904814
1237.62,60.33742857142863
1239.79,100.88609523809532
1241.96,108.19494285714292
1244.13,122.59900000000007
1246.3,108.71891904761911
1248.47,124.3659333333334
1250.64,111.73239047619053
1252.8,120.10574285714291
1254.96,119.5832238095239
1257.13,149.3097523809525
1259.29,172.09693809523822
1261.44,197.32791428571437
1263.6,181.71928571428583
1265.76,165.55885714285722
1267.91,151.27723809523818
1270.06,134.971761904762
1272.22,133.21666666666675
1274.37,139.68100000000007
1276.51,134.03395238095246
1278.66,147.99216190476199
1280.81,144.74842380952387
1282.95,141.44783809523818
1285.09,125.52206666666675
1287.23,122.497161904762
1289.37,126.37607619047627
1291.51,142.06609523809533
1293.65,136.71277619047626
1295.78,145.88985714285724
1297.92,127.98110476190482
1300.05,105.5127333333334
1302.18,102.48780000000008
1304.31,109.05154285714293
1306.44,115.30215238095246
1308.57,140.81358095238105
1310.69,142.20752380952388
1312.82,141.62919047619056
1314.94,140.1768095238096
1317.06,153.04333333333346
1319.18,174.4696666666668
1321.3,214.3154285714287
1323.41,227.20228571428586
1325.53,222.46585714285723
1327.64,223.5373809523811
1329.75,256.419523809524
1331.87,296.68600000000015
1333.98,314.6249047619049
1336.08,324.3340000000001
1338.19,288.3870000000001
1340.3,261.73857142857156
1342.4,241.29582857142867
1344.5,193.91801904761914
1346.6,145.41713333333342
1348.7,128.2236952380953
1350.8,113.29203809523817
1352.9,123.1477333333334
1354.99,132.1262095238096
1357.09,128.08661904761914
1359.18,136.88785714285726
1361.27,135.8175714285715
1363.36,125.16304761904772
1365.45,135.49719047619058
1367.54,148.91690476190487
1369.62,169.04261904761916
1371.7,205.63747619047632
1373.79,215.4174285714287
1375.87,226.52619047619064
1377.95,236.2984285714287
1380.03,222.592142857143
1382.1,208.646142857143
1384.18,206.50914285714293
1386.25,180.0867142857144
1388.33,165.2362857142858
1390.4,154.67315238095244
1392.47,119.39761428571434
1394.54,107.02878761904769
1396.6,75.28134714285717
1398.67,62.82191333333337
1400.74,47.93609571428575
1402.8,59.33819904761909
1404.86,61.74215190476195
1406.92,72.05228761904765
1408.98,63.982409523809565
1411.04,55.15089047619049
1413.09,51.747447619047655
1415.15,51.29493333333337
1417.2,62.31610952380957
1419.25,72.52407619047624
1421.3,94.06040000000004
1423.35,80.59026666666672
1425.4,86.63594761904767
1427.45,65.62429523809527
1429.49,58.696340952380986
1431.54,38.89778380952384
1433.58,29.083700952380973
1435.62,29.585278095238134
1437.66,48.06692000000004
1439.7,68.95490761904767
1441.74,98.19904095238101
1443.77,87.79675238095241
1445.81,75.31679047619052
1447.84,80.28030952380956
1449.87,73.97011428571433
1451.9,78.52629523809529
1453.93,71.23153809523812
1455.96,71.08276666666673
1457.98,81.74371904761912
1460.01,105.4971476190477
1462.03,141.1489523809525
1464.05,163.07709523809535
1466.07,166.61157142857155
1468.09,188.27314285714294
1470.11,201.67761904761917
1472.13,216.91704761904776
1474.14,243.03533333333348
1476.16,249.21976190476207
1478.17,254.18128571428588
1480.18,241.82147619047632
1482.19,228.28000000000011
1484.2,194.60114285714295
1486.21,168.21008571428578
1488.21,125.29414761904769
1490.22,97.99311428571434
1492.22,70.44656190476194
1494.22,58.74688571428574
1496.22,31.176557142857177
1498.22,53.58968571428575
1500.22,54.79297619047622
1502.22,56.831206666666695
1504.21,42.84442571428573
1506.21,34.16329904761907
1508.2,33.1661428571429
1510.19,44.802836666666686
1512.18,47.16621047619049
1514.17,28.01584047619047
1516.16,10.159056190476207
1518.14,1.4509471428571636
1520.13,30.175259047619086
1522.11,41.5682666666667
1524.09,62.77112380952385
1526.07,60.68701428571432
1528.05,76.12400476190481
1530.03,77.89033333333337
1532.01,78.74669047619051
1533.98,57.64436666666669
1535.96,43.53476666666669
1537.93,46.17895714285719
1539.9,51.48092857142861
1541.87,67.20197142857147
1543.84,78.62725238095243
1545.81,76.89917619047625
1547.78,85.87468571428576
1549.74,104.6485190476191
1551.7,97.50624761904768
1553.67,110.87676190476199
1555.63,126.95026666666675
1557.59,134.72714285714295
1559.55,146.6835714285715
1561.5,140.48652380952387
1563.46,135.3742857142858
1565.41,135.6335714285715
1567.37,137.26461904761916
1569.32,131.98252380952388
1571.27,142.263761904762
1573.22,139.680761904762
1575.17,150.51976190476202
1577.11,149.1630000000001
1579.06,145.7540000000001
1581.0,155.5319523809525
1582.95,174.45033333333342
1584.89,196.27201904761918
1586.83,188.5221857142858
1588.77,165.82103809523818
1590.7,139.97933809523818
1592.64,138.61756190476197
1594.58,142.49894285714277
1596.51,141.45797142857128
1598.44,126.32919761904745
