Raman Shift,Processed Intensity
331.095,161.67232809523802
333.909,42.63817476190475
336.721,8.978616904761992
339.531,24.154922857142896
342.339,27.794853809523836
345.145,30.764612380952414
347.949,77.21632238095242
350.751,50.63629809523812
353.55,55.797030000000014
356.348,48.28083238095237
359.144,21.051709523809542
361.937,11.502895238095293
364.729,58.17121428571433
367.518,65.73700476190484
370.306,131.8339809523811
373.091,216.8584095238097
375.874,315.112104761905
378.656,350.13623809523824
381.435,318.8537047619049
384.212,218.14030190476194
386.988,124.44477809523812
389.761,24.59759047619049
392.532,-17.33162952380952
395.301,-13.176327619047594
398.068,10.801902857142883
400.833,34.676315238095256
403.596,43.807142857142836
406.358,-12.634548571428615
409.117,-51.33371523809524
411.874,-39.35470095238096
414.629,-27.999079523809517
417.382,4.004603809523839
420.133,50.21467190476194
422.882,77.71456571428581
425.629,130.44594714285725
428.374,176.3514923809525
431.117,208.89884761904776
433.858,210.65180952380962
436.597,186.46109523809534
439.334,172.65433333333343
442.069,153.51260000000008
444.802,114.17495714285722
447.533,117.25748571428582
450.262,133.85299523809533
452.989,159.62677142857157
455.714,205.53014761904777
458.438,217.7533142857144
461.159,184.58242857142864
463.878,144.1140952380953
466.595,136.492761904762
469.31,117.57764285714292
472.024,118.32390476190486
474.735,147.68673809523818
477.444,176.52666666666676
480.152,173.70535714285722
482.857,178.65542857142864
485.561,139.28619047619054
488.262,130.93609523809533
490.962,145.27690476190486
493.659,149.12376190476198
496.355,135.863761904762
499.048,123.02638095238102
501.74,116.71309523809532
504.43,111.78723809523815
507.118,114.49319047619055
509.804,109.40933333333341
512.488,114.87571428571438
515.17,149.47062857142868
517.85,174.86750000000006
520.528,154.73975238095244
523.204,126.04652380952388
525.878,93.89027619047626
528.551,97.27767619047629
531.221,116.12065238095246
533.89,116.56870952380957
536.556,109.81908571428576
539.221,76.78320000000005
541.883,78.99135238095245
544.544,110.21189523809531
547.203,117.78459047619054
549.86,116.66796190476198
552.515,120.48698571428577
555.168,114.77157142857152
557.819,134.86078571428578
560.469,145.8553333333334
563.116,133.57000000000005
565.761,141.15266666666676
568.405,150.2272380952382
571.047,154.51309523809536
573.687,164.10971428571438
576.324,128.02126190476196
578.96,108.91855238095248
581.594,100.6622428571429
584.227,93.35110476190484
586.857,112.46481428571437
589.485,127.9582095238096
592.112,124.8818476190477
594.737,124.9048666666667
597.359,100.74347619047624
599.98,78.875780952381
602.599,103.82763809523816
605.216,113.74288571428576
607.831,112.05129523809528
610.445,84.3250142857143
613.056,57.37397619047621
615.666,49.626928571428635
618.274,77.27470952380959
620.88,102.60247619047624
623.484,92.75259047619052
626.086,85.24810952380957
628.686,87.08783333333342
631.284,123.74659523809535
633.881,159.4612523809525
636.476,179.27762857142866
639.068,158.14585714285718
641.659,138.30190476190484
644.249,123.55269523809531
646.836,117.6573857142858
649.421,120.47020000000008
652.005,112.17875238095242
654.587,89.82713809523814
657.166,74.84067142857145
659.745,53.35859523809526
662.321,31.329447619047645
664.895,29.93960000000002
667.468,41.56613809523813
670.038,49.204866666666696
672.607,41.470585714285725
675.174,28.168414285714302
677.739,34.055842857142885
680.303,30.84263809523813
682.864,47.38138000000003
685.424,37.953213333333345
687.982,32.3630266666667
690.538,24.701391428571455
693.092,41.63030285714288
695.645,39.28796095238097
698.195,49.574465714285736
700.744,36.389959523809544
703.291,21.920347619047615
705.836,13.256340476190498
708.38,23.060161904761927
710.921,12.422740476190501
713.461,28.863633333333354
715.999,35.28345714285715
718.535,18.582942857142886
721.069,46.805704761904806
723.602,70.85280000000003
726.133,67.72055238095243
728.662,77.83397142857146
731.189,75.52294285714288
733.714,51.736433333333366
736.238,50.8996904761905
738.759,41.72394285714289
741.279,40.063266666666706
743.798,70.48603333333338
746.314,80.65621904761908
748.829,66.04717619047624
751.342,89.94218571428578
753.853,88.10042857142862
756.362,82.5194428571429
758.869,94.62534761904766
761.375,71.60651428571433
763.879,58.69880000000006
766.381,81.85279047619052
768.882,77.9235047619048
771.38,79.14722857142863
773.877,82.61748571428575
776.372,63.856423809523854
778.866,55.148161904761935
781.357,62.82457619047625
783.847,83.59853809523817
786.335,99.61178095238103
788.821,128.43470476190484
791.306,129.97080000000005
793.789,124.98115238095247
796.27,125.2266952380953
798.749,132.1828380952382
801.227,150.08704761904775
803.702,172.79585714285724
806.176,174.16580952380963
808.649,187.72038095238105
811.119,169.36414285714295
813.588,156.66833333333346
816.055,156.44247619047627
818.521,136.73404761904771
820.984,127.0670000000001
823.446,128.06019047619054
825.906,128.38105714285723
828.365,111.79160476190481
830.821,123.76859047619057
833.276,127.83631904761913
835.729,125.80491904761912
838.181,100.3416428571429
840.631,93.01906190476194
843.079,85.59996190476198
845.525,94.51372857142863
847.97,105.28535238095243
850.412,95.15408571428576
852.854,82.59736666666672
855.293,77.23560000000005
857.731,86.87992952380955
860.167,48.769829523809534
862.601,43.09747809523812
865.034,28.436008571428594
867.465,32.45393047619051
869.894,54.77206761904766
872.321,78.63059619047624
874.747,70.84115714285718
877.171,84.78675238095242
879.594,77.37440000000005
882.014,102.70180952380962
884.433,101.53293333333338
886.851,114.39401904761912
889.266,108.71621428571436
891.68,118.07351428571437
894.092,101.27796666666674
896.503,142.23709523809532
898.912,117.8581714285715
901.319,150.0964000000001
903.724,168.09744761904773
906.128,189.8642476190477
908.53,150.92316666666673
910.931,145.80074285714292
913.329,131.11909523809533
915.726,132.88132380952388
918.122,138.89991428571437
920.516,134.606380952381
922.908,95.00355238095244
925.298,83.99906666666675
927.687,94.9293714285715
930.074,104.17820000000006
932.459,105.17740952380959
934.843,115.26314285714292
937.225,112.96230476190482
939.605,93.99211428571434
941.984,94.45075238095244
944.361,91.00759523809528
946.736,82.18954285714292
949.11,85.80888571428575
951.482,76.8685761904762
953.853,55.32373809523813
956.222,44.034314285714316
958.589,58.574561904761964
960.954,66.32802380952384
963.318,72.77345238095243
965.68,79.2945047619048
968.041,94.36988571428577
970.4,65.90687619047623
972.757,65.86038095238096
975.113,33.18505238095239
977.467,21.692625714285732
979.819,11.718780476190494
982.17,20.265613333333338
984.519,12.335219523809542
986.866,20.310456190476216
989.212,46.955104285714334
991.556,58.17561619047621
993.899,66.8307666666667
996.24,64.54104761904765
998.579,77.78383333333339
1000.92,83.22714285714292
1003.25,103.87203809523815
1005.59,96.57660000000006
1007.92,101.48450000000005
1010.25,80.26298571428575
1012.58,62.2457285714286
1014.91,49.576066666666705
1017.24,51.01603333333338
1019.56,66.66099047619055
1021.88,95.70108571428577
1024.2,106.5173333333334
1026.52,126.15688571428582
1028.84,155.99992380952392
1031.16,191.66490476190486
1033.48,208.19866666666678
1035.79,204.9333809523811
1038.1,199.67785714285728
1040.41,197.81200000000013
1042.72,191.0009523809525
1045.03,193.00514285714297
1047.33,182.727761904762
1049.64,176.02433333333343
1051.94,155.60752380952388
1054.24,131.80928571428578
1056.54,118.5798095238096
1058.84,142.67876190476204
1061.13,163.34228571428582
1063.43,187.56828571428582
1065.72,199.7831904761906
1068.01,186.8422380952382
1070.3,184.4569523809525
1072.59,197.14857142857153
1074.87,180.62938095238107
1077.16,190.42042857142874
1079.44,239.70947619047635
1081.72,270.8277619047621
1084.0,324.0101428571431
1086.28,381.73038095238115
1088.56,455.03366666666693
1090.84,553.0598095238099
1093.11,641.3772380952383
1095.38,650.7930000000002
1097.65,611.6375238095242
1099.92,547.3843333333336
1102.19,483.1736666666669
1104.46,448.0976666666669
1106.72,388.82000000000016
1108.98,356.6714285714288
1111.24,362.93490476190505
1113.5,413.4169047619051
1115.76,451.5432380952384
1118.02,509.2636190476193
1120.28,523.5277619047622
1122.53,517.5711428571432
1124.78,482.01004761904784
1127.03,415.0322857142859
1129.28,331.96814285714305
1131.53,271.10133333333346
1133.77,248.23866666666683
1136.02,241.90152380952395
1138.26,231.27809523809537
1140.5,235.79466666666684
1142.74,234.63928571428585
1144.98,240.52438095238114
1147.22,272.30452380952397
1149.45,302.9779047619049
1151.69,274.352142857143
1153.92,271.66333333333347
1156.15,227.4335238095239
1158.38,192.66100000000012
1160.61,182.8200000000001
1162.83,170.766380952381
1165.06,152.1657142857144
1167.28,150.49290476190487
1169.5,140.03230476190484
1171.72,115.6877333333334
1173.94,103.07713333333339
1176.16,111.19967619047627
1178.37,122.15028095238101
1180.58,115.11887619047624
1182.8,80.39054285714285
1185.01,17.631899999999995
1187.22,-1.1097380952380682
1189.42,8.784671428571448
1191.63,18.934547619047645
1193.84,41.0544904761905
1196.04,46.57355714285717
1198.24,56.444657142857224
1200.44,93.85894285714292
1202.64,120.57921904761912
1204.84,118.7015571428572
1207.03,109.3221190476191
1209.23,92.68007142857147
1211.42,74.34788571428577
1213.61,60.326804761904796
1215.8,61.76110000000004
1217.99,62.17589523809528
1220.18,54.90598095238099
1222.36,71.95299523809528
1224.55,79.60413333333338
1226.73,86.95628095238102
1228.91,97.63032857142863
1231.09,109.05674285714291
1233.27,92.04674285714292
1235.44,88.60236190476196
1237.62,88.53482380952387
1239.79,91.51310476190483
1241.96,101.44415714285721
1244.13,98.56826666666672
1246.3,99.84001904761912
1248.47,105.83294285714294
1250.64,120.93025714285722
1252.8,128.32480000000007
1254.96,150.30474285714297
1257.13,160.49138095238106
1259.29,189.12561904761918
1261.44,210.20961904761916
1263.6,208.6985238095239
1265.76,173.49957142857153
1267.91,160.18685714285726
1270.06,152.52447619047626
1272.22,164.37265714285726
1274.37,165.87658095238103
1276.51,134.7533333333334
1278.66,114.38671428571436
1280.81,97.3506047619048
1282.95,88.74293333333341
1285.09,104.28091904761911
1287.23,108.58606190476196
1289.37,95.6134952380953
1291.51,89.88985238095242
1293.65,81.36993809523815
1295.78,88.39032857142863
1297.92,85.14396666666671
1300.05,103.25263809523817
1302.18,118.81418095238101
1304.31,100.8312714285715
1306.44,115.63974285714295
1308.57,125.05210000000005
1310.69,120.21357142857153
1312.82,145.69840476190484
1314.94,161.12819047619055
1317.06,182.21952380952393
1319.18,208.73690476190487
1321.3,217.9211904761906
1323.41,204.48890476190488
1325.53,198.53795238095253
1327.64,209.92776190476206
1329.75,246.8983809523811
1331.87,249.83347619047638
1333.98,261.73528571428585
1336.08,235.1772380952382
1338.19,218.06661904761918
1340.3,201.40542857142867
1342.4,190.6240476190477
1344.5,157.20114285714297
1346.6,146.0428095238096
1348.7,128.1035238095239
1350.8,134.00432380952387
1352.9,110.41358571428579
1354.99,115.28524761904768
1357.09,100.7163952380953
1359.18,112.27980000000008
1361.27,118.64360476190484
1363.36,139.33309523809532
1365.45,162.20674285714296
1367.54,188.50374285714295
1369.62,188.79685714285725
1371.7,213.61104761904775
1373.79,227.51857142857156
1375.87,237.13928571428585
1377.95,262.75971428571444
1380.03,255.99957142857156
1382.1,232.1930000000001
1384.18,211.48323809523822
1386.25,198.68026666666677
1388.33,163.0222428571429
1390.4,140.985580952381
1392.47,126.18951904761911
1394.54,102.2055571428572
1396.6,98.3668714285715
1398.67,105.19692857142861
1400.74,70.98110000000004
1402.8,58.00436666666671
1404.86,76.0757571428572
1406.92,80.76601428571436
1408.98,105.2648714285715
1411.04,130.04752857142861
1413.09,117.16032857142862
1415.15,95.17327142857148
1417.2,89.32327619047624
1419.25,86.46579047619053
1421.3,89.98045238095244
1423.35,100.05616000000003
1425.4,79.26236238095241
1427.45,53.16861047619051
1429.49,46.915794761904806
1431.54,58.35875333333339
1433.58,72.68597190476196
1435.62,90.228340952381
1437.66,96.03131428571434
1439.7,96.23517142857148
1441.74,105.83730000000006
1443.77,100.69230952380958
1445.81,102.41664761904768
1447.84,99.6741190476191
1449.87,105.46216666666673
1451.9,97.1111190476191
1453.93,96.8085571428572
1455.96,91.21840000000006
1457.98,104.86135714285722
1460.01,104.25812380952387
1462.03,99.78680000000006
1464.05,124.49185714285724
1466.07,154.03714285714298
1468.09,191.70528571428585
1470.11,226.58842857142872
1472.13,250.8263809523811
1474.14,253.03519047619062
1476.16,263.11623809523826
1478.17,243.11433333333346
1480.18,223.88352380952392
1482.19,182.8018095238096
1484.2,158.72342857142866
1486.21,148.16940000000008
1488.21,116.51756666666672
1490.22,77.90811428571432
1492.22,68.48110000000003
1494.22,51.37650000000005
1496.22,55.44880952380957
1498.22,72.64795238095239
1500.22,44.11417142857143
1502.22,17.987861904761925
1504.21,14.695290476190493
1506.21,21.996114285714327
1508.2,48.8882047619048
1510.19,78.41717142857146
1512.18,80.29546190476194
1514.17,75.1879428571429
1516.16,75.85469523809529
1518.14,74.29439047619053
1520.13,89.74349047619054
1522.11,100.20085523809529
1524.09,78.61768142857144
1526.07,47.326167619047645
1528.05,38.46799952380955
1530.03,45.09001523809529
1532.01,63.14365285714291
1533.98,99.48567428571434
1535.96,93.3534666666667
1537.93,89.50836190476197
1539.9,93.47383809523816
1541.87,95.48767619047625
1543.84,103.59758095238102
1545.81,123.51753333333339
1547.78,109.77133333333339
1549.74,121.16852380952389
1551.7,143.37571428571437
1553.67,147.44109523809536
1555.63,163.12666666666675
1557.59,160.05185714285724
1559.55,146.16933333333344
1561.5,160.09880952380962
1563.46,166.84052380952392
1565.41,160.72895238095248
1567.37,149.71666666666673
1569.32,140.47123809523816
1571.27,142.1360476190477
1573.22,154.47385714285724
1575.17,140.77133333333342
1577.11,150.88642857142867
1579.06,168.77228571428583
1581.0,175.04885714285726
1582.95,184.3362380952382
1584.89,178.82566666666673
1586.83,154.28057142857153
1588.77,150.17761904761915
1590.7,159.9942380952382
1592.64,155.5410000000001
1594.58,168.55690476190483
1596.51,184.54297619047628
1598.44,199.166880952381
