Raman Shift,Processed Intensity
331.095,62.89620785714269
333.909,-18.525630952381043
336.721,-41.00268666666664
339.531,-27.252300952380942
342.339,-2.8969785714285687
345.145,7.465139999999997
347.949,0.40407857142855885
350.751,-10.318491428571445
353.55,-27.177768571428587
356.348,-36.742892380952384
359.144,-24.819852380952362
361.937,14.453576190476241
364.729,60.226376190476266
367.518,121.88728571428581
370.306,187.54054761904777
373.091,275.8632190476193
375.874,344.7241428571431
378.656,369.51766666666686
381.435,353.54423809523826
384.212,281.01047619047625
386.988,183.17195238095243
389.761,94.19044952380953
392.532,22.70532761904763
395.301,-26.166215714285695
398.068,-11.495774285714264
400.833,18.836699523809543
403.596,23.333910476190468
406.358,9.738156190476182
409.117,-18.349606476190505
411.874,-44.94595409523809
414.629,-28.542151047619036
417.382,2.8958864761904834
420.133,5.260825142857161
422.882,27.68483400000003
425.629,55.96810114285722
428.374,134.10270476190493
431.117,224.6532714285716
433.858,284.8523047619049
436.597,299.885961904762
439.334,234.9888904761906
442.069,184.01587619047632
444.802,198.7276809523811
447.533,191.3620666666668
450.262,215.58622380952397
452.989,259.11586666666676
455.714,248.95300000000017
458.438,253.10085714285728
461.159,243.70574285714295
463.878,177.72468571428578
466.595,125.49602380952388
469.31,104.40631428571436
472.024,84.84259047619054
474.735,78.52606190476196
477.444,86.60660000000007
480.152,88.18705238095244
482.857,104.41842380952392
485.561,133.88064285714293
488.262,156.43982857142865
490.962,170.485761904762
493.659,178.59940952380958
496.355,143.17133809523818
499.048,112.92567619047624
501.74,103.68228095238103
504.43,113.68943809523819
507.118,132.9571000000001
509.804,169.6861238095239
512.488,203.60152380952397
515.17,222.52314285714303
517.85,250.70009523809537
520.528,242.99957142857156
523.204,218.67014285714296
525.878,200.43661904761913
528.551,189.97600000000008
531.221,150.58412857142864
533.89,130.65219047619053
536.556,88.42791428571432
539.221,69.01635238095244
541.883,91.14149523809533
544.544,111.95543333333342
547.203,130.4196238095239
549.86,153.35250000000008
552.515,147.61979047619056
555.168,130.32506190476198
557.819,141.61951428571436
560.469,131.5581904761906
563.116,152.9104285714287
565.761,200.92161904761917
568.405,226.0745238095239
571.047,234.23285714285726
573.687,224.3552857142858
576.324,192.35161904761912
578.96,179.60838095238105
581.594,188.17804761904773
584.227,183.11257142857153
586.857,196.225761904762
589.485,189.6641142857144
592.112,153.2404952380953
594.737,127.14832380952389
597.359,140.0090285714287
599.98,178.1579904761906
602.599,207.16825714285727
605.216,231.517161904762
607.831,200.11028571428577
610.445,160.32866666666678
613.056,134.31523809523816
615.666,126.73623809523816
618.274,117.49604761904772
620.88,137.1170000000001
623.484,178.93100000000015
626.086,232.93576190476207
628.686,276.98604761904784
631.284,327.07923809523834
633.881,365.5459523809526
636.476,349.2873809523811
639.068,339.39504761904783
641.659,300.9599523809525
644.249,275.02547619047635
646.836,250.01561904761917
649.421,214.40176190476197
652.005,145.32174761904767
654.587,96.19867142857147
657.166,61.455809523809585
659.745,64.61136190476195
662.321,66.32615238095242
664.895,35.59429047619048
667.468,10.076452380952388
670.038,-1.4238952380952181
672.607,17.039561904761946
675.174,35.69885238095242
677.739,80.35739047619052
680.303,62.67584761904763
682.864,48.93393809523812
685.424,48.12560952380955
687.982,69.43550952380957
690.538,76.14353809523816
693.092,96.91059523809525
695.645,67.68348095238096
698.195,36.1233142857143
700.744,27.74839523809527
703.291,35.36291428571431
705.836,31.628306666666685
708.38,15.96800666666667
710.921,6.138946666666684
713.461,33.18383142857147
715.999,48.669403809523835
718.535,64.73386190476192
721.069,45.56324523809524
723.602,28.2484866666667
726.133,32.73775666666672
728.662,62.83650571428575
731.189,71.39806714285719
733.714,84.65674571428575
736.238,66.03756666666672
738.759,69.63229523809528
741.279,80.39002380952385
743.798,74.87902857142862
746.314,88.66761428571434
748.829,85.89589047619052
751.342,87.13259809523814
753.853,67.37511000000002
756.362,46.525734285714314
758.869,48.62995190476195
761.375,64.39965809523814
763.879,84.68992904761912
766.381,98.59429333333337
768.882,100.87310476190483
771.38,95.04837619047625
773.877,86.49981428571434
776.372,90.32120476190482
778.866,83.41599047619052
781.357,71.02132380952386
783.847,79.0889047619048
786.335,75.18917142857147
788.821,82.36907142857152
791.306,112.0092095238096
793.789,126.63282857142866
796.27,142.04910476190486
798.749,145.68634285714296
801.227,149.59200000000013
803.702,192.14695238095254
806.176,222.97080952380966
808.649,257.9683333333335
811.119,245.33066666666673
813.588,209.9626666666668
816.055,192.57904761904774
818.521,186.03766666666678
820.984,192.86328571428584
823.446,182.48500000000007
825.906,160.8088095238096
828.365,169.21633333333344
830.821,177.1847142857144
833.276,166.6680000000001
835.729,171.7623333333334
838.181,150.32619047619056
840.631,138.07533333333342
843.079,154.0109714285715
845.525,130.99185238095242
847.97,121.02000000000007
850.412,98.09661428571432
852.854,87.17600000000004
855.293,81.64077142857147
857.731,72.96890000000003
860.167,59.590985714285765
862.601,65.65195714285717
865.034,63.62986190476195
867.465,53.19346190476193
869.894,63.86870476190481
872.321,74.18150476190482
874.747,81.18167619047624
877.171,76.7285952380953
879.594,98.58656190476196
882.014,88.13868095238104
884.433,109.7684380952382
886.851,164.1921761904763
889.266,179.36473333333345
891.68,181.76485714285724
894.092,195.39514285714296
896.503,175.25790476190485
898.912,156.49890476190487
901.319,151.1679523809524
903.724,116.31495238095245
906.128,97.99028571428579
908.53,120.33914285714295
910.931,140.26909523809536
913.329,158.68761904761914
915.726,158.50214285714296
918.122,147.33383809523815
920.516,113.66174285714294
922.908,103.29767619047625
925.298,94.91120952380957
927.687,98.40959047619053
930.074,97.98597142857147
932.459,96.45220952380956
934.843,84.52520000000005
937.225,77.20730000000005
939.605,83.4536952380953
941.984,93.6476571428572
944.361,86.17251904761909
946.736,78.26885714285719
949.11,72.27237619047622
951.482,76.51877619047625
953.853,76.24866190476193
956.222,68.9403523809524
958.589,55.500909523809554
960.954,43.932595238095274
963.318,50.09470952380956
965.68,64.65603333333337
968.041,66.04726666666669
970.4,44.41332761904762
972.757,23.184778095238094
975.113,-2.684046666666662
977.467,-3.2865399999999925
979.819,-2.525610952380941
982.17,7.314787619047623
984.519,10.855403333333351
986.866,25.145428571428607
989.212,48.51957476190481
991.556,75.26489619047625
993.899,105.76392380952387
996.24,118.3508952380953
998.579,113.21735714285718
1000.92,94.98329523809527
1003.25,80.17325238095242
1005.59,56.59756190476196
1007.92,76.16173809523816
1010.25,83.05666666666673
1012.58,89.90212380952387
1014.91,95.84115238095244
1017.24,85.96924761904765
1019.56,64.76284761904768
1021.88,82.12654285714294
1024.2,123.01311904761917
1026.52,146.8033523809525
1028.84,183.54479047619057
1031.16,201.99880952380965
1033.48,188.1651904761906
1035.79,185.23423809523823
1038.1,200.11042857142868
1040.41,217.93566666666686
1042.72,243.4715714285716
1045.03,265.1934761904763
1047.33,244.8625238095239
1049.64,205.43038095238103
1051.94,177.46780952380965
1054.24,184.16414285714296
1056.54,172.56607619047628
1058.84,151.05367142857148
1061.13,134.76858095238106
1063.43,132.13790000000012
1065.72,149.3038476190477
1068.01,147.5982476190477
1070.3,142.7341333333334
1072.59,150.51970952380964
1074.87,180.23924761904775
1077.16,191.5578142857144
1079.44,209.42650476190488
1081.72,200.08180952380968
1084.0,217.52233333333356
1086.28,302.36547619047644
1088.56,427.32385714285743
1090.84,546.2531428571432
1093.11,668.9606666666671
1095.38,673.7307619047622
1097.65,606.1808571428575
1099.92,497.6421428571431
1102.19,405.5416190476193
1104.46,331.972904761905
1106.72,317.55285714285736
1108.98,325.7083809523812
1111.24,395.10438095238123
1113.5,460.6909523809527
1115.76,526.2760000000003
1118.02,547.6194285714289
1120.28,536.8621428571431
1122.53,497.3355714285717
1124.78,466.1806190476193
1127.03,386.58566666666684
1129.28,324.6917619047621
1131.53,282.54447619047636
1133.77,248.42766666666682
1136.02,224.43471428571445
1138.26,239.278142857143
1140.5,232.05109523809537
1142.74,224.75138095238108
1144.98,223.377142857143
1147.22,241.49776190476206
1149.45,257.06371428571447
1151.69,262.93080952380967
1153.92,247.52538095238108
1156.15,190.36947619047626
1158.38,152.4610000000001
1160.61,144.84591428571437
1162.83,130.5700333333334
1165.06,121.06028571428578
1167.28,110.31477142857146
1169.5,72.14151904761907
1171.72,68.34817142857148
1173.94,75.12374761904766
1176.16,74.5617047619048
1178.37,79.56523809523813
1180.58,63.275704761904784
1182.8,50.358238095238136
1185.01,52.19249619047622
1187.22,42.68168190476193
1189.42,40.253003809523825
1191.63,27.762317619047625
1193.84,8.875024761904779
1196.04,18.923191904761925
1198.24,21.47708571428574
1200.44,57.20231380952388
1202.64,80.3358685714286
1204.84,90.30533523809527
1207.03,71.68126333333335
1209.23,42.65332238095239
1211.42,2.744675714285724
1213.61,-7.3309147619047685
1215.8,-8.954882380952355
1217.99,16.729658571428594
1220.18,42.960682857142885
1222.36,46.69058095238097
1224.55,37.538590476190485
1226.73,26.552657142857164
1228.91,28.20947257142859
1231.09,19.604957809523825
1233.27,34.45422514285717
1235.44,30.80581742857146
1237.62,50.66088228571435
1239.79,85.35397685714291
1241.96,104.55312971428576
1244.13,103.40287619047626
1246.3,128.04761904761912
1248.47,127.53685714285724
1250.64,156.63428571428582
1252.8,178.10361904761916
1254.96,187.80423809523825
1257.13,212.4530952380954
1259.29,255.33785714285733
1261.44,276.17557142857163
1263.6,302.06371428571447
1265.76,280.1953809523811
1267.91,267.76390476190494
1270.06,259.9150000000002
1272.22,247.65147619047633
1274.37,227.78561904761915
1276.51,208.03485714285725
1278.66,174.06895238095248
1280.81,154.74852380952387
1282.95,154.93357142857153
1285.09,140.24669047619054
1287.23,130.7384380952382
1289.37,115.88858095238102
1291.51,112.50997142857148
1293.65,94.22518095238102
1295.78,113.84711428571437
1297.92,103.33174761904766
1300.05,104.92062857142864
1302.18,105.56971428571434
1304.31,116.99685714285721
1306.44,118.44357142857152
1308.57,137.77071428571438
1310.69,149.600761904762
1312.82,171.08019047619058
1314.94,189.45085714285725
1317.06,181.85895238095247
1319.18,172.26066666666676
1321.3,176.61176190476203
1323.41,210.4870952380954
1325.53,262.2710476190478
1327.64,307.44328571428593
1329.75,323.43561904761924
1331.87,329.58485714285735
1333.98,328.37061904761924
1336.08,337.5102857142859
1338.19,313.7691904761906
1340.3,276.3409523809525
1342.4,208.75257142857154
1344.5,169.43534285714298
1346.6,135.249461904762
1348.7,141.24520952380962
1350.8,144.3305476190477
1352.9,130.46038571428576
1354.99,98.44705238095247
1357.09,113.19769047619054
1359.18,123.19082857142867
1361.27,143.76217619047628
1363.36,169.39043809523815
1365.45,150.7443333333334
1367.54,134.968761904762
1369.62,155.25609523809538
1371.7,188.98876190476201
1373.79,208.78747619047633
1375.87,234.0824285714287
1377.95,236.7324761904763
1380.03,214.02433333333346
1382.1,191.48319047619057
1384.18,168.3479523809525
1386.25,140.33361904761912
1388.33,129.3931000000001
1390.4,111.28905238095241
1392.47,85.30727619047624
1394.54,73.63867619047625
1396.6,58.997461904761934
1398.67,56.85961428571433
1400.74,54.55810952380954
1402.8,50.044795238095276
1404.86,44.271304761904794
1406.92,43.09385714285717
1408.98,41.844652380952425
1411.04,56.046290476190535
1413.09,95.03050476190487
1415.15,116.55758571428578
1417.2,117.38759047619054
1419.25,103.42326666666672
1421.3,96.42452380952388
1423.35,94.96030476190484
1425.4,121.55188571428579
1427.45,120.33973809523815
1429.49,110.5116047619048
1431.54,89.30270000000004
1433.58,62.51968095238101
1435.62,84.96883333333341
1437.66,102.45647142857149
1439.7,126.16982380952388
1441.74,118.81985238095243
1443.77,96.54595238095241
1445.81,62.296980952381006
1447.84,64.78375238095244
1449.87,66.38330476190482
1451.9,83.18726666666672
1453.93,88.23951904761911
1455.96,124.67900000000009
1457.98,146.97820952380962
1460.01,153.70474285714297
1462.03,172.85440952380964
1464.05,177.42352380952394
1466.07,196.3602857142859
1468.09,269.4701904761907
1470.11,329.3210000000002
1472.13,367.3851904761907
1474.14,396.18228571428585
1476.16,364.5657619047621
1478.17,338.1030476190478
1480.18,292.3614761904763
1482.19,234.43276190476203
1484.2,202.2657142857144
1486.21,182.09471428571436
1488.21,156.77305714285723
1490.22,145.44025714285718
1492.22,114.90211904761911
1494.22,78.96498095238101
1496.22,68.00649047619052
1498.22,50.30931428571432
1500.22,57.584258095238134
1502.22,46.68574619047621
1504.21,52.372773333333356
1506.21,27.213996666666656
1508.2,11.063954285714287
1510.19,-1.9369957142857053
1512.18,5.161218571428579
1514.17,2.3088114285714427
1516.16,23.884691904761915
1518.14,25.506016190476217
1520.13,42.55201285714289
1522.11,53.06862952380955
1524.09,56.673414285714315
1526.07,56.07929523809527
1528.05,55.90404761904765
1530.03,41.19411904761907
1532.01,56.32963142857147
1533.98,46.2142504761905
1535.96,34.228120000000025
1537.93,48.27544000000003
1539.9,48.4984866666667
1541.87,71.13471714285723
1543.84,101.99372190476194
1545.81,93.97986190476195
1547.78,93.33116666666672
1549.74,87.90487142857148
1551.7,102.36769047619059
1553.67,155.14815714285723
1555.63,155.81825238095246
1557.59,149.18780952380962
1559.55,143.63825238095245
1561.5,126.88441904761913
1563.46,140.30794761904772
1565.41,155.76682857142862
1567.37,145.59514285714295
1569.32,147.36514285714296
1571.27,136.50638095238105
1573.22,148.59133333333344
1575.17,153.66866666666675
1577.11,143.5970000000001
1579.06,133.3295714285715
1581.0,142.34390476190487
1582.95,133.35590476190484
1584.89,146.604761904762
1586.83,156.04452380952392
1588.77,171.4384285714287
1590.7,179.74023809523823
1592.64,214.42814285714297
1594.58,221.38469047619057
1596.51,209.56369047619063
1598.44,174.63330952380988
