Raman Shift,Processed Intensity
331.095,160.10495047618997
333.909,29.137835952380527
336.721,-23.79523476190508
339.531,-28.745929999999987
342.339,-19.813937142857167
345.145,-43.88404761904765
347.949,-39.67311333333332
350.751,-2.468125238095236
353.55,2.873644761904763
356.348,8.353396666666661
359.144,1.8784066666666637
361.937,-3.166725238095186
364.729,48.08040571428579
367.518,115.3882000000001
370.306,181.24042380952392
373.091,265.97998095238114
375.874,316.1410476190478
378.656,373.44966666666693
381.435,374.2050476190478
384.212,289.5647238095239
386.988,189.30655238095244
389.761,86.59140476190478
392.532,12.438072380952418
395.301,10.581460476190497
398.068,13.329363809523809
400.833,-6.818455714285716
403.596,-4.122600476190489
406.358,-19.556353809523817
409.117,-35.520101428571444
411.874,4.492295238095261
414.629,5.416907142857131
417.382,-5.665728571428563
420.133,13.088423809523828
422.882,52.572638095238155
425.629,72.72913333333345
428.374,187.12056190476204
431.117,243.12033333333346
433.858,271.10376190476205
436.597,281.44676190476207
439.334,271.5744761904763
442.069,223.77023809523823
444.802,207.46109523809537
447.533,180.83680952380965
450.262,192.32695238095252
452.989,228.45647619047634
455.714,268.9896666666668
458.438,285.7870095238097
461.159,242.6619380952382
463.878,180.4285047619049
466.595,106.23469047619052
469.31,71.46748571428577
472.024,62.133019047619115
474.735,84.61940000000007
477.444,104.60063333333343
480.152,148.79919047619057
482.857,184.65161428571443
485.561,216.452542857143
488.262,212.30580952380967
490.962,202.45914285714295
493.659,178.77923809523818
496.355,152.13319047619058
499.048,149.4354761904763
501.74,138.26752380952388
504.43,124.97295238095248
507.118,138.60985714285727
509.804,184.5219523809525
512.488,203.5291904761906
515.17,232.4994285714287
517.85,235.20466666666678
520.528,226.6081904761906
523.204,203.8630000000001
525.878,196.074380952381
528.551,179.01433333333344
531.221,155.93152380952392
533.89,140.93049523809532
536.556,115.87861428571433
539.221,83.68975238095244
541.883,94.18300476190485
544.544,129.93846666666676
547.203,144.72709047619057
549.86,169.93825714285725
552.515,184.24704761904775
555.168,176.99461904761915
557.819,180.4744285714287
560.469,186.07433333333344
563.116,193.18257142857152
565.761,211.6153809523811
568.405,232.90276190476206
571.047,238.71728571428585
573.687,226.82614285714297
576.324,223.47257142857157
578.96,199.9947142857144
581.594,195.01604761904773
584.227,174.34995238095246
586.857,161.57114285714297
589.485,157.06385714285727
592.112,178.7827142857144
594.737,205.34919047619064
597.359,219.47957142857155
599.98,221.6513809523811
602.599,212.86533333333347
605.216,205.074761904762
607.831,202.51761904761918
610.445,215.90814285714296
613.056,186.34076190476202
615.666,195.86228571428586
618.274,195.32809523809536
620.88,208.92709523809538
623.484,226.32395238095253
626.086,258.51600000000013
628.686,276.83361904761927
631.284,325.8927619047621
633.881,354.5947142857145
636.476,377.41185714285734
639.068,377.5781904761907
641.659,356.0417142857144
644.249,306.98852380952394
646.836,261.9375523809525
649.421,216.97935238095243
652.005,141.2515190476191
654.587,77.65334761904765
657.166,30.750838095238123
659.745,23.77690952380958
662.321,72.44026666666673
664.895,83.02101904761906
667.468,48.08502380952381
670.038,29.388823809523828
672.607,32.2600952380953
675.174,67.16973809523816
677.739,110.3504428571429
680.303,93.13018571428574
682.864,70.12281904761909
685.424,55.894780952381
687.982,78.10748571428579
690.538,95.99407142857147
693.092,101.40679523809528
695.645,70.24560438095239
698.195,33.124871999999996
700.744,3.1828868571428774
703.291,17.79613942857145
705.836,27.769858285714314
708.38,43.95702438095239
710.921,32.92498533333334
713.461,24.71744285714289
715.999,33.56874761904767
718.535,77.47502666666672
721.069,90.38534142857146
723.602,74.01059904761907
726.133,38.96655761904763
728.662,2.297660000000005
731.189,3.953430000000047
733.714,47.978285714285754
736.238,55.46492333333335
738.759,52.31543142857146
741.279,47.28918904761908
743.798,47.95543619047625
746.314,78.2642871428572
748.829,93.83251809523813
751.342,86.27721904761908
753.853,77.64408571428575
756.362,79.59820000000006
758.869,95.56652380952387
761.375,94.3569047619048
763.879,87.06300000000005
766.381,78.49321428571433
768.882,80.78920285714291
771.38,73.42619333333337
773.877,59.688762857142876
776.372,42.00462095238099
778.866,50.70613904761909
781.357,64.64993142857149
783.847,90.930640952381
786.335,91.73820952380956
788.821,87.11984761904766
791.306,80.88479047619052
793.789,80.03282857142864
796.27,82.65890476190484
798.749,104.57262857142865
801.227,119.63125714285724
803.702,147.59684285714295
806.176,192.7074285714287
808.649,216.01104761904776
811.119,218.2696666666668
813.588,208.7221904761906
816.055,184.55957142857153
818.521,165.54438095238106
820.984,167.4865238095239
823.446,164.4344285714287
825.906,152.29333333333344
828.365,143.63606666666675
830.821,126.55844761904768
833.276,122.15670476190485
835.729,117.95588571428578
838.181,128.09946666666673
840.631,120.20772380952387
843.079,108.99653333333337
845.525,89.60960000000006
847.97,98.57225714285721
850.412,99.60026666666671
852.854,78.45652380952384
855.293,78.42846666666672
857.731,74.80318571428577
860.167,91.3439533333334
862.601,95.7668161904762
865.034,67.40658857142857
867.465,19.169667619047644
869.894,10.629229523809556
872.321,50.31068380952388
874.747,78.93007809523813
877.171,97.01301523809529
879.594,91.70408095238098
882.014,80.71931428571433
884.433,60.58443333333339
886.851,92.92018095238102
889.266,107.01410952380961
891.68,131.9159714285715
894.092,153.3419380952382
896.503,151.43662857142866
898.912,137.24976190476198
901.319,130.6402857142858
903.724,127.65771428571436
906.128,116.78019047619054
908.53,121.48609523809532
910.931,123.72947619047629
913.329,136.0360476190477
915.726,143.16995238095245
918.122,145.46631428571433
920.516,131.78415238095243
922.908,104.03047619047622
925.298,79.01657619047623
927.687,61.934680952381
930.074,73.16797619047625
932.459,93.00389523809531
934.843,105.15861428571434
937.225,96.63404285714289
939.605,95.47966314285719
941.984,68.2686957619048
944.361,56.288720095238126
946.736,39.01767900000002
949.11,41.36207247619052
951.482,42.7998957619048
953.853,71.47566790476193
956.222,70.96250000000003
958.589,64.881080952381
960.954,59.47107619047623
963.318,72.87691428571434
965.68,72.67159523809528
968.041,69.52320952380956
970.4,64.48086190476192
972.757,46.83163809523811
975.113,32.910200000000025
977.467,35.71783809523812
979.819,23.25582380952381
982.17,7.953857142857153
984.519,11.575023809523811
986.866,-7.689145238095236
989.212,2.305233333333369
991.556,50.36863095238101
993.899,93.40670952380961
996.24,139.61086904761913
998.579,174.26752857142867
1000.92,152.23475238095244
1003.25,119.03700952380959
1005.59,93.05583809523816
1007.92,64.4346428571429
1010.25,58.12637142857149
1012.58,68.1313428571429
1014.91,92.06914285714294
1017.24,111.27334285714294
1019.56,128.12543809523817
1021.88,118.86389047619055
1024.2,135.6316095238096
1026.52,133.19061904761915
1028.84,153.58871428571436
1031.16,165.68290476190487
1033.48,179.09257142857155
1035.79,194.43671428571446
1038.1,241.47680952380966
1040.41,268.4510952380954
1042.72,281.21657142857157
1045.03,263.29680952380966
1047.33,247.54880952380967
1049.64,225.4008571428573
1051.94,196.70952380952394
1054.24,197.8555238095239
1056.54,183.02895238095246
1058.84,173.08638095238106
1061.13,177.360761904762
1063.43,188.85142857142867
1065.72,174.89133333333345
1068.01,196.09861904761917
1070.3,196.85371428571437
1072.59,204.77480952380967
1074.87,189.3851904761906
1077.16,177.35061904761915
1079.44,173.384761904762
1081.72,203.82000000000016
1084.0,264.41738095238117
1086.28,365.2711904761908
1088.56,467.1421904761908
1090.84,564.0294761904765
1093.11,661.9795714285718
1095.38,669.0392380952385
1097.65,612.1598095238098
1099.92,522.8164285714288
1102.19,421.81723809523834
1104.46,355.4942857142859
1106.72,346.8465714285717
1108.98,347.87271428571455
1111.24,379.52395238095266
1113.5,442.46590476190505
1115.76,480.0779047619051
1118.02,543.6918095238098
1120.28,580.9256190476193
1122.53,563.7777142857145
1124.78,518.8658571428574
1127.03,465.23604761904784
1129.28,375.9820476190478
1131.53,341.2454285714288
1133.77,289.5483333333335
1136.02,246.93690476190488
1138.26,216.7427142857144
1140.5,241.44047619047635
1142.74,248.40947619047637
1144.98,268.88652380952396
1147.22,266.1553809523811
1149.45,266.5475714285716
1151.69,243.6330952380954
1153.92,244.3149142857144
1156.15,198.59115238095245
1158.38,153.9844000000001
1160.61,128.25434285714294
1162.83,106.63727619047627
1165.06,111.84605714285723
1167.28,104.30705714285716
1169.5,78.97106190476194
1171.72,49.74114285714289
1173.94,62.281738095238154
1176.16,59.06746666666671
1178.37,76.71544285714289
1180.58,72.1762304761905
1182.8,45.495578095238095
1185.01,26.243132380952417
1187.22,44.512255238095264
1189.42,29.872708571428582
1191.63,27.560906666666682
1193.84,25.43238285714287
1196.04,25.48555238095242
1198.24,41.81423333333338
1200.44,67.84558095238098
1202.64,57.959276190476224
1204.84,74.6778190476191
1207.03,68.80979047619051
1209.23,58.877985714285735
1211.42,48.262500000000024
1213.61,36.20064761904763
1215.8,12.548923809523838
1217.99,42.83047142857146
1220.18,36.42598552380953
1222.36,18.81135742857144
1224.55,13.46269104761905
1226.73,10.237200666666684
1228.91,18.658938666666696
1231.09,32.01402647619049
1233.27,30.445837904761934
1235.44,55.6218833333334
1237.62,80.59066190476199
1239.79,121.92464047619058
1241.96,145.1962714285715
1244.13,147.78758095238106
1246.3,151.98609523809532
1248.47,154.8408095238096
1250.64,157.06809523809534
1252.8,183.33614285714296
1254.96,220.69461904761923
1257.13,271.2404761904764
1259.29,337.35733333333354
1261.44,375.8088095238097
1263.6,374.21685714285735
1265.76,350.53576190476207
1267.91,312.3397142857144
1270.06,271.1552380952383
1272.22,258.3182857142859
1274.37,251.68871428571444
1276.51,205.0315238095239
1278.66,185.82561904761914
1280.81,166.6930000000001
1282.95,157.58914285714295
1285.09,177.9454285714287
1287.23,179.8128571428572
1289.37,146.67095238095249
1291.51,138.80871428571436
1293.65,152.1814761904763
1295.78,158.8402000000001
1297.92,159.64520000000007
1300.05,128.98097142857148
1302.18,105.94603809523818
1304.31,121.92487619047631
1306.44,162.9681523809525
1308.57,199.17458095238106
1310.69,211.11885714285725
1312.82,225.18557142857156
1314.94,228.85423809523823
1317.06,248.27114285714302
1319.18,232.63004761904773
1321.3,218.45761904761918
1323.41,219.70966666666683
1325.53,258.056142857143
1327.64,304.78623809523833
1329.75,352.474523809524
1331.87,356.83833333333354
1333.98,352.97576190476207
1336.08,339.98514285714305
1338.19,334.0597619047621
1340.3,340.297904761905
1342.4,321.51204761904773
1344.5,261.0858571428572
1346.6,198.45057142857152
1348.7,177.94190476190488
1350.8,158.89576190476203
1352.9,163.07635238095247
1354.99,156.34330476190482
1357.09,125.22265714285723
1359.18,109.81169523809534
1361.27,125.58837142857152
1363.36,137.4598761904763
1365.45,170.71330476190488
1367.54,191.3029523809525
1369.62,186.8966666666668
1371.7,202.40071428571443
1373.79,207.3876666666668
1375.87,233.1446666666668
1377.95,268.24400000000014
1380.03,289.3054285714287
1382.1,256.85352380952395
1384.18,223.6980476190477
1386.25,199.934761904762
1388.33,180.13528571428583
1390.4,173.5378000000001
1392.47,159.4752714285715
1394.54,111.18580952380955
1396.6,59.573238095238125
1398.67,52.25610476190481
1400.74,63.18580000000007
1402.8,90.6943952380953
1404.86,107.78071428571434
1406.92,90.63373333333335
1408.98,66.77543333333338
1411.04,90.77553333333341
1413.09,136.77503333333343
1415.15,163.10498571428582
1417.2,169.4773714285715
1419.25,137.22290476190483
1421.3,122.5770476190477
1423.35,134.6800000000001
1425.4,145.48157142857153
1427.45,162.88361904761916
1429.49,151.9303333333334
1431.54,156.6186285714287
1433.58,153.75492857142865
1435.62,122.85958095238102
1437.66,103.6914714285715
1439.7,123.91355238095247
1441.74,137.14110952380963
1443.77,169.13261904761913
1445.81,162.59875238095245
1447.84,144.0598095238096
1449.87,129.36900000000009
1451.9,120.99876190476198
1453.93,125.56452380952388
1455.96,127.72914285714295
1457.98,126.34609523809534
1460.01,149.45909523809536
1462.03,183.01671428571444
1464.05,231.87261904761922
1466.07,275.78466666666685
1468.09,331.2257142857145
1470.11,354.5252380952383
1472.13,380.06028571428595
1474.14,392.3516190476193
1476.16,382.0624761904764
1478.17,345.6176666666669
1480.18,316.0617619047621
1482.19,262.24857142857155
1484.2,223.55580952380964
1486.21,189.59928571428583
1488.21,160.94773333333342
1490.22,124.02663809523816
1492.22,98.64279523809529
1494.22,81.65096000000004
1496.22,51.57246476190479
1498.22,45.59520095238099
1500.22,49.1933923809524
1502.22,47.26966285714288
1504.21,27.679250476190482
1506.21,19.7061980952381
1508.2,9.587066666666685
1510.19,23.511014285714317
1512.18,46.572138095238145
1514.17,81.00756190476193
1516.16,69.10223333333337
1518.14,66.14125238095241
1520.13,47.076523809523835
1522.11,50.43163333333338
1524.09,61.111090476190526
1526.07,82.78149523809529
1528.05,83.87150952380956
1530.03,81.80988095238098
1532.01,56.97784285714288
1533.98,42.13780000000003
1535.96,33.290138095238134
1537.93,49.29260952380956
1539.9,64.24113809523813
1541.87,66.7079428571429
1543.84,73.74149047619052
1545.81,71.43801428571433
1547.78,72.79850952380959
1549.74,83.4430571428572
1551.7,111.5633476190477
1553.67,117.7797952380953
1555.63,114.5698952380953
1557.59,116.17333809523815
1559.55,107.6864952380953
1561.5,109.34889047619056
1563.46,119.35276190476196
1565.41,126.6997714285715
1567.37,121.10566666666674
1569.32,132.95354285714293
1571.27,112.62559047619052
1573.22,114.69527619047626
1575.17,108.83102857142865
1577.11,128.5584190476191
1579.06,137.68892380952389
1581.0,150.8437714285715
1582.95,123.02476190476196
1584.89,95.09112380952385
1586.83,67.66363809523816
1588.77,73.26800000000006
1590.7,85.4302095238096
1592.64,118.81874285714292
1594.58,144.79290952380944
1596.51,154.71190952380937
1598.44,137.24447619047595
