Raman Shift,Processed Intensity
331.095,86.96711666666668
333.909,18.59477380952383
336.721,-30.41260119047618
339.531,-53.27346666666667
342.339,-16.420945238095214
345.145,8.236147619047639
347.949,22.600004761904753
350.751,16.76441428571427
353.55,-1.6994523809523754
356.348,-15.028614285714267
359.144,9.731657142857154
361.937,10.727904761904771
364.729,25.20326666666672
367.518,62.68789047619055
370.306,124.95181904761918
373.091,205.05192857142873
375.874,303.95137142857163
378.656,329.6145714285716
381.435,333.81708571428584
384.212,265.76450000000006
386.988,138.28337619047622
389.761,38.63006190476191
392.532,-17.27063809523811
395.301,-44.25447619047617
398.068,-25.631528571428568
400.833,3.1943952380952307
403.596,-7.416914190476207
406.358,-10.008840619047628
409.117,-22.6469240952381
411.874,-11.538097952380951
414.629,-10.982924095238086
417.382,7.148064142857162
420.133,41.36661438095244
422.882,61.99563809523816
425.629,99.35912857142867
428.374,162.59191904761917
431.117,209.35411428571442
433.858,241.16410952380969
436.597,257.969561904762
439.334,215.62442857142872
442.069,203.74533333333346
444.802,204.90228571428585
447.533,191.9994285714287
450.262,193.27561904761916
452.989,207.96995238095252
455.714,204.13257142857154
458.438,204.05181904761918
461.159,175.5408952380953
463.878,115.93704761904768
466.595,93.95980952380961
469.31,128.7570476190477
472.024,143.95426666666674
474.735,157.31953333333342
477.444,148.1933047619048
480.152,117.01154285714293
482.857,121.353961904762
485.561,139.79958095238104
488.262,138.73857142857153
490.962,186.03652380952394
493.659,180.9883095238096
496.355,174.12719047619055
499.048,161.51040476190482
501.74,137.90947619047628
504.43,109.95388095238106
507.118,140.22447619047628
509.804,134.20809523809535
512.488,191.53385714285724
515.17,218.2119523809525
517.85,241.77658095238107
520.528,201.9997238095239
523.204,179.08192380952391
525.878,139.60499047619055
528.551,145.1979333333334
531.221,115.10906666666673
533.89,96.58650476190479
536.556,93.63966666666676
539.221,102.08771904761912
541.883,118.03505714285723
544.544,131.11002857142864
547.203,119.70264761904768
549.86,111.96463809523817
552.515,123.14244285714291
555.168,95.62532380952386
557.819,105.89721428571437
560.469,113.68035714285722
563.116,149.9820523809525
565.761,154.71397619047627
568.405,170.64494285714295
571.047,164.11459047619059
573.687,181.27162857142872
576.324,174.26479047619057
578.96,191.24193333333344
581.594,172.11266666666677
584.227,203.02480952380967
586.857,211.1729523809525
589.485,208.9892380952382
592.112,164.9054761904763
594.737,137.9242857142858
597.359,134.71495238095247
599.98,159.3272380952382
602.599,156.3342380952382
605.216,170.49900000000014
607.831,179.6318095238096
610.445,162.11419047619057
613.056,184.708142857143
615.666,204.84142857142868
618.274,192.65600000000012
620.88,201.53171428571443
623.484,238.7523333333335
626.086,252.26842857142876
628.686,292.12509523809547
631.284,347.4624285714288
633.881,332.8485714285716
636.476,304.04223809523825
639.068,297.9914761904764
641.659,271.0253333333335
644.249,263.4725714285716
646.836,278.7568857142859
649.421,228.92086190476198
652.005,175.76889523809533
654.587,111.81906190476194
657.166,51.9226047619048
659.745,30.978276190476222
662.321,34.836841904761926
664.895,29.58740095238096
667.468,22.747304761904758
670.038,-5.547138095238097
672.607,2.2689152380952553
675.174,10.903093333333354
677.739,32.92018190476193
680.303,41.83735666666668
682.864,31.267047619047617
685.424,11.631221428571443
687.982,9.780533333333342
690.538,7.803788095238117
693.092,28.6946323809524
695.645,36.73257047619049
698.195,26.292460000000002
700.744,0.5111819047618917
703.291,-5.617049523809515
705.836,-9.716881904761891
708.38,24.063565714285758
710.921,59.480785714285744
713.461,63.00595000000002
715.999,50.348514285714316
718.535,53.360969047619065
721.069,32.89598571428576
723.602,70.9971833333334
726.133,79.32680238095242
728.662,64.30951428571433
731.189,62.37012619047622
733.714,66.07648095238099
736.238,41.09177380952384
738.759,72.9366904761905
741.279,62.46508571428574
743.798,61.38829047619052
746.314,59.84636190476193
748.829,48.78905238095239
751.342,32.69001904761908
753.853,39.97555238095241
756.362,36.0243428571429
758.869,61.59610952380957
761.375,68.21288571428575
763.879,74.68238571428576
766.381,76.05060000000002
768.882,68.45889047619052
771.38,53.096347619047656
773.877,60.48537142857147
776.372,68.81561428571435
778.866,85.60967142857149
781.357,99.91454285714293
783.847,118.30053333333339
786.335,107.52916190476196
788.821,89.02848571428576
791.306,86.46506666666671
793.789,75.21923333333342
796.27,119.86262857142867
798.749,153.9663476190477
801.227,175.91144761904775
803.702,196.17447619047633
806.176,191.47009523809535
808.649,184.13176190476202
811.119,212.77925714285726
813.588,188.46075714285726
816.055,165.6528000000001
818.521,157.92805238095247
820.984,135.62065714285723
823.446,139.3031380952382
825.906,157.1667333333334
828.365,156.87958095238105
830.821,125.49020000000004
833.276,122.23844761904769
835.729,119.03026190476197
838.181,103.48624285714291
840.631,103.41736666666674
843.079,100.0636047619048
845.525,80.0930952380953
847.97,77.07934285714289
850.412,72.5478047619048
852.854,69.35761047619053
855.293,63.70144142857146
857.731,33.200268571428595
860.167,44.33224428571432
862.601,44.195016190476224
865.034,52.02890809523814
867.465,58.12196285714286
869.894,42.190785714285724
872.321,25.999714285714326
874.747,45.550980952380996
877.171,62.228233333333385
879.594,83.74823333333339
882.014,82.78020000000005
884.433,84.08881428571435
886.851,101.3907000000001
889.266,114.54582857142866
891.68,138.93782857142867
894.092,145.09309523809532
896.503,141.91904761904772
898.912,144.51390476190485
901.319,151.9275714285715
903.724,140.68709523809534
906.128,149.60457142857152
908.53,139.20642857142866
910.931,143.4480000000001
913.329,153.23657142857152
915.726,151.05123809523818
918.122,148.56128571428582
920.516,147.53118095238102
922.908,131.48746666666673
925.298,115.76617142857148
927.687,107.17934285714291
930.074,115.63465714285724
932.459,124.8486333333334
934.843,113.01440476190483
937.225,91.42019523809527
939.605,69.02063809523814
941.984,63.38972485714291
944.361,59.910710333333355
946.736,46.7287444761905
949.11,45.79837014285719
951.482,74.02678257142864
953.853,93.74923890476195
956.222,128.3011010476191
958.589,118.06538571428577
960.954,104.71052380952388
963.318,90.80984761904769
965.68,104.84163809523817
968.041,121.04527142857151
970.4,129.70825714285718
972.757,105.97503333333337
975.113,81.65637142857145
977.467,54.61089523809527
979.819,27.12558095238098
982.17,35.96325714285717
984.519,30.172819047619065
986.866,22.136157142857172
989.212,35.4253428571429
991.556,78.18405238095244
993.899,88.22253809523818
996.24,121.25562380952388
998.579,145.80754761904768
1000.92,131.16412857142862
1003.25,105.37290952380958
1005.59,100.33865238095242
1007.92,79.061480952381
1010.25,65.35074761904767
1012.58,95.25390000000007
1014.91,107.48468095238101
1017.24,103.56641428571434
1019.56,103.11734761904766
1021.88,98.27992380952386
1024.2,97.10084285714295
1026.52,147.96031428571442
1028.84,202.3338380952382
1031.16,241.31533333333346
1033.48,256.2846666666668
1035.79,257.1453809523811
1038.1,254.4675714285716
1040.41,275.6310476190478
1042.72,283.15852380952396
1045.03,273.9050952380954
1047.33,260.01228571428584
1049.64,225.85952380952395
1051.94,216.68333333333348
1054.24,217.14880952380963
1056.54,189.30180952380962
1058.84,192.4734285714287
1061.13,213.37633333333346
1063.43,237.62795238095254
1065.72,250.17852380952394
1068.01,239.69290476190486
1070.3,204.45480952380964
1072.59,202.70014285714302
1074.87,212.66504761904778
1077.16,233.3473809523811
1079.44,231.7926190476192
1081.72,260.99861904761923
1084.0,304.9633333333336
1086.28,393.922666666667
1088.56,500.2553333333337
1090.84,597.8163809523813
1093.11,669.9844761904766
1095.38,680.7573333333337
1097.65,647.0853333333338
1099.92,569.2040000000002
1102.19,485.8732380952384
1104.46,421.9957142857145
1106.72,395.7118571428574
1108.98,392.87657142857176
1111.24,458.7260952380956
1113.5,495.829285714286
1115.76,545.8509047619051
1118.02,577.9794285714289
1120.28,599.5458571428574
1122.53,585.2622380952384
1124.78,579.1269523809526
1127.03,512.518666666667
1129.28,442.00680952380975
1131.53,375.8752857142859
1133.77,296.93157142857154
1136.02,225.69752380952397
1138.26,209.83828571428586
1140.5,212.5898095238097
1142.74,239.42661904761923
1144.98,290.1092380952383
1147.22,310.6833809523811
1149.45,301.957142857143
1151.69,289.0720476190478
1153.92,261.740761904762
1156.15,208.24738095238106
1158.38,191.82909523809536
1160.61,191.8177142857144
1162.83,180.49785714285727
1165.06,189.20171428571442
1167.28,172.59516666666673
1169.5,150.91526666666675
1171.72,132.68513809523813
1173.94,116.28497142857148
1176.16,89.47578095238102
1178.37,96.78070476190481
1180.58,76.77095238095242
1182.8,87.54147142857148
1185.01,91.52041428571432
1187.22,68.08861904761905
1189.42,28.81743809523811
1191.63,29.468771428571443
1193.84,13.471414285714307
1196.04,31.539885714285752
1198.24,49.29361904761907
1200.44,62.9712047619048
1202.64,46.049414285714306
1204.84,45.005133333333355
1207.03,34.02959523809526
1209.23,40.40945238095241
1211.42,36.81239238095241
1213.61,41.7157519047619
1215.8,12.50173714285715
1217.99,18.55267190476193
1220.18,28.67948666666669
1222.36,35.217053809523826
1224.55,32.357467619047625
1226.73,28.197693333333355
1228.91,36.31095619047624
1231.09,64.27057809523814
1233.27,81.74514000000003
1235.44,87.78428095238098
1237.62,64.58055714285717
1239.79,74.85050952380958
1241.96,89.12003809523814
1244.13,97.01060476190483
1246.3,124.23878095238103
1248.47,137.47367619047625
1250.64,134.52702857142867
1252.8,167.11588571428584
1254.96,210.76633333333348
1257.13,262.95738095238113
1259.29,324.9297619047621
1261.44,352.40047619047635
1263.6,361.80066666666687
1265.76,345.6097619047621
1267.91,320.68709523809537
1270.06,281.98828571428584
1272.22,236.75400000000013
1274.37,205.5587142857144
1276.51,186.35747619047632
1278.66,184.3440000000001
1280.81,189.85433333333344
1282.95,182.65342857142866
1285.09,162.5060476190477
1287.23,159.74890476190484
1289.37,152.90823809523818
1291.51,154.17790476190487
1293.65,166.9893752380953
1295.78,124.05969904761909
1297.92,103.8682933333334
1300.05,83.79920095238099
1302.18,77.52176000000006
1304.31,88.8011133333334
1306.44,116.64016571428579
1308.57,121.23239523809532
1310.69,148.29480000000007
1312.82,156.63980952380962
1314.94,177.65119047619058
1317.06,184.2842380952382
1319.18,190.54209523809536
1321.3,208.61785714285728
1323.41,222.37147619047636
1325.53,253.18666666666684
1327.64,306.113523809524
1329.75,324.72595238095255
1331.87,345.59823809523823
1333.98,353.7802380952383
1336.08,349.7987142857145
1338.19,310.1321904761906
1340.3,279.92571428571443
1342.4,232.70571428571438
1344.5,194.95061904761914
1346.6,173.09109523809536
1348.7,158.79609523809532
1350.8,129.73412380952388
1352.9,113.66902857142864
1354.99,111.4124095238096
1357.09,96.44234761904768
1359.18,97.18920952380958
1361.27,102.22632380952386
1363.36,81.22192380952384
1365.45,76.55840000000006
1367.54,104.33247619047626
1369.62,116.25972857142867
1371.7,148.2937904761906
1373.79,197.86429523809537
1375.87,213.25819047619063
1377.95,246.2858095238097
1380.03,262.7578571428573
1382.1,224.9608095238096
1384.18,183.7522857142858
1386.25,147.5613333333334
1388.33,116.67419047619055
1390.4,118.28139047619054
1392.47,103.52629238095241
1394.54,60.36149952380954
1396.6,50.786580000000036
1398.67,30.51591000000002
1400.74,32.59664190476195
1402.8,55.02823095238097
1404.86,50.76264523809526
1406.92,35.18009619047622
1408.98,30.946375714285733
1411.04,23.87009142857147
1413.09,67.0928433333334
1415.15,109.80393619047625
1417.2,117.0972571428572
1419.25,113.11415238095242
1421.3,86.42435714285719
1423.35,67.54996666666672
1425.4,90.86975714285721
1427.45,98.28674761904766
1429.49,80.84640190476193
1431.54,49.92741380952382
1433.58,31.384541904761935
1435.62,23.215310000000034
1437.66,50.03606095238099
1439.7,58.03473761904765
1441.74,72.399020952381
1443.77,56.411747619047645
1445.81,59.879395238095285
1447.84,65.56098571428578
1449.87,98.02483809523817
1451.9,101.26761428571434
1453.93,85.76231428571433
1455.96,63.219780952380994
1457.98,67.97016190476197
1460.01,81.20072380952391
1462.03,148.2412761904763
1464.05,200.3264000000001
1466.07,235.976523809524
1468.09,293.23542857142877
1470.11,354.24285714285736
1472.13,389.6142380952383
1474.14,398.82200000000023
1476.16,375.815523809524
1478.17,315.353142857143
1480.18,257.43109523809534
1482.19,204.66528571428583
1484.2,175.95695238095246
1486.21,147.2549428571429
1488.21,146.69929047619055
1490.22,111.42939047619052
1492.22,95.25145333333339
1494.22,56.876708095238115
1496.22,40.968720952380984
1498.22,32.572063333333354
1500.22,30.96965904761906
1502.22,20.87298428571431
1504.21,38.803124761904776
1506.21,21.805104761904765
1508.2,17.638338095238105
1510.19,24.538533333333348
1512.18,17.027304761904777
1514.17,21.95970476190478
1516.16,34.1433142857143
1518.14,17.481071428571443
1520.13,33.971238095238135
1522.11,55.231347619047646
1524.09,55.40281904761908
1526.07,54.865266666666685
1528.05,44.42697142857144
1530.03,33.18206190476194
1532.01,43.224709523809544
1533.98,37.79210952380954
1535.96,29.88340476190478
1537.93,21.35496666666669
1539.9,40.253647619047676
1541.87,68.34074285714293
1543.84,103.85397619047626
1545.81,113.79264285714291
1547.78,105.870580952381
1549.74,83.2302714285715
1551.7,106.39525714285722
1553.67,131.5081238095239
1555.63,155.23529523809532
1557.59,166.52878095238103
1559.55,147.96019047619055
1561.5,130.33914285714297
1563.46,150.71314285714297
1565.41,159.41580952380963
1567.37,164.58980952380963
1569.32,175.75895238095248
1571.27,158.59033333333343
1573.22,137.22714285714295
1575.17,157.05037142857154
1577.11,132.53701428571435
1579.06,134.8301238095239
1581.0,134.21579523809532
1582.95,131.21831428571434
1584.89,106.4573476190477
1586.83,135.50470476190483
1588.77,134.97990476190486
1590.7,148.50290476190486
1592.64,162.9789523809525
1594.58,175.7659761904763
1596.51,187.65033333333352
1598.44,198.1326904761908
