Raman Shift,Processed Intensity
331.095,59.600946143638794
333.909,-2.2183811227191654
336.721,-18.021762067040527
339.531,-2.1425240695539287
342.339,21.728874306527814
345.145,62.14008518051833
347.949,83.51973204332035
350.751,86.39169901790683
353.55,83.56561059600426
356.348,109.94635899381592
359.144,126.58172674584102
361.937,111.80524739393286
364.729,116.23620903350547
367.518,140.39870547878263
370.306,219.34068742804902
373.091,316.4434898193781
375.874,422.18374013874836
378.656,449.2286000614754
381.435,438.4833880460501
384.212,336.9011066898547
386.988,253.57768437061168
389.761,153.84721688783293
392.532,97.99625672331194
395.301,52.740007063513985
398.068,46.412801536264396
400.833,23.730012518858985
403.596,34.74043563665464
406.358,13.873912356890742
409.117,-3.106285512716113
411.874,-31.9129760872961
414.629,-20.163633886388197
417.382,-13.332766164716304
420.133,28.771897674756474
422.882,115.10464304740208
425.629,211.85795810650052
428.374,298.46253118662435
431.117,412.5872482470186
433.858,498.61538079117736
436.597,529.9779166435592
439.334,544.9630812024961
442.069,569.621096788339
444.802,556.430846753512
447.533,597.2998729258952
450.262,607.6596111474464
452.989,607.9415791937745
455.714,593.2440408841908
458.438,587.6177178108142
461.159,551.9705486867165
463.878,526.7819725035952
466.595,454.7695926418205
469.31,408.50822193285694
472.024,383.00130867407097
474.735,396.6809340721029
477.444,432.78876206718724
480.152,461.0903224908052
482.857,471.7797704138179
485.561,459.3370264469818
488.262,467.3849170414701
490.962,499.68917193224434
493.659,553.1108025338071
496.355,575.6537184311787
499.048,608.5599629185072
501.74,605.2620913948094
504.43,632.0498354740166
507.118,685.689148047391
509.804,752.9936292983184
512.488,816.4435717647266
515.17,932.4716720681567
517.85,1020.7963616904617
520.528,1086.4694234647914
523.204,1121.9236080665728
525.878,1088.4012028854622
528.551,1055.0492675639448
531.221,1045.8720123930902
533.89,1071.4450814702068
536.556,1084.8679310945881
539.221,1104.2876367346917
541.883,1098.3750809476928
544.544,1095.8487603466679
547.203,1072.189068758244
549.86,1083.0668660945457
552.515,1101.2482377013216
555.168,1129.0706822775123
557.819,1190.4431093186195
560.469,1245.6077413219828
563.116,1315.4258255158666
565.761,1377.8538217790233
568.405,1455.7529238935945
571.047,1497.1271522265774
573.687,1561.0281130779504
576.324,1575.2216627906923
578.96,1634.6164766227193
581.594,1651.406903333102
584.227,1629.02534357781
586.857,1581.237485448305
589.485,1513.3803971530015
592.112,1427.933953032039
594.737,1384.139878619691
597.359,1322.7636528496287
599.98,1228.8564102601817
602.599,1161.9454146281637
605.216,1056.6531040312761
607.831,999.1732787676597
610.445,967.1282416563881
613.056,988.9973669094047
615.666,1027.7837642415393
618.274,1102.2523715519565
620.88,1222.8823333198843
623.484,1395.1527123336791
626.086,1576.6853442770343
628.686,1697.6734066008999
631.284,1768.7861778715956
633.881,1767.502368547498
636.476,1749.4434517557202
639.068,1666.564136925937
641.659,1534.1523672337298
644.249,1325.8769360915576
646.836,1142.4065322111483
649.421,927.6002132373283
652.005,757.5074031913723
654.587,615.5583661048245
657.166,480.99277489142787
659.745,396.954946885709
662.321,335.87479366728485
664.895,256.56305659945065
667.468,199.63987570109566
670.038,174.58240613766338
672.607,147.4391013787922
675.174,121.44875826069801
677.739,115.08813347714477
680.303,99.31003626087613
682.864,88.82904011267692
685.424,89.97862310185337
687.982,88.8540224524354
690.538,60.3598510341335
693.092,33.971999567590956
695.645,15.737634067729232
698.195,23.41805042995429
700.744,17.8220086687852
703.291,12.186687874997006
705.836,16.27292933597073
708.38,44.27000535481557
710.921,60.509913188712744
713.461,102.80071834226783
715.999,129.04561659751016
718.535,126.00485318674373
721.069,134.62907053683466
723.602,159.05932268017114
726.133,117.34137537989773
728.662,104.8066729218217
731.189,73.40568585870551
733.714,54.469830183136764
736.238,43.044815071823905
738.759,35.41446682037076
741.279,4.148362301864381
743.798,2.1970858750232765
746.314,-34.29822430749937
748.829,-31.243948575947798
751.342,-19.73681967885159
753.853,-28.1591418342623
756.362,-18.131156408627703
758.869,-11.130076587026451
761.375,-36.20436351844182
763.879,-37.973718877209194
766.381,-44.48622157023647
768.882,-40.551659347799614
771.38,-0.31296031511556066
773.877,-6.91286807991446
776.372,-3.11300286042524
778.866,10.563267847418956
781.357,8.830814952126275
783.847,57.54749499923582
786.335,84.9998509516281
788.821,54.76024251992703
791.306,77.44873839765614
793.789,126.78072278212085
796.27,181.66212642639903
798.749,291.5703719770422
801.227,360.3638907403533
803.702,393.329734686753
806.176,431.56452178847985
808.649,433.7839527858623
811.119,398.41804223931285
813.588,373.32539720036675
816.055,324.1265435017658
818.521,282.6801091904108
820.984,245.1780555793448
823.446,205.52662258547343
825.906,169.53679787679312
828.365,151.68621459105952
830.821,175.59533476873594
833.276,175.21791850022237
835.729,144.46006450166078
838.181,97.79925069073579
840.631,62.379565238668874
843.079,34.96408047935711
845.525,36.64913158041145
847.97,34.86430949990654
850.412,8.086743200880846
852.854,-10.492233487836529
855.293,-14.157554346678353
857.731,0.7105361950207225
860.167,17.303153140165705
862.601,25.95420132827212
865.034,3.092758297502769
867.465,-26.23311248306709
869.894,-38.07064097614057
872.321,-14.75282008471504
874.747,15.33969328723515
877.171,34.207148934358884
879.594,37.56403432512707
882.014,8.934311923054793
884.433,9.127608888873056
886.851,31.477311544602344
889.266,65.69770838727527
891.68,97.40780071800282
894.092,95.94082755676345
896.503,88.05855246194778
898.912,58.1417408260977
901.319,59.809208600213424
903.724,66.67972816092401
906.128,71.65774370146073
908.53,62.457181860731225
910.931,62.125262352386244
913.329,66.18535621294063
915.726,87.4465107165588
918.122,108.90821238506919
920.516,122.28419761703049
922.908,105.28816807870999
925.298,69.10998228552535
927.687,89.22518051682732
930.074,101.06165258782266
932.459,118.28535324054519
934.843,119.89554134435457
937.225,98.74859052500415
939.605,81.65322836513792
941.984,82.08482322383475
944.361,109.23300438948263
946.736,123.71594889932317
949.11,125.62800169233424
951.482,136.301581476396
953.853,133.83099135736097
956.222,113.35813423003037
958.589,114.45346626436822
960.954,83.49695039171547
963.318,75.7256764576689
965.68,91.04338613686787
968.041,93.82999784777826
970.4,90.79875071509923
972.757,71.47239615121248
975.113,21.754627532872973
977.467,0.311033687419922
979.819,-4.383280954339625
982.17,0.4801142709334272
984.519,10.757263110018812
986.866,13.923251655080321
989.212,10.357923368208276
991.556,35.48873696308874
993.899,75.50505285810345
996.24,109.54861010562331
998.579,117.80876522606104
1000.92,88.52249294669309
1003.25,73.87914884524048
1005.59,61.63951770773815
1007.92,60.802480934027926
1010.25,61.50977918134345
1012.58,61.046013103133646
1014.91,48.171977421219935
1017.24,89.93418547413921
1019.56,130.7601080512036
1021.88,140.6962693694161
1024.2,135.21777162181502
1026.52,118.56162904963435
1028.84,113.01248296683661
1031.16,142.42641202275036
1033.48,171.42140913136564
1035.79,178.18690601968456
1038.1,198.95996444272896
1040.41,205.02527692236208
1042.72,210.19135796229443
1045.03,192.02864002499769
1047.33,187.2028076038573
1049.64,176.28432177151353
1051.94,168.74842091868527
1054.24,166.92750244536478
1056.54,180.296837785359
1058.84,201.6174302879583
1061.13,249.41220643295333
1063.43,267.34696895040724
1065.72,266.0399213690084
1068.01,267.2997639929806
1070.3,262.17331368852047
1072.59,256.8502665273768
1074.87,244.23462709709634
1077.16,260.94470923983613
1079.44,280.4559939340443
1081.72,318.958272890417
1084.0,358.1175540526233
1086.28,411.59987185992736
1088.56,484.40462131933714
1090.84,594.864558744423
1093.11,659.2648501131778
1095.38,711.8906908544577
1097.65,687.979687539188
1099.92,610.8170967144208
1102.19,524.6405875469154
1104.46,463.5926235143379
1106.72,414.24427266788325
1108.98,423.690446466333
1111.24,446.26418622915367
1113.5,508.2509495895997
1115.76,570.3648017097194
1118.02,636.2246064953592
1120.28,667.6873606683071
1122.53,665.7529564098709
1124.78,616.0879916234899
1127.03,570.0733897211692
1129.28,513.1377336956243
1131.53,447.42393352575823
1133.77,396.69398882023665
1136.02,374.51946574677663
1138.26,343.80530729477186
1140.5,361.599357823633
1142.74,411.80664951588324
1144.98,445.18940311597385
1147.22,492.98607628814375
1149.45,495.1494595933293
1151.69,464.8704867517881
1153.92,414.3401401438132
1156.15,377.8923086914019
1158.38,301.0037885970621
1160.61,248.6752364635754
1162.83,201.14545574708745
1165.06,166.70092130543753
1167.28,146.67578013696607
1169.5,138.3566140240855
1171.72,77.45863074827753
1173.94,69.69709340032796
1176.16,52.453987785798745
1178.37,33.63516602098048
1180.58,27.479871081219926
1182.8,12.989308968303703
1185.01,-18.97811245549474
1187.22,-15.040116061942399
1189.42,-8.81436424184426
1191.63,7.367254093883503
1193.84,16.696715871797096
1196.04,32.12795529078858
1198.24,23.37686076449654
1200.44,14.921271863709535
1202.64,27.286690544483008
1204.84,37.85580190006567
1207.03,47.106567835284295
1209.23,59.94555883616454
1211.42,75.32700002526258
1213.61,116.96705531223779
1215.8,116.6771591634722
1217.99,134.74496741931353
1220.18,159.22007001607153
1222.36,155.8187513270707
1224.55,156.11446478941548
1226.73,153.25211705456854
1228.91,101.90044737702578
1231.09,91.49012128870459
1233.27,108.21372903524639
1235.44,101.97816496469318
1237.62,142.97605453521305
1239.79,186.16194322759316
1241.96,235.4903902196363
1244.13,283.5350144415172
1246.3,358.25039777399274
1248.47,409.40065491328096
1250.64,525.1308603787945
1252.8,646.2051421875469
1254.96,809.3400136237908
1257.13,974.5853240562781
1259.29,1156.0861621364743
1261.44,1337.5114256634326
1263.6,1460.8633438296206
1265.76,1471.763189942936
1267.91,1421.2131846249104
1270.06,1288.358399008915
1272.22,1129.0105627002765
1274.37,988.0766336411425
1276.51,844.320701308684
1278.66,740.4592232466318
1280.81,665.7800711206205
1282.95,563.4758624878216
1285.09,503.64395923324446
1287.23,453.85789457745864
1289.37,435.4054667509886
1291.51,438.33635647823075
1293.65,438.0811730328028
1295.78,402.88002410241984
1297.92,421.83013327281265
1300.05,475.1715527497465
1302.18,558.7157332238985
1304.31,647.3217127833489
1306.44,693.6104010641702
1308.57,756.4407681629236
1310.69,825.6241287872467
1312.82,876.2574740254975
1314.94,937.2472793068744
1317.06,1025.166645694868
1319.18,1051.064822133091
1321.3,1111.324346738729
1323.41,1118.422950000749
1325.53,1050.2668865495425
1327.64,945.04807645037
1329.75,877.7202941158594
1331.87,771.3801191232587
1333.98,720.9336013174095
1336.08,627.6200687708574
1338.19,562.1073643154036
1340.3,471.34898683554934
1342.4,414.6317087524244
1344.5,332.4803363648516
1346.6,292.75294638089144
1348.7,205.0694557827237
1350.8,177.57352502486128
1352.9,159.40874694664785
1354.99,161.05197854189828
1357.09,163.6466727285365
1359.18,183.47906726109227
1361.27,187.21627840510246
1363.36,170.81106127817543
1365.45,196.6446654291517
1367.54,208.19349994107347
1369.62,218.362465200825
1371.7,224.91352276400494
1373.79,235.2752176007598
1375.87,240.16172415113397
1377.95,263.52522571375994
1380.03,287.5559128821724
1382.1,289.96769626682703
1384.18,264.52201445522815
1386.25,222.59926101966244
1388.33,176.1511639058897
1390.4,129.5103076789726
1392.47,126.58060815006297
1394.54,112.69445366985133
1396.6,74.08889404107026
1398.67,44.143734192900865
1400.74,27.00058023633278
1402.8,20.277123614759148
1404.86,55.7338062069598
1406.92,60.08334535581503
1408.98,40.08597530121506
1411.04,59.93040289868145
1413.09,80.04333476655825
1415.15,122.32757586178309
1417.2,198.8286994842165
1419.25,259.6398125190817
1421.3,322.4729873460599
1423.35,377.7545032721939
1425.4,379.4343736790804
1427.45,328.4625398367291
1429.49,286.88411233647093
1431.54,213.55366014291008
1433.58,173.8971186934907
1435.62,149.05465037901809
1437.66,142.64255264322742
1439.7,123.2770708442606
1441.74,131.622020639953
1443.77,103.05545799216543
1445.81,101.43158726635306
1447.84,109.60457409304036
1449.87,131.85712013405282
1451.9,164.8052283249408
1453.93,192.63630145074148
1455.96,217.29962167411668
1457.98,269.2682586349233
1460.01,316.44383469263903
1462.03,387.5374806449788
1464.05,477.2603152560382
1466.07,598.7520200225313
1468.09,761.9141758447947
1470.11,1012.5055044596966
1472.13,1260.4752051116416
1474.14,1524.0105769378615
1476.16,1739.2036889727551
1478.17,1868.8609072950858
1480.18,1894.2648031275583
1482.19,1816.6979656983012
1484.2,1646.7763389118707
1486.21,1422.973034210732
1488.21,1123.1421434367464
1490.22,847.2330278831344
1492.22,620.5760359178616
1494.22,422.6444110832217
1496.22,295.1495335287409
1498.22,210.85044715837944
1500.22,128.9824343967723
1502.22,87.63797190785863
1504.21,46.481019646841105
1506.21,30.366071816907834
1508.2,15.671493540240363
1510.19,7.5852384814006655
1512.18,18.58104266119517
1514.17,32.370808746728926
1516.16,1.5236570081201535
1518.14,3.1802143704574064
1520.13,-3.5188108199627095
1522.11,-10.670720543002744
1524.09,-24.03939504252503
1526.07,-8.055289692185852
1528.05,-11.910671053267606
1530.03,0.7260969076453421
1532.01,26.139122922344313
1533.98,31.564985872496436
1535.96,10.859398907807417
1537.93,25.735302135612528
1539.9,27.048574358085716
1541.87,14.750411476110003
1543.84,12.03018108362835
1545.81,16.982086585807792
1547.78,24.46230750767654
1549.74,57.565187421813334
1551.7,89.14704092365423
1553.67,86.73091298775307
1555.63,83.45895737166484
1557.59,123.33052930554277
1559.55,148.48789722935362
1561.5,158.8352878634239
1563.46,196.70555032660764
1565.41,199.00301073064497
1567.37,196.39394582214027
1569.32,197.97324710073121
1571.27,183.40727541344495
1573.22,139.9338584061984
1575.17,114.45752607053373
1577.11,88.54950819512123
1579.06,70.0191603886899
1581.0,61.62824724581583
1582.95,84.18617789366317
1584.89,93.97857487205783
1586.83,87.62441444213255
1588.77,71.1236430854483
1590.7,48.476222574546
1592.64,31.920222662547303
1594.58,36.336580439420004
1596.51,38.03481206919537
1598.44,25.514915003374426
