Raman Shift,Processed Intensity
331.095,75.53856071808605
333.909,143.03754157632238
336.721,125.6826413645922
339.531,74.14053430076592
342.339,83.53029065748251
345.145,103.56624145622163
347.949,140.24846220895688
350.751,119.10087570743735
353.55,125.2188786219981
356.348,102.45982524322926
359.144,134.72874931888236
361.937,179.78789541459446
364.729,202.49482170318015
367.518,202.85002656345068
370.306,211.7588608933238
373.091,303.84105947055195
375.874,403.4783675515473
378.656,482.43359604164107
381.435,489.56491476058545
384.212,366.540145708057
386.988,207.64629442438536
389.761,80.69431944652206
392.532,11.066758906873474
395.301,-19.425119058345445
398.068,-10.20797542455739
400.833,-31.327345108558347
403.596,-13.304774258584985
406.358,-5.614006207535567
409.117,-31.49050405428352
411.874,-31.217165111810118
414.629,-31.124321658057852
417.382,-30.065935571230966
420.133,1.532775053217847
422.882,36.91342013882968
425.629,56.46061375799627
428.374,151.22576947689686
431.117,240.6413758389558
433.858,350.092420698797
436.597,449.53543460382116
439.334,485.49848655672577
442.069,501.65260834945457
444.802,470.04988556381704
447.533,449.88535809591576
450.262,458.1636825853434
452.989,486.03246151104076
455.714,499.82985800143615
458.438,515.9893535017304
461.159,444.08736258404133
463.878,416.5098953765955
466.595,369.88112475482376
469.31,336.49195353245204
472.024,315.6333435573629
474.735,323.73916861698126
477.444,322.529067343663
480.152,373.2465342153314
482.857,363.84939150848686
485.561,352.7716898226504
488.262,342.44751336670925
490.962,350.8347852452639
493.659,407.367644173547
496.355,425.81358309710004
499.048,414.84487352573433
501.74,418.5623708198573
504.43,457.2097956672915
507.118,527.6499203219805
509.804,650.6502786522287
512.488,725.5498285698764
515.17,806.1637096975769
517.85,862.3546677027371
520.528,891.7949548219326
523.204,885.3472780043726
525.878,903.3028899125029
528.551,913.0958703987963
531.221,914.6364556015951
533.89,943.3110337076223
536.556,948.2678550002092
539.221,902.559884764662
541.883,899.6686085745846
544.544,916.40878995914
547.203,918.8332280703216
549.86,962.9470391597397
552.515,997.4219380554136
555.168,968.1200434481066
557.819,988.5224450824016
560.469,1062.1101519001718
563.116,1133.6498020888039
565.761,1227.9555636056152
568.405,1313.0796061308474
571.047,1378.597811115892
573.687,1419.895481831516
576.324,1474.3101962732353
578.96,1505.4175172095402
581.594,1533.2214641348846
584.227,1523.1545090321993
586.857,1520.5061435639873
589.485,1479.1847795967346
592.112,1414.9558402015277
594.737,1335.5846125594035
597.359,1190.0743389619702
599.98,1047.9995459072406
602.599,929.4108017669114
605.216,867.73947445364
607.831,867.0834414692772
610.445,888.9213713816703
613.056,874.1127195871791
615.666,936.1358193112824
618.274,1037.8021630853805
620.88,1178.780208033114
623.484,1334.119181156685
626.086,1488.9633608136564
628.686,1605.2663581937395
631.284,1681.8863511765499
633.881,1748.1575086655353
636.476,1735.223319683822
639.068,1635.4175415176715
641.659,1502.8356240504186
644.249,1299.5251817154517
646.836,1053.8669416396892
649.421,829.1937870251386
652.005,650.4098005304595
654.587,499.65692670014096
657.166,389.83877725082493
659.745,278.71586492906044
662.321,193.09607546428288
664.895,95.07275856942397
667.468,66.83424751293433
670.038,30.901950119393405
672.607,28.892249293907298
675.174,8.849838913797157
677.739,16.581062943649158
680.303,21.17773374288663
682.864,15.207617970642332
685.424,-4.571266262843892
687.982,-10.686826255040614
690.538,-17.000498575392157
693.092,-3.897710549054864
695.645,20.616895239625137
698.195,10.824234668028566
700.744,14.100317300185452
703.291,-12.13135917880345
705.836,-1.9712229620677135
708.38,-5.995993090446063
710.921,10.836573388145098
713.461,35.75912453686851
715.999,73.52806080552728
718.535,63.75688230612832
721.069,79.72572656462944
723.602,89.90519198697666
726.133,117.14682799180173
728.662,133.73076800027457
731.189,111.84193385451863
733.714,50.14147833126617
736.238,5.433465750752475
738.759,-6.477971223911027
741.279,0.7828109269221386
743.798,22.353456712135085
746.314,12.943149381603234
748.829,-2.310232274435748
751.342,-1.8400999831524132
753.853,10.49171509595817
756.362,7.347357265687606
758.869,-5.610849290473652
761.375,-15.053719899432053
763.879,-25.032814503883856
766.381,-40.26613800579662
768.882,-43.614316800361394
771.38,-43.31868257943597
773.877,-34.9536459393521
776.372,17.335211279035775
778.866,41.59303923125435
781.357,44.817619766841744
783.847,65.24507565079557
786.335,97.6355797850133
788.821,133.17811204878808
791.306,186.5380732821559
793.789,232.09537545972535
796.27,294.46824615021796
798.749,385.465604404586
801.227,450.27753188221914
803.702,501.71336302477766
806.176,536.4397752300247
808.649,544.3617361685228
811.119,535.146308243181
813.588,508.9369292392862
816.055,450.1153120221484
818.521,417.2062013776026
820.984,371.59165466204513
823.446,345.13008435722213
825.906,322.58482443455205
828.365,304.05269671943097
830.821,262.34495820793154
833.276,254.2253912406295
835.729,219.88648891453704
838.181,220.99706906646315
840.631,192.3689358754159
843.079,168.09973194120494
845.525,139.57293322018586
847.97,141.6007011038596
850.412,134.47149640223188
852.854,129.09293142241404
855.293,110.37271728531005
857.731,84.79008743278428
860.167,68.0624592300669
862.601,61.14542890149551
865.034,70.1851474186351
867.465,72.23260115030826
869.894,66.52932108404616
872.321,71.17404442849806
874.747,67.64651907298844
877.171,65.3789270946827
879.594,72.23207017052027
882.014,60.352507370097555
884.433,54.17255009141127
886.851,115.93406652041062
889.266,139.11704799531117
891.68,156.10627060900697
894.092,140.00081395434063
896.503,138.51881796461453
898.912,176.8070016588531
901.319,192.77399141088745
903.724,173.75698255176098
906.128,137.66459144832584
908.53,85.02446948660236
910.931,80.03091705513566
913.329,98.83059276644553
915.726,97.33203220228779
918.122,101.20564284939564
920.516,100.69322284473901
922.908,108.46509876841355
925.298,126.33440629366032
927.687,127.82851369403807
930.074,121.56996916011872
932.459,110.46697192570718
934.843,119.57051006072743
937.225,119.31245064505697
939.605,151.64839184712696
941.984,163.7243245263346
944.361,141.30519859736296
946.736,122.53682272782885
949.11,111.37443070260065
951.482,91.01124778811936
953.853,104.83086662052733
956.222,126.45486118903682
958.589,115.07611510501465
960.954,111.83976891867883
963.318,117.27178648341874
965.68,114.23133084391816
968.041,87.00599726714017
970.4,56.54990341616917
972.757,21.7693985716719
975.113,-2.476941432357762
977.467,-12.568795463328115
979.819,-7.981242790915076
982.17,-7.856194760104245
984.519,-0.4785896884857266
986.866,27.009316164288066
989.212,46.65556156848152
991.556,32.12704562758654
993.899,37.28095295786193
996.24,45.926655058356346
998.579,56.397138723855505
1000.92,55.54900961974954
1003.25,44.04821014260665
1005.59,19.32240394742007
1007.92,38.94193190342412
1010.25,61.09600614516444
1012.58,62.87842989351475
1014.91,63.57331727669634
1017.24,44.89319410367716
1019.56,43.59805101853044
1021.88,63.5429680833588
1024.2,54.868596504074276
1026.52,50.28687845141758
1028.84,67.70010021530811
1031.16,83.9151834544366
1033.48,123.02464311252493
1035.79,159.50183104887242
1038.1,166.15332252603753
1040.41,176.2617788879968
1042.72,175.63357214307098
1045.03,155.3606952611358
1047.33,150.1541010422577
1049.64,154.10561241390292
1051.94,167.35459463290863
1054.24,184.9927227255473
1056.54,186.73065368949688
1058.84,181.9456510767609
1061.13,200.20540005277394
1063.43,193.02991769360324
1065.72,211.93917756886458
1068.01,204.262639086543
1070.3,191.6630625520993
1072.59,196.08889565615527
1074.87,235.2504694859806
1077.16,237.57238501317192
1079.44,271.1458995813316
1081.72,286.53845625089343
1084.0,326.65083219156304
1086.28,376.14571564618836
1088.56,473.7334257517741
1090.84,588.6004895033593
1093.11,696.9334568131244
1095.38,744.9665250933238
1097.65,715.1244019344399
1099.92,624.1175487357343
1102.19,532.5136148119736
1104.46,479.68982388111954
1106.72,454.59488436153015
1108.98,464.0823282405968
1111.24,483.7200404195746
1113.5,505.02835948698043
1115.76,535.6229403967548
1118.02,584.5004742892752
1120.28,624.4672654552433
1122.53,670.4249511567004
1124.78,665.6086024004328
1127.03,631.0153009018441
1129.28,548.023192239308
1131.53,493.6295866275659
1133.77,410.35572635779295
1136.02,375.10393419004026
1138.26,370.10999984092155
1140.5,419.46699504272397
1142.74,457.45861241204125
1144.98,522.6544090803118
1147.22,524.0526693719792
1149.45,502.9375531969433
1151.69,469.9743396811025
1153.92,419.6380041302368
1156.15,364.11798547007675
1158.38,315.88962035304075
1160.61,269.3331963125918
1162.83,228.40062396521307
1165.06,211.42496635523935
1167.28,178.59663496634016
1169.5,147.67768097109706
1171.72,105.43037219486814
1173.94,64.85529388917212
1176.16,30.00087807650152
1178.37,32.91579003799097
1180.58,15.55369575347072
1182.8,-0.702923039436655
1185.01,-1.3284775957445163
1187.22,-23.082836487919394
1189.42,-47.91608047887871
1191.63,-27.539924197928485
1193.84,-32.237235471066924
1196.04,-21.195369307224155
1198.24,14.589066642367015
1200.44,4.453062257178544
1202.64,-14.408994725722778
1204.84,-32.469135944394566
1207.03,-33.29439109062855
1209.23,-0.21346333827796116
1211.42,53.2546870010608
1213.61,98.87701716570677
1215.8,97.6587670855306
1217.99,80.60534833311112
1220.18,101.38899497965599
1222.36,108.96779540330613
1224.55,122.63329552600499
1226.73,131.1533401456063
1228.91,100.05777141084059
1231.09,73.20984158199735
1233.27,65.33000674398977
1235.44,45.75781575751398
1237.62,56.64237063877772
1239.79,102.1327869392328
1241.96,156.14008735403263
1244.13,205.14672009648348
1246.3,281.9208391772538
1248.47,378.8972513502549
1250.64,485.0821725823248
1252.8,636.7675083324393
1254.96,793.0070385928254
1257.13,952.4259362634118
1259.29,1132.554095050087
1261.44,1306.1594573629634
1263.6,1416.914675547975
1265.76,1428.3494874041874
1267.91,1366.1364250344466
1270.06,1216.1860475055507
1272.22,1060.5516973179533
1274.37,932.2390187802191
1276.51,820.9202382882388
1278.66,699.7436826996959
1280.81,593.1909167561387
1282.95,488.7910233622074
1285.09,417.64440767437054
1287.23,360.6132678563431
1289.37,332.79778012021757
1291.51,339.96466471997405
1293.65,335.0233709926142
1295.78,371.35940525643787
1297.92,412.35813489978887
1300.05,436.78573532695145
1302.18,475.31299404690367
1304.31,555.3248290477807
1306.44,600.2059976475327
1308.57,654.0553767731501
1310.69,744.5907194303661
1312.82,834.4343635543146
1314.94,927.1132265744759
1317.06,1015.630228551046
1319.18,1061.035715311308
1321.3,1054.0941196812335
1323.41,1003.331575098045
1325.53,942.8930530322964
1327.64,865.7328337432787
1329.75,764.2335484630066
1331.87,656.634745389721
1333.98,569.9852652052073
1336.08,463.14323563972675
1338.19,395.3951136560047
1340.3,328.3128228713001
1342.4,282.84898621757793
1344.5,213.3845395540559
1346.6,193.58586908928078
1348.7,149.50004404129982
1350.8,128.41195405973167
1352.9,85.93954188593716
1354.99,75.79570267985059
1357.09,35.93113572776565
1359.18,48.6295771024927
1361.27,46.26969899019332
1363.36,54.84891746685685
1365.45,50.07863377746639
1367.54,92.71757555023919
1369.62,110.00038162712917
1371.7,156.35190623696667
1373.79,210.3872374543139
1375.87,226.00695375355872
1377.95,222.30190437252895
1380.03,228.07703729515742
1382.1,177.85141771033273
1384.18,114.57253218503615
1386.25,85.61630712318583
1388.33,54.07284151020281
1390.4,51.174996800428744
1392.47,33.250796328352635
1394.54,0.34249138650693567
1396.6,-29.22199174426237
1398.67,-47.4480775849031
1400.74,-35.91261483162384
1402.8,-23.001952852667046
1404.86,-28.530975715438217
1406.92,-31.695473403283813
1408.98,-13.976896425677523
1411.04,6.905267483150965
1413.09,62.66016089886102
1415.15,97.33031801023662
1417.2,163.62499806360847
1419.25,216.96780452156258
1421.3,292.0681137454603
1423.35,342.444884630336
1425.4,359.474277763607
1427.45,318.00870315520683
1429.49,277.0434870153424
1431.54,188.28830043700964
1433.58,152.78620712613088
1435.62,118.6279492269282
1437.66,110.95194743301249
1439.7,117.94430109847235
1441.74,140.69593120610602
1443.77,115.91686619279517
1445.81,145.36481348916618
1447.84,152.32135010686807
1449.87,160.49668465442346
1451.9,182.26775268640745
1453.93,198.91631205262593
1455.96,193.48608586633804
1457.98,241.11609594867195
1460.01,317.1835200825608
1462.03,396.4941683143006
1464.05,523.7110544932013
1466.07,682.5924916207639
1468.09,870.5635205331864
1470.11,1099.1444814410102
1472.13,1374.189109278294
1474.14,1608.3607242898759
1476.16,1787.7988988091136
1478.17,1924.881362130857
1480.18,1975.7954291939482
1482.19,1903.728476882769
1484.2,1750.8203250906874
1486.21,1507.2584749263647
1488.21,1187.4685850152987
1490.22,889.7811382775637
1492.22,645.9076325150654
1494.22,451.5120090940427
1496.22,317.6392244847118
1498.22,219.19144084852542
1500.22,172.4518356730573
1502.22,125.27507807355005
1504.21,115.18256699922767
1506.21,93.64814563008372
1508.2,71.8600062498615
1510.19,19.67307130950826
1512.18,34.37089830015907
1514.17,2.6180608165930153
1516.16,8.603007779523068
1518.14,-4.628601151639714
1520.13,-7.840559900519793
1522.11,-4.415636571054392
1524.09,8.834905483522107
1526.07,-11.042976113801615
1528.05,-8.241339368540594
1530.03,-24.285493631423606
1532.01,-18.3197126341272
1533.98,-1.821519793169955
1535.96,9.445928740977479
1537.93,14.100506773713732
1539.9,4.4744472386557845
1541.87,5.519100886337355
1543.84,11.4715997348153
1545.81,30.52152096919349
1547.78,58.525170441609134
1549.74,81.14843759979226
1551.7,78.96203136800136
1553.67,102.6319541232051
1555.63,114.8242613855457
1557.59,155.77648817546924
1559.55,184.96431346609688
1561.5,235.4825103498797
1563.46,243.5687533481132
1565.41,250.17504476806948
1567.37,235.87247439345697
1569.32,188.89883631774137
1571.27,148.44434101555362
1573.22,131.8897083664874
1575.17,129.472832107464
1577.11,112.90782523747976
1579.06,106.7659701842606
1581.0,63.380478494724684
1582.95,52.94172671591855
1584.89,38.25915894262448
1586.83,57.618427460202156
1588.77,29.68615243504928
1590.7,21.22420541458996
1592.64,-6.624578601306894
1594.58,-9.76497480319972
1596.51,-0.17318031017339308
1598.44,22.150802663471268
