Raman Shift,Processed Intensity
331.095,118.99793348251387
333.909,48.115281757978664
336.721,33.52619402351638
339.531,50.8973488447341
342.339,72.60973429939531
345.145,52.949136066841675
347.949,57.29662551740239
350.751,57.747619230377495
353.55,64.11189089297704
356.348,83.34215462783095
359.144,90.29598165384232
361.937,92.92628837560414
364.729,93.5670625680641
367.518,112.7905181326073
370.306,185.0261546150541
373.091,254.51315005699053
375.874,331.8718014661472
378.656,396.4368700486925
381.435,384.82902167961447
384.212,285.38341023025123
386.988,172.2449275624749
389.761,70.70154876098377
392.532,31.89862974653306
395.301,20.077014412985136
398.068,27.811141764364038
400.833,12.104295909050052
403.596,-20.563762993646833
406.358,-24.808215405953433
409.117,-37.81535976530131
411.874,-65.77117294673371
414.629,-86.6708257288933
417.382,-78.98534518376027
420.133,-52.1378081810476
422.882,-14.741449527578425
425.629,41.97174473634459
428.374,115.15100968324168
431.117,206.13629607189387
433.858,296.07729300454776
436.597,350.9334029650672
439.334,357.4260978094635
442.069,352.8484176135703
444.802,322.82685047310815
447.533,319.7974980180297
450.262,318.86319330781816
452.989,309.3172853934457
455.714,312.35790006981415
458.438,312.1831530091431
461.159,303.99112479911264
463.878,283.8845978857721
466.595,215.8234125640679
469.31,161.05301344457257
472.024,122.58061496781465
474.735,140.5561288233812
477.444,160.51023422616527
480.152,183.7829369027363
482.857,181.09499938580802
485.561,199.54794273728203
488.262,198.9573816046195
490.962,223.90064499150822
493.659,233.33582559994647
496.355,242.55416250566122
499.048,241.65623335734244
501.74,243.2186227663533
504.43,268.3891621250159
507.118,313.9821694248981
509.804,384.8117843131913
512.488,442.07292219672263
515.17,495.72222834596505
517.85,537.0018891419081
520.528,608.8205861800661
523.204,637.5154027554408
525.878,645.4232541570136
528.551,626.8332703431884
531.221,629.8915595696258
533.89,638.6488291599289
536.556,676.3461015144417
539.221,671.4623348809405
541.883,627.3810917443825
544.544,576.0095881690272
547.203,592.4929812358041
549.86,623.5953231463313
552.515,662.1757534221674
555.168,662.6170720564555
557.819,663.6352650465051
560.469,677.1842680216128
563.116,757.5035870137426
565.761,843.1659192282059
568.405,910.6485833381425
571.047,940.8573307313818
573.687,993.6501567573082
576.324,1009.8849214975303
578.96,1050.1812562508476
581.594,1035.5396128753578
584.227,1033.6269797972263
586.857,985.3006932575413
589.485,943.0370104639505
592.112,891.6930160756224
594.737,837.506623926301
597.359,731.2394358902302
599.98,678.1767436052037
602.599,624.2227682908656
605.216,585.4244719955791
607.831,583.0191783671062
610.445,568.3869553280447
613.056,556.4315691798438
615.666,585.5804863258695
618.274,664.2610654706509
620.88,787.7100831524676
623.484,898.8784973711663
626.086,1018.955258835028
628.686,1095.9863603028662
631.284,1128.9700764023264
633.881,1138.666489162461
636.476,1148.4070135463153
639.068,1086.3801134596974
641.659,975.012255855197
644.249,833.2536267409619
646.836,667.673370998993
649.421,530.745308393914
652.005,428.80031624841104
654.587,335.64537878533474
657.166,223.4207317078999
659.745,155.40938773226117
662.321,104.6085668820051
664.895,117.8249363064383
667.468,128.7698500988863
670.038,115.15458911499627
672.607,95.02369602913359
675.174,61.42164372411435
677.739,36.10712272855335
680.303,17.219709606591096
682.864,-14.86298229457634
685.424,-35.001481727058035
687.982,-32.6277794891389
690.538,-26.364364249520804
693.092,0.8805473424149568
695.645,19.484443683971676
698.195,18.015281757086996
700.744,23.612441233845857
703.291,10.939109130613815
705.836,-14.246286094360585
708.38,-10.185304740261472
710.921,13.166227426313071
713.461,54.42394098534896
715.999,104.58445315343761
718.535,137.69204225003477
721.069,144.3148459732388
723.602,117.97344062795582
726.133,56.75989654453451
728.662,9.242547783122518
731.189,-6.819714352468964
733.714,18.95113791340418
736.238,32.02846710399854
738.759,35.60002522419791
741.279,5.806056113578961
743.798,-26.87974505767488
746.314,-27.55498657856333
748.829,-6.079049272781958
751.342,-4.9302249752486205
753.853,-13.348572096425869
756.362,-27.097818805690167
758.869,-13.417742405175886
761.375,10.690116628101805
763.879,34.93864261567205
766.381,36.61228503198436
768.882,14.18610362068739
771.38,5.611480177564772
773.877,11.363735095381344
776.372,18.108791527772155
778.866,25.988887172188697
781.357,30.479714624271764
783.847,61.77137125603667
786.335,86.95883290358461
788.821,111.89909422147639
791.306,132.35402332282547
793.789,177.133216419385
796.27,229.18923341402206
798.749,306.33188111223717
801.227,353.2758297670239
803.702,404.6406105760991
806.176,442.52204175056954
808.649,423.73032125026043
811.119,416.07573856666
813.588,390.7020055534947
816.055,323.0386348763368
818.521,292.2771279860235
820.984,272.7995440444629
823.446,214.51183075519612
825.906,217.22477424158228
828.365,213.177806067848
830.821,166.61042930775284
833.276,128.7622160418191
835.729,120.11090009266172
838.181,127.37237452221757
840.631,147.21497484326233
843.079,174.54519080235855
845.525,120.46004482946455
847.97,77.58042286849741
850.412,43.0986909221856
852.854,27.25488302548729
855.293,31.146222552346444
857.731,40.393786379588846
860.167,21.85678809844103
862.601,25.20400408319665
865.034,30.05662813130698
867.465,27.273983246333046
869.894,31.477328658991155
872.321,46.47842875295805
874.747,54.61288389543779
877.171,53.21631841058229
879.594,58.671997124340805
882.014,52.41082286169126
884.433,48.53038156292314
886.851,94.65208263801196
889.266,98.30210884481062
891.68,106.10188997675755
894.092,125.29190988392634
896.503,148.39837063692767
898.912,150.85223764318744
901.319,154.2273323822692
903.724,120.85937752215432
906.128,100.27456584503557
908.53,122.66574822074108
910.931,138.22576443728963
913.329,148.33791688860038
915.726,143.3854918812408
918.122,133.65651903642356
920.516,111.62948307294846
922.908,123.21141654252847
925.298,119.97599256512126
927.687,91.59209375472756
930.074,120.87142876424537
932.459,124.76852978270767
934.843,119.99979765155945
937.225,106.9006422190323
939.605,96.13976555165868
941.984,57.2429689553087
944.361,95.87886475812843
946.736,102.90649285538962
949.11,113.04198487338408
951.482,85.62046642856058
953.853,78.26272129141239
956.222,83.87518888371096
958.589,110.98329510906547
960.954,114.54097365968096
963.318,119.50209208501451
965.68,100.62997309852926
968.041,71.35453493206478
970.4,64.05800311878306
972.757,47.45586037135104
975.113,38.977796460123955
977.467,36.62484856751257
979.819,19.112255928071363
982.17,-2.130542674280605
984.519,-14.198006647125112
986.866,-27.232303677629716
989.212,-3.6614057557526394
991.556,23.753289502898724
993.899,45.44076320878685
996.24,78.16322678877032
998.579,106.77802359699672
1000.92,95.14238766866174
1003.25,67.97058342614969
1005.59,24.40533109946182
1007.92,-0.6012440438285012
1010.25,-0.287614849563397
1012.58,11.583813710103641
1014.91,14.488608556580402
1017.24,21.521260113873268
1019.56,50.20470653601569
1021.88,87.34747846656478
1024.2,97.3294174169755
1026.52,78.10167985926228
1028.84,86.66293179484933
1031.16,77.29744808532246
1033.48,133.2417832117519
1035.79,168.25620393877807
1038.1,163.5770743596479
1040.41,147.964479036498
1042.72,144.98794137872574
1045.03,137.97880868803077
1047.33,166.07787529868915
1049.64,181.18776762259517
1051.94,162.68723395620145
1054.24,175.1930533350801
1056.54,179.03623010277556
1058.84,197.1667599082184
1061.13,212.20125284600203
1063.43,221.6610327871358
1065.72,211.21023670980458
1068.01,218.65581879202978
1070.3,231.09041164718587
1072.59,215.84471136904472
1074.87,202.29700543395575
1077.16,232.587462507792
1079.44,275.47527939575343
1081.72,313.52916132550513
1084.0,381.93684984936635
1086.28,419.9336983655403
1088.56,454.08839049648986
1090.84,566.3029441816018
1093.11,653.24128719842
1095.38,664.8530707791149
1097.65,636.9927213221956
1099.92,555.9432540089786
1102.19,433.7496102295802
1104.46,387.02818548510277
1106.72,380.72873824219414
1108.98,387.9915368828549
1111.24,404.718792368521
1113.5,452.2889480470142
1115.76,510.46144564995916
1118.02,576.1862531949671
1120.28,618.2705357449643
1122.53,639.7119928341799
1124.78,586.222672084619
1127.03,515.3242113939568
1129.28,463.53831921867413
1131.53,372.4820167619562
1133.77,286.39145159015493
1136.02,254.8361874397317
1138.26,250.62397021466563
1140.5,292.9435892219624
1142.74,358.6505955500247
1144.98,407.50540139940017
1147.22,409.1732841754367
1149.45,391.2243905809396
1151.69,349.8480264231084
1153.92,320.7098035633435
1156.15,284.47545353371515
1158.38,263.6679744867663
1160.61,235.95334957388332
1162.83,213.61674151414968
1165.06,158.75297287747685
1167.28,148.12367303440715
1169.5,97.68109177257202
1171.72,72.33000815125752
1173.94,58.83249649881759
1176.16,65.37935907676228
1178.37,34.92346350573962
1180.58,43.51308019152407
1182.8,9.10141022718426
1185.01,-1.6438867047438634
1187.22,-6.293069191993936
1189.42,-6.416213839782813
1191.63,-24.678448519680387
1193.84,-39.8399481705992
1196.04,-30.70831221219578
1198.24,-21.09094454411138
1200.44,-7.842675879318449
1202.64,-11.437198838705854
1204.84,-13.395648105013379
1207.03,-23.619943289637376
1209.23,-1.2499425062196678
1211.42,15.574640762441504
1213.61,8.190413561166906
1215.8,10.743622088266193
1217.99,19.666329033497277
1220.18,24.485925081072992
1222.36,56.825117691752894
1224.55,83.49715995587712
1226.73,76.69631999073772
1228.91,75.66454081414327
1231.09,51.88190974179565
1233.27,15.97141349894855
1235.44,18.98464571302634
1237.62,42.7827525014734
1239.79,51.79833205740988
1241.96,85.03543139071257
1244.13,139.97430497385972
1246.3,181.52379243539326
1248.47,253.4975057771926
1250.64,350.8043023060309
1252.8,430.82923375560995
1254.96,507.862114456211
1257.13,622.6689466472026
1259.29,703.8728695990744
1261.44,807.5255849259481
1263.6,878.2978295171395
1265.76,899.3365151353901
1267.91,877.7409156341434
1270.06,817.8483779843402
1272.22,700.0438428250313
1274.37,613.5693650139854
1276.51,510.47649132116635
1278.66,425.3881619317269
1280.81,375.4034690918561
1282.95,322.7643205165359
1285.09,260.998293273479
1287.23,236.96624957183235
1289.37,232.24328588420826
1291.51,239.4044439734796
1293.65,242.07232668147753
1295.78,265.8694756224543
1297.92,254.03741554320527
1300.05,259.293793921295
1302.18,302.87999675375363
1304.31,338.6087643457788
1306.44,388.48323567086004
1308.57,454.792183207099
1310.69,494.3004858687664
1312.82,547.391982890246
1314.94,577.9742324718791
1317.06,632.5737466162868
1319.18,676.3359878694564
1321.3,676.7872708237273
1323.41,683.9299969541157
1325.53,673.8616989784464
1327.64,563.4417042651053
1329.75,511.00541728841426
1331.87,446.8881258935187
1333.98,393.32975994224466
1336.08,368.85584043513086
1338.19,335.27747625252755
1340.3,257.54850375282604
1342.4,191.62262637069534
1344.5,128.40579231055813
1346.6,92.42285795434191
1348.7,61.4366322216174
1350.8,71.59073045354558
1352.9,98.647666392058
1354.99,101.5602774923691
1357.09,67.28124547359084
1359.18,35.28690258363554
1361.27,3.1962759593532155
1363.36,20.009179605722238
1365.45,60.72526234186057
1367.54,103.7725798919696
1369.62,127.86474046863759
1371.7,158.14376464185898
1373.79,190.9419928270986
1375.87,188.63923086859336
1377.95,199.2818003845632
1380.03,184.96349387432042
1382.1,198.77795839681403
1384.18,173.3901268682207
1386.25,144.1314588833452
1388.33,110.04756248940384
1390.4,77.99343500742862
1392.47,41.919180044143786
1394.54,29.917629265749156
1396.6,-7.299464399723092
1398.67,-25.068086491153053
1400.74,-15.867189129804729
1402.8,-21.747253238540907
1404.86,-4.9969486922341275
1406.92,-1.8097961567016227
1408.98,18.477740173327675
1411.04,60.91006407239411
1413.09,81.15054430699479
1415.15,103.48151831817268
1417.2,138.99477209458132
1419.25,161.59154385506827
1421.3,179.0301467788879
1423.35,208.97359173590553
1425.4,194.32292430252505
1427.45,191.59818082522838
1429.49,165.27172543650613
1431.54,147.05396802316477
1433.58,126.7028917184416
1435.62,120.5954851560241
1437.66,83.39441281930681
1439.7,72.71468539064495
1441.74,56.07604438633007
1443.77,55.52201345822664
1445.81,57.9056163620819
1447.84,76.60366635440687
1449.87,84.65962701792932
1451.9,100.21218737276013
1453.93,125.40002746375148
1455.96,162.02848870976254
1457.98,196.61719663388112
1460.01,248.82863597459414
1462.03,309.8491067493419
1464.05,382.67444222282916
1466.07,455.01477449439153
1468.09,585.6278715139279
1470.11,729.0810455264109
1472.13,894.5130615163944
1474.14,1076.967474223948
1476.16,1223.106917541547
1478.17,1311.4988224823896
1480.18,1351.948754196333
1482.19,1274.6432727953581
1484.2,1150.1023179885503
1486.21,968.7030222885196
1488.21,767.6797146940014
1490.22,600.1715434200803
1492.22,452.8891462474603
1494.22,327.7813208717364
1496.22,254.55883810981072
1498.22,167.8849217729669
1500.22,106.80382377804358
1502.22,63.645589734799614
1504.21,26.835586438035534
1506.21,2.608791264477759
1508.2,-7.752108906525791
1510.19,-10.630999724692174
1512.18,7.826426485018828
1514.17,40.04600720538042
1516.16,39.45368320661055
1518.14,20.237406152476296
1520.13,-8.652858555511102
1522.11,-31.552747981518678
1524.09,-29.940641668337094
1526.07,-14.532897776710797
1528.05,3.954240796747854
1530.03,10.661784785941336
1532.01,8.826087805873613
1533.98,8.731221716885102
1535.96,26.0899244860218
1537.93,39.94835845764851
1539.9,70.01944092787016
1541.87,70.73046043323666
1543.84,76.46116922992928
1545.81,80.44854243961231
1547.78,81.54868005242793
1549.74,77.0463279776086
1551.7,86.41678004647383
1553.67,101.27825620590329
1555.63,127.15380452133513
1557.59,153.51891746547972
1559.55,163.42057677845696
1561.5,170.04867928031445
1563.46,164.87889125497236
1565.41,156.00597902464528
1567.37,156.42952047664699
1569.32,161.29199754257434
1571.27,179.21212677272888
1573.22,157.6658089581574
1575.17,122.93850732412716
1577.11,88.64905429502369
1579.06,75.22583921163482
1581.0,67.66871033414259
1582.95,106.12040065464748
1584.89,79.8189060906368
1586.83,64.09748272608113
1588.77,61.86083452871617
1590.7,58.632729638758974
1592.64,47.12742618143011
1594.58,54.91633617471848
1596.51,52.737546579998934
1598.44,27.59105463836522
