Raman Shift,Processed Intensity
331.095,78.52723053308182
333.909,39.01265986061753
336.721,47.29313965313486
339.531,86.20201109256959
342.339,129.00120248662006
345.145,188.09552283163612
347.949,195.58028870880207
350.751,195.1222845136781
353.55,200.91215125716462
356.348,215.14058489028776
359.144,248.1888203432718
361.937,251.4381631836568
364.729,264.9842831791816
367.518,286.1134126225743
370.306,321.683306561099
373.091,341.36134588326513
375.874,389.67216421504145
378.656,370.71194148275845
381.435,321.386506999806
384.212,256.69706160096985
386.988,150.3592331100781
389.761,80.80308418861432
392.532,26.601691612905142
395.301,-16.290750639181624
398.068,-33.53892353961328
400.833,-17.42637516157629
403.596,-8.998371669427343
406.358,20.223819444667242
409.117,-21.376117672901728
411.874,-50.3190714432194
414.629,-41.31621540148262
417.382,-8.935675609151076
420.133,-8.745394833702903
422.882,23.591617132598003
425.629,68.55536540783169
428.374,162.81647468728443
431.117,305.90284432724366
433.858,459.1520253604808
436.597,509.8064546545834
439.334,544.822974784584
442.069,543.2537824769943
444.802,540.3892818157601
447.533,535.615223162491
450.262,549.7460325528923
452.989,577.072426807466
455.714,634.1233143565055
458.438,620.9991246365094
461.159,602.7527565342175
463.878,535.5324315925491
466.595,504.6293091212938
469.31,505.14414892686045
472.024,517.9873073753506
474.735,504.8787334556373
477.444,500.01463150910104
480.152,489.73412395936793
482.857,527.0430568991833
485.561,543.852091391575
488.262,582.0719376281554
490.962,595.232398611246
493.659,614.6252233597943
496.355,642.208864877211
499.048,673.1322857382379
501.74,689.0682874853496
504.43,776.880173358481
507.118,832.1931729295238
509.804,918.9658667368226
512.488,1035.3473252053823
515.17,1166.2961523289905
517.85,1272.8661960189893
520.528,1381.6827346435257
523.204,1436.6091397572936
525.878,1487.699253116975
528.551,1533.387858934786
531.221,1536.2525847034613
533.89,1540.1091353545553
536.556,1543.2970036072375
539.221,1559.2508946027742
541.883,1557.8340553009361
544.544,1565.1001753049582
547.203,1548.388621019857
549.86,1535.8006221916658
552.515,1538.2945060657426
555.168,1583.923788687931
557.819,1629.9324090628625
560.469,1718.4213918836917
563.116,1780.920272166601
565.761,1852.7204246471974
568.405,1909.9702979388285
571.047,1985.9611248813549
573.687,2056.4602519375644
576.324,2128.139706684816
578.96,2141.576193878105
581.594,2179.2034724655205
584.227,2191.312351651293
586.857,2168.9554488636413
589.485,2051.5186143892493
592.112,1916.7209274363495
594.737,1812.9956445787384
597.359,1718.3949577235999
599.98,1634.6376092221894
602.599,1566.6803165043284
605.216,1486.9558633795523
607.831,1404.658810385889
610.445,1441.459776567192
613.056,1516.6959117266756
615.666,1626.4661305851996
618.274,1785.2977755109728
620.88,1995.432326868317
623.484,2164.9682562235694
626.086,2396.003879550985
628.686,2580.7802104386365
631.284,2734.7761942467046
633.881,2816.2801327419415
636.476,2789.8658706369147
639.068,2659.4404107006703
641.659,2445.6724812503676
644.249,2130.1353893571686
646.836,1797.2593978616856
649.421,1443.5698166751076
652.005,1125.020332175597
654.587,879.897765176097
657.166,712.060162225474
659.745,576.032029766804
662.321,452.9090921051793
664.895,328.072573185043
667.468,240.90347836752608
670.038,182.6873523982631
672.607,181.80475166093083
675.174,148.30266881172793
677.739,150.70405265195677
680.303,125.67447085774711
682.864,96.6411536621531
685.424,66.31679944201233
687.982,52.318618400035575
690.538,25.882614342141096
693.092,52.48263521340368
695.645,37.73514340493375
698.195,16.161131734451374
700.744,-6.813859950160804
703.291,-27.66924804013979
705.836,-34.40843050839976
708.38,6.9650441347343985
710.921,65.0189237738191
713.461,126.79702901121937
715.999,157.43831593837876
718.535,193.08165319280306
721.069,177.3420275864687
723.602,160.12008306756934
726.133,152.4116596822696
728.662,119.45066586978282
731.189,74.70909361459417
733.714,71.23036693202448
736.238,21.53411892521399
738.759,7.9019212230637095
741.279,10.710632465794333
743.798,-2.472348447586228
746.314,9.587123269142467
748.829,10.361382013078583
751.342,-26.915223531762877
753.853,-14.770124766022036
756.362,-26.682994213235816
758.869,-36.99049503152128
761.375,-34.74341295543354
763.879,-38.32569572263128
766.381,-12.21635348327709
768.882,23.296256251055638
771.38,18.11442539413929
773.877,3.235853976612816
776.372,33.134599313691524
778.866,46.71345374430757
781.357,95.11346522738359
783.847,114.52345793811583
786.335,119.51336238805243
788.821,91.55802173566326
791.306,161.65623619213784
793.789,257.37837885575436
796.27,396.2949639272174
798.749,530.5480720678311
801.227,653.0418233767382
803.702,723.5852313205296
806.176,789.6064852342902
808.649,803.6767566321719
811.119,792.2244817084452
813.588,753.3448819337832
816.055,702.8951989372613
818.521,650.6375484359796
820.984,601.7627265456404
823.446,528.0330637101742
825.906,465.0681357742128
828.365,410.1066655317659
830.821,357.81604332250754
833.276,305.57803810425594
835.729,265.44117519211113
838.181,233.93025685474913
840.631,213.99874005356787
843.079,195.21920941993721
845.525,192.30718356578063
847.97,171.31158806082658
850.412,152.75760936224196
852.854,121.88478683949779
855.293,107.17081908495811
857.731,97.95060831969886
860.167,99.2257809898083
862.601,91.33135121982787
865.034,86.6023842661948
867.465,80.27875520877251
869.894,71.17181240429136
872.321,74.5691361778745
874.747,90.94882132409703
877.171,94.16995008422919
879.594,69.52020798062131
882.014,78.85873774631682
884.433,57.04470754039312
886.851,82.50873630614387
889.266,140.3481286530846
891.68,189.70782402466148
894.092,176.54229824691856
896.503,196.28222698192758
898.912,157.59638727646507
901.319,160.24879720592162
903.724,202.81299837535198
906.128,241.33871937291497
908.53,231.35187255663914
910.931,236.94978893643565
913.329,208.03931019896254
915.726,193.3844045420069
918.122,213.32044917554413
920.516,203.8970842513595
922.908,210.83059060220012
925.298,210.0753150999708
927.687,207.20461982345387
930.074,198.83945027364416
932.459,210.12452263670139
934.843,223.25213009452455
937.225,245.41452056389244
939.605,264.6610363403738
941.984,271.1838251708018
944.361,278.50831323051807
946.736,286.7789161958435
949.11,275.3780836498904
951.482,252.40248634551017
953.853,237.7582510872885
956.222,222.58952894687945
958.589,207.89753966881335
960.954,195.15961607630788
963.318,180.4244389532705
965.68,197.26441478344077
968.041,197.06138682286974
970.4,202.8637747438288
972.757,170.95799999300152
975.113,130.43991114967685
977.467,77.73859023632303
979.819,78.09253998154736
982.17,60.64491870209122
984.519,71.39591804198062
986.866,78.72656928309334
989.212,81.35112726983562
991.556,79.55516861952219
993.899,98.2432137422893
996.24,102.93872981337881
998.579,107.35556231685587
1000.92,96.82650944646957
1003.25,77.20808698270366
1005.59,79.97576936031146
1007.92,87.08113549774316
1010.25,69.61853843609697
1012.58,93.30129878759772
1014.91,88.08075532693147
1017.24,93.90817272544291
1019.56,143.25855404722643
1021.88,146.70207229284597
1024.2,119.04693051447248
1026.52,123.62507907389136
1028.84,117.53031385287932
1031.16,129.33256493977615
1033.48,185.9350424589161
1035.79,210.95519192385018
1038.1,225.62945911438328
1040.41,226.05138828693953
1042.72,225.5525775277838
1045.03,209.36934839195828
1047.33,218.8808441136498
1049.64,208.18046114989193
1051.94,180.55204262902498
1054.24,198.6603575134427
1056.54,178.97967500043296
1058.84,187.65091035158775
1061.13,199.05305643650172
1063.43,200.8508057526583
1065.72,193.70883911198007
1068.01,210.43468575595307
1070.3,194.6930120421821
1072.59,205.76752917855174
1074.87,203.60861524311622
1077.16,225.21427053730986
1079.44,242.01107293916584
1081.72,265.6160856374777
1084.0,281.4559077231156
1086.28,338.62382001843116
1088.56,399.78454995428365
1090.84,456.79332216135526
1093.11,518.02919477575
1095.38,554.1569671731659
1097.65,510.6986115125824
1099.92,468.7951804704369
1102.19,425.4449054509796
1104.46,362.5984376537808
1106.72,342.63504152218707
1108.98,361.5530739060637
1111.24,409.2080822721541
1113.5,464.2651886287247
1115.76,506.7229020216339
1118.02,543.3416929351697
1120.28,567.1678057881227
1122.53,570.0570714298572
1124.78,578.8653863030524
1127.03,565.448715415961
1129.28,479.13928579086405
1131.53,455.88844657918867
1133.77,399.8381006052041
1136.02,369.7016597192303
1138.26,375.8116668175196
1140.5,424.64360833833007
1142.74,486.57782199609323
1144.98,579.2328330870164
1147.22,608.8463098422967
1149.45,631.8941140194338
1151.69,586.9474467316379
1153.92,518.4823752296159
1156.15,451.07031206431293
1158.38,366.71135139250146
1160.61,291.119986234761
1162.83,271.62987335250045
1165.06,216.05097907735762
1167.28,207.43148704536134
1169.5,183.2958964072791
1171.72,155.4545486103957
1173.94,130.0036303707625
1176.16,122.70612902640369
1178.37,79.8013593190849
1180.58,53.10020446180215
1182.8,15.889881015788433
1185.01,-23.256534327720146
1187.22,-48.95629225142898
1189.42,-56.35029956080143
1191.63,-27.341212382026924
1193.84,13.977988813041065
1196.04,49.085893767640755
1198.24,52.413601565988756
1200.44,29.201851690433614
1202.64,16.16767888814593
1204.84,36.17106803779825
1207.03,64.64351677811555
1209.23,84.49279032182721
1211.42,105.436251404205
1213.61,118.619904517323
1215.8,149.5707734776338
1217.99,187.91118375546557
1220.18,218.5968543283193
1222.36,222.5359419151264
1224.55,214.20808521050185
1226.73,183.56916340471253
1228.91,168.1465308941183
1231.09,144.6104424678042
1233.27,137.3454784942146
1235.44,142.06958915540417
1237.62,186.40551963367216
1239.79,262.78556863153017
1241.96,354.1182516535755
1244.13,430.6454404788401
1246.3,521.2280740617011
1248.47,650.3461551470923
1250.64,842.8130325999873
1252.8,1063.2039694491737
1254.96,1294.9513775976889
1257.13,1531.3924334856447
1259.29,1789.6738366101931
1261.44,1999.03752042644
1263.6,2168.4396965817014
1265.76,2159.6460896259437
1267.91,2042.2795526746058
1270.06,1828.7248259285684
1272.22,1632.6047237655512
1274.37,1405.6848932600792
1276.51,1241.11190603678
1278.66,1069.698969171301
1280.81,960.8306837102764
1282.95,860.3201841436749
1285.09,781.5043731152382
1287.23,708.6248704186323
1289.37,648.2565810412175
1291.51,623.4505489221033
1293.65,668.1149059483032
1295.78,724.0624876175493
1297.92,765.2965439392101
1300.05,822.677402716155
1302.18,868.5891328266189
1304.31,912.2252551251195
1306.44,997.6363581052724
1308.57,1075.7777135626106
1310.69,1161.6521303526406
1312.82,1284.8337605298484
1314.94,1402.8966673914692
1317.06,1488.0814887593478
1319.18,1534.8192431189486
1321.3,1507.9694214726392
1323.41,1454.8676030025053
1325.53,1363.3730707331551
1327.64,1246.6783319564383
1329.75,1149.1186386561526
1331.87,1031.8862698375242
1333.98,914.744813856676
1336.08,802.6482126548708
1338.19,648.8836155165513
1340.3,518.0237566369119
1342.4,436.8317136418477
1344.5,366.4989994412422
1346.6,325.9788921774875
1348.7,265.224527078763
1350.8,229.4746073599331
1352.9,189.5391151234453
1354.99,152.8945460697546
1357.09,151.4934299220372
1359.18,145.00242227947047
1361.27,125.32611075623026
1363.36,143.5593925490498
1365.45,122.03509010002836
1367.54,86.60966199752602
1369.62,103.9489138770623
1371.7,136.147042655542
1373.79,167.67902281263105
1375.87,204.21013552926388
1377.95,233.35787877853636
1380.03,220.35863932135817
1382.1,183.25817422592445
1384.18,161.91161619671038
1386.25,125.173955093936
1388.33,117.09051945303872
1390.4,118.32555324224222
1392.47,97.49555452488266
1394.54,27.074042693162482
1396.6,-4.037007631421602
1398.67,-33.50716126908219
1400.74,-28.672752398505054
1402.8,-0.34640063539382027
1404.86,9.802040417075204
1406.92,21.00738846716513
1408.98,39.74246636729413
1411.04,64.71810365402871
1413.09,121.3593307401261
1415.15,218.71014453514454
1417.2,289.90970263748386
1419.25,367.0970889549985
1421.3,433.887507897045
1423.35,509.0865738046223
1425.4,522.3093622852721
1427.45,489.551842500362
1429.49,402.1432618333147
1431.54,308.6509115102144
1433.58,256.11822555375966
1435.62,250.63621307054268
1437.66,240.4387000621457
1439.7,229.61661885528042
1441.74,214.40372610335453
1443.77,197.70041602613765
1445.81,194.40705745894888
1447.84,191.90018804470992
1449.87,194.98489890217888
1451.9,194.9424573894296
1453.93,210.24459653399344
1455.96,245.88685208205357
1457.98,320.29332811906033
1460.01,400.79289126178173
1462.03,536.1429838979659
1464.05,709.9105802831493
1466.07,954.6626664469845
1468.09,1250.0138629567132
1470.11,1576.3883333949202
1472.13,1937.1626452182363
1474.14,2325.0943449017605
1476.16,2637.4648187977587
1478.17,2876.174534946757
1480.18,2923.885903936247
1482.19,2778.9756635689087
1484.2,2496.630120673715
1486.21,2144.130869107489
1488.21,1763.569079185055
1490.22,1406.5121680617538
1492.22,1075.7180891635912
1494.22,781.6115263792829
1496.22,555.2838977761114
1498.22,397.92193074435386
1500.22,302.5695704750344
1502.22,226.8422693900709
1504.21,158.40318133431424
1506.21,83.86792719616142
1508.2,59.661741480553474
1510.19,45.30519031054064
1512.18,19.12846085742035
1514.17,26.31898410421286
1516.16,6.302390942467355
1518.14,-22.400341254740624
1520.13,-27.315742059808827
1522.11,3.9821557252466846
1524.09,29.91943648374081
1526.07,49.44610978366086
1528.05,44.131347347010205
1530.03,14.877767638195792
1532.01,-14.4595176428179
1533.98,-6.406238019739931
1535.96,11.321510824628376
1537.93,14.436312039169934
1539.9,24.888948129246273
1541.87,31.011254814837685
1543.84,39.03992726962929
1545.81,44.02127874104849
1547.78,59.38266583696668
1549.74,87.5039138124032
1551.7,100.71731328479655
1553.67,147.4028550445189
1555.63,197.84536962729499
1557.59,222.3773811723329
1559.55,264.9981517566432
1561.5,302.32605906270123
1563.46,303.1700216651411
1565.41,329.05330526984653
1567.37,338.64209085779544
1569.32,304.6978523527164
1571.27,258.74402000303553
1573.22,213.30407233525034
1575.17,161.2824852501651
1577.11,143.96472873816947
1579.06,141.68393026118406
1581.0,120.15420480127477
1582.95,83.75636586164114
1584.89,75.87125551522831
1586.83,93.73688397714318
1588.77,117.97223584374365
1590.7,134.9582191888735
1592.64,104.88528132676356
1594.58,47.801024574931716
1596.51,9.872107731366214
1598.44,22.931861837422275
