Raman Shift,Processed Intensity
331.095,71.47032018115078
333.909,87.52923272940734
336.721,102.76031458648322
339.531,115.16357289291318
342.339,121.35807668933467
345.145,116.29624977131971
347.949,145.978163544185
350.751,165.1658298778102
353.55,150.3355891995643
356.348,149.53526049199445
359.144,151.4317674809854
361.937,170.12066958584091
364.729,220.79283572648183
367.518,286.59159432115393
370.306,339.6603594746025
373.091,396.9521619281413
375.874,427.9439419145142
378.656,408.11274677463143
381.435,355.1262142886135
384.212,265.8901988639668
386.988,157.16782629518548
389.761,59.29378661859437
392.532,-2.4923254137579534
395.301,-23.474574622113778
398.068,-23.794011591767685
400.833,-7.305808389642152
403.596,-2.9602062911039866
406.358,-6.9929899047760955
409.117,-31.592152563751824
411.874,-49.99313347133648
414.629,-51.81215088176168
417.382,-30.23668201543569
420.133,10.069764781530921
422.882,56.872394712740515
425.629,94.07939100778322
428.374,184.21808542830559
431.117,304.3873259655343
433.858,419.44795038839584
436.597,532.4037359821104
439.334,580.9252064296434
442.069,577.397248216967
444.802,554.0619651335624
447.533,537.4472470586275
450.262,542.0810530329927
452.989,584.0152181405733
455.714,604.6349746755341
458.438,615.4684733094523
461.159,589.2820185441874
463.878,542.6514946409534
466.595,523.1052201208213
469.31,492.3620403604582
472.024,486.18846780691365
474.735,481.58915552575536
477.444,496.2830850349101
480.152,479.3226112813645
482.857,503.90298380834474
485.561,502.5052012558158
488.262,563.1817230038528
490.962,589.2707522445612
493.659,662.6343285778225
496.355,696.134515845129
499.048,731.8238756777
501.74,783.7549886636516
504.43,843.9328326580153
507.118,869.8862087118055
509.804,975.5725003344264
512.488,1079.8538613275
515.17,1213.9257845710717
517.85,1356.6980517622046
520.528,1428.6994926773782
523.204,1460.2684587205958
525.878,1524.4099631381596
528.551,1558.795678376296
531.221,1609.7163143911725
533.89,1626.272092197005
536.556,1621.0870269379711
539.221,1616.1184490553674
541.883,1618.0379540261974
544.544,1610.3266378160442
547.203,1590.608427570029
549.86,1565.3643646847586
552.515,1565.5516497850244
555.168,1638.8417353195405
557.819,1720.4298467281324
560.469,1832.7968845612759
563.116,1906.51894564727
565.761,1967.5054156879687
568.405,2034.5703951878513
571.047,2127.4326968116607
573.687,2169.3348903610904
576.324,2214.9956810848034
578.96,2236.5622879884645
581.594,2235.2294888114293
584.227,2255.9539030986666
586.857,2215.35875146316
589.485,2150.1624243721158
592.112,2072.416574742696
594.737,1970.5537343472674
597.359,1842.3873111710404
599.98,1785.5877772459025
602.599,1705.9683802937707
605.216,1645.6279982270862
607.831,1579.3797079350334
610.445,1560.0841159745146
613.056,1565.1731654516052
615.666,1718.7929905220512
618.274,1885.4229613679636
620.88,2085.2090148887887
623.484,2306.820794916103
626.086,2541.356411476018
628.686,2679.72339052778
631.284,2826.2100998928445
633.881,2854.9143180410906
636.476,2814.0289457341746
639.068,2723.7943843355597
641.659,2511.6413903110138
644.249,2179.667263062446
646.836,1829.96917561889
649.421,1473.8822672322422
652.005,1175.1701169253724
654.587,941.8818837069075
657.166,739.4475420240879
659.745,584.1540695966032
662.321,433.43115905993045
664.895,363.5655010372593
667.468,315.4150672114192
670.038,247.69482196822673
672.607,203.45291023030995
675.174,153.59446433855828
677.739,121.50064902880604
680.303,119.07627783708176
682.864,103.27361998105016
685.424,72.28287390811056
687.982,64.19883131969345
690.538,29.06849357649662
693.092,25.31964789089716
695.645,3.2846881845939606
698.195,-18.32317996902293
700.744,-23.31468407937018
703.291,-33.73875292233606
705.836,-13.596786788012196
708.38,27.204974421333645
710.921,57.18879357806645
713.461,76.68639631146016
715.999,119.60088337092748
718.535,146.35911917972498
721.069,178.34031086484902
723.602,192.0188730012228
726.133,170.63110187968732
728.662,117.31804025118527
731.189,73.07786588047247
733.714,20.337327718869346
736.238,3.761277315105872
738.759,3.8717240356959337
741.279,17.19069980911445
743.798,3.145028631884543
746.314,-5.886046782481117
748.829,-43.142285973585786
751.342,-47.19672884711872
753.853,-64.71759283543861
756.362,-76.27778910578309
758.869,-91.54539114943282
761.375,-75.99791289467612
763.879,-48.49372967692307
766.381,-19.60541326814291
768.882,-16.714971668207454
771.38,-1.4424222295710933
773.877,16.258968551383987
776.372,29.721730957285672
778.866,49.849904639376746
781.357,77.97617977854998
783.847,83.7666572940011
786.335,121.88751381378779
788.821,148.2907142644426
791.306,191.83305779391367
793.789,272.2761760754638
796.27,391.42938875441723
798.749,516.0544636568297
801.227,636.6751389029132
803.702,701.1009307347463
806.176,759.9985603916002
808.649,766.5586190805093
811.119,749.5431853277842
813.588,725.333442330536
816.055,679.9296762605672
818.521,609.7131793301874
820.984,547.112914762778
823.446,466.4150389062179
825.906,373.66766144154553
828.365,327.8237008297074
830.821,291.8837397583047
833.276,245.89602344548894
835.729,219.57550556289834
838.181,176.20860844431536
840.631,145.89131662764885
843.079,141.1482227778847
845.525,126.59919265764665
847.97,104.10222057395458
850.412,97.99152292019153
852.854,58.36325076569392
855.293,54.26596435009424
857.731,27.12920281576453
860.167,18.239672987874656
862.601,-1.211133274115582
865.034,14.206392560744007
867.465,27.636164474956786
869.894,39.079257349299496
872.321,13.346286219078138
874.747,-9.51402399344397
877.171,-36.40531636565629
879.594,-13.040746527888587
882.014,12.866539449971697
884.433,53.936736695670334
886.851,59.79004650511115
889.266,44.09429369382906
891.68,57.13635347227182
894.092,76.86976879727763
896.503,85.77189153306881
898.912,94.32007123130234
901.319,86.42022486349515
903.724,71.16873988678799
906.128,99.47152016684868
908.53,139.3773176150603
910.931,162.88725430189743
913.329,150.28815409410663
915.726,119.72396952999043
918.122,107.71958964706755
920.516,131.37131447639786
922.908,158.10875810833522
925.298,174.12341842494425
927.687,165.41629445146145
930.074,143.41693227918313
932.459,151.26913765501786
934.843,167.73573619008948
937.225,186.29380975880667
939.605,208.37279004079573
941.984,193.49731396758625
944.361,194.19198393120314
946.736,158.1718422784711
949.11,130.5804648529429
951.482,136.27567358444048
953.853,131.92477288812643
956.222,105.24264320642988
958.589,125.80126312240372
960.954,109.2678029016497
963.318,115.30938470090678
965.68,121.40260468140832
968.041,97.69067416985627
970.4,86.55484653368285
972.757,71.70965358012381
975.113,43.01242766957921
977.467,33.034728590879695
979.819,2.729008531791351
982.17,-13.095199140958812
984.519,3.5620517554907565
986.866,11.89111880270957
989.212,4.891815802516703
991.556,14.278172247883958
993.899,14.192717798397098
996.24,25.968386301841747
998.579,44.1285164830183
1000.92,60.76780643452457
1003.25,67.07612525040258
1005.59,51.957562755018444
1007.92,34.50662208908989
1010.25,31.912983724279
1012.58,38.36626947778268
1014.91,72.57985414596442
1017.24,92.12420094751133
1019.56,69.04591125230445
1021.88,55.677250500766604
1024.2,53.11234078988491
1026.52,41.1595439354096
1028.84,72.81765405786928
1031.16,85.75209016858435
1033.48,95.62823161281813
1035.79,117.06380113198156
1038.1,136.39077173536134
1040.41,117.7982259528053
1042.72,128.61807223026062
1045.03,106.46790418245473
1047.33,108.91766936939302
1049.64,123.10871902523786
1051.94,111.13476254909574
1054.24,106.32758390056279
1056.54,110.01894847146787
1058.84,88.15965281474837
1061.13,110.41476484953091
1063.43,143.7826735900103
1065.72,144.49985316004904
1068.01,151.08848395063615
1070.3,182.4040737773521
1072.59,187.73069808544642
1074.87,202.44766872634955
1077.16,197.64858368655905
1079.44,178.37942443557722
1081.72,169.01951041670918
1084.0,213.04340591880737
1086.28,266.0685412337407
1088.56,327.71235762337756
1090.84,420.40183323895735
1093.11,500.9925328499785
1095.38,536.4828956683359
1097.65,501.4428088867271
1099.92,416.8707526456428
1102.19,312.8604688098635
1104.46,297.8866773640084
1106.72,298.1384118557121
1108.98,295.04283102926956
1111.24,341.4080780783315
1113.5,373.99471132716917
1115.76,443.0395158643146
1118.02,513.3507437476269
1120.28,539.5938303998428
1122.53,525.1961586231682
1124.78,534.5375368995924
1127.03,523.8549634054766
1129.28,492.2426281213825
1131.53,430.794772084756
1133.77,360.1294990235656
1136.02,310.29353937089354
1138.26,340.7146333271512
1140.5,421.3920091603859
1142.74,477.13448055419985
1144.98,535.2271153842498
1147.22,544.0026663995027
1149.45,539.0320495225455
1151.69,535.4576792927405
1153.92,481.9458519284335
1156.15,403.82960457963736
1158.38,320.01347934262367
1160.61,252.4973348935564
1162.83,237.0430152649874
1165.06,215.46006624139955
1167.28,181.79621365950698
1169.5,149.71831789903445
1171.72,116.13142361159589
1173.94,110.17876183052385
1176.16,106.43222827117643
1178.37,59.511433059817136
1180.58,33.51227427202002
1182.8,-1.9930599575063752
1185.01,5.234386865397482
1187.22,13.19557979940646
1189.42,4.46301818451775
1191.63,-9.866880972370836
1193.84,-10.602351992830336
1196.04,-31.74199192786
1198.24,-12.712853940630794
1200.44,-0.32282751455613834
1202.64,1.7631683386753139
1204.84,6.880323858408701
1207.03,37.45917251894343
1209.23,60.1684442437886
1211.42,105.48649075676121
1213.61,141.22509188547474
1215.8,155.71992853149686
1217.99,160.73534135478576
1220.18,174.6548037438456
1222.36,169.09996621444952
1224.55,178.2639865226506
1226.73,155.62581215875025
1228.91,141.14065331745678
1231.09,157.8114082489983
1233.27,157.40294575309235
1235.44,152.5849591014853
1237.62,194.55101043668174
1239.79,215.1137656468636
1241.96,279.27641971699904
1244.13,392.137455413289
1246.3,538.7954019676149
1248.47,715.5393080476961
1250.64,930.4201671082005
1252.8,1121.0128189323345
1254.96,1348.9873749829599
1257.13,1591.2520723251369
1259.29,1861.4770799296343
1261.44,2104.523066881182
1263.6,2252.869770586735
1265.76,2267.663612602781
1267.91,2147.3843620817056
1270.06,1941.416561122904
1272.22,1737.5733310762926
1274.37,1539.6201788458002
1276.51,1343.608327002407
1278.66,1185.303281992406
1280.81,1003.5181642504335
1282.95,855.7803716458297
1285.09,763.522052452804
1287.23,717.8420068920327
1289.37,682.4580648627311
1291.51,671.468987484252
1293.65,684.0687495900652
1295.78,718.1179650788808
1297.92,763.5724551229187
1300.05,834.9594354237865
1302.18,895.6156082302687
1304.31,956.6871591180079
1306.44,1032.9392775787219
1308.57,1126.9466299903638
1310.69,1228.0933563968156
1312.82,1353.858781573283
1314.94,1460.2459832345576
1317.06,1521.0198840527928
1319.18,1541.0882008181397
1321.3,1541.5014412184323
1323.41,1508.5005196664838
1325.53,1435.7548493178715
1327.64,1340.6956721839497
1329.75,1195.230341625822
1331.87,1070.1232715149722
1333.98,955.6149806319954
1336.08,834.1363751605686
1338.19,693.0706502290363
1340.3,562.5628104996113
1342.4,441.80538123377664
1344.5,367.60983364339427
1346.6,298.882772146585
1348.7,258.53069305217105
1350.8,245.36474324412256
1352.9,205.81500267553702
1354.99,183.6923859102344
1357.09,147.66482937864384
1359.18,125.40014530036206
1361.27,106.61363751146246
1363.36,128.7347649108624
1365.45,123.19285252572399
1367.54,133.55994543400493
1369.62,126.3603293536703
1371.7,154.11814647000256
1373.79,147.54786840576298
1375.87,172.0781025246879
1377.95,178.99444585402898
1380.03,169.58233900709638
1382.1,158.26992010580489
1384.18,144.43754536988172
1386.25,129.13207161083392
1388.33,112.87637682116065
1390.4,94.0026902873733
1392.47,56.17639889348811
1394.54,36.0627105673816
1396.6,15.802841536668438
1398.67,6.39497113760126
1400.74,-16.06765676389432
1402.8,-24.825297313332158
1404.86,-13.7374103662778
1406.92,25.145917698473113
1408.98,55.58397787448166
1411.04,81.81210754565973
1413.09,111.11312402012527
1415.15,144.43637711168503
1417.2,229.92156362607602
1419.25,345.3749227995845
1421.3,467.69781269004443
1423.35,536.4105246630747
1425.4,562.6522883545067
1427.45,499.75270520424147
1429.49,437.184134371053
1431.54,371.4188405521609
1433.58,310.9289989456465
1435.62,244.66289068907395
1437.66,228.33062210762319
1439.7,197.45174872413259
1441.74,189.5457564120013
1443.77,188.56063778618477
1445.81,158.1109924037105
1447.84,141.90660315467812
1449.87,162.80006027230183
1451.9,188.4058139143799
1453.93,242.481131506677
1455.96,303.02134080058363
1457.98,371.3074538831672
1460.01,465.8109340443593
1462.03,606.8603674060471
1464.05,775.4509916940219
1466.07,1018.8637488194538
1468.09,1325.7129088889285
1470.11,1664.3746465954518
1472.13,2075.891808085622
1474.14,2488.4024873506296
1476.16,2810.5209835696287
1478.17,3001.2425679769262
1480.18,3046.991107872026
1482.19,2885.8095477725374
1484.2,2604.5980096146955
1486.21,2249.2090358110263
1488.21,1842.9237846889628
1490.22,1423.4520354532717
1492.22,1083.2179074341898
1494.22,783.1217698117566
1496.22,551.4926275306159
1498.22,392.37384054815584
1500.22,294.189795463604
1502.22,195.6506723852076
1504.21,126.18102132122635
1506.21,78.0150052375966
1508.2,58.72021454416745
1510.19,49.34052919997703
1512.18,50.348504628065484
1514.17,26.359662392180326
1516.16,-1.5341715074687272
1518.14,-19.62200452893194
1520.13,-19.907005959429398
1522.11,-3.106501952929875
1524.09,-7.318639264033436
1526.07,-6.403336757050056
1528.05,-3.220380083626651
1530.03,-14.962755195551381
1532.01,-10.680458694555682
1533.98,12.338548637444092
1535.96,30.854053437329867
1537.93,64.10215741373531
1539.9,90.17622595237367
1541.87,76.36021767375087
1543.84,66.27153780039498
1545.81,64.67055819075858
1547.78,81.74632784930782
1549.74,118.35466438899425
1551.7,180.35148358897095
1553.67,218.5927956189721
1555.63,266.8394631684537
1557.59,313.3762452900255
1559.55,339.1070317190672
1561.5,363.74531528858734
1563.46,401.0522833916932
1565.41,405.55109992025996
1567.37,388.62213958454186
1569.32,345.6458412804095
1571.27,281.0979424089603
1573.22,231.21614176756862
1575.17,197.4286672028329
1577.11,174.92570040638157
1579.06,171.46889694877427
1581.0,187.15328726578218
1582.95,181.12155859705308
1584.89,166.89738454382223
1586.83,152.86161176947508
1588.77,153.8236847953574
1590.7,150.6883088918148
1592.64,170.16973201685346
1594.58,144.43459818337124
1596.51,99.19718177877053
1598.44,37.79081236075558
