Raman Shift,Processed Intensity
331.095,181.9107640656157
333.909,166.28256600803797
336.721,164.35941020131486
339.531,174.14131483065648
342.339,193.05690588026437
345.145,225.8443876995084
347.949,251.17060880718827
350.751,261.3215562672294
353.55,255.3452310167586
356.348,246.76595176561932
359.144,236.6796112768293
361.937,240.51559931370957
364.729,271.4177732060625
367.518,313.95876174969135
370.306,344.9495072011505
373.091,413.344045367744
375.874,458.95380950704794
378.656,480.4000294645207
381.435,473.7327974777918
384.212,382.57394350475215
386.988,247.45038674212174
389.761,165.413201429727
392.532,78.89477789288458
395.301,45.137412156197115
398.068,20.38380031927727
400.833,-11.980086115157064
403.596,-60.6154582465183
406.358,-78.5640249244434
409.117,-86.67654720639257
411.874,-83.80330404646884
414.629,-69.5559951203827
417.382,-16.593462732683747
420.133,-34.9550420192063
422.882,-42.346299696419464
425.629,-11.043822155006183
428.374,14.819040351218064
431.117,105.96642496697268
433.858,201.93230158084634
436.597,237.822343495538
439.334,256.02817905047914
442.069,237.37021467303384
444.802,203.90712459636234
447.533,196.79295962490278
450.262,193.94377970938285
452.989,220.13285795039928
455.714,247.22874174485696
458.438,254.90950440860388
461.159,238.9484253704918
463.878,223.59490846168364
466.595,188.05063830018616
469.31,144.80287953253992
472.024,105.6244427421666
474.735,87.14507892914071
477.444,87.28001684710944
480.152,115.18230986401704
482.857,153.86185831486364
485.561,149.18539310280948
488.262,130.35264977646466
490.962,108.65825689290159
493.659,103.34886247590066
496.355,131.57549856943888
499.048,173.584052006634
501.74,205.85812665721232
504.43,262.35714377021304
507.118,313.6592042214543
509.804,364.3896650467109
512.488,441.93543026061116
515.17,490.15924167553567
517.85,573.2092078157548
520.528,614.6140471172803
523.204,639.9497596991341
525.878,640.5062991346203
528.551,660.7161489844975
531.221,645.3448040920512
533.89,681.538394735318
536.556,667.0141679221615
539.221,670.346206780589
541.883,625.8701975681256
544.544,626.8739109668868
547.203,622.4067309977181
549.86,654.3272791724025
552.515,691.3034195982655
555.168,707.7170259875352
557.819,706.6163677143259
560.469,759.4780196811316
563.116,813.3021055186664
565.761,841.2789693571299
568.405,865.0272761689002
571.047,850.0702073493339
573.687,851.6449896308859
576.324,848.0838525686695
578.96,831.8140336450715
581.594,799.0720690886405
584.227,797.5704656453677
586.857,812.4500866356698
589.485,843.6134903923339
592.112,802.8201734603495
594.737,755.8294328443762
597.359,681.9717996847612
599.98,653.7680919811892
602.599,635.2151339829875
605.216,668.4524279603947
607.831,686.4288259758209
610.445,727.902534988451
613.056,766.2982648159796
615.666,846.3262808582717
618.274,927.6490758686214
620.88,1062.024232201209
623.484,1208.1615697728353
626.086,1334.3421987865677
628.686,1448.8947153125227
631.284,1531.195206392461
633.881,1606.6672551443908
636.476,1596.829564914788
639.068,1535.1054881927225
641.659,1402.2516031430373
644.249,1210.5005758538027
646.836,1005.9897368694938
649.421,800.9991815336875
652.005,610.6184417603267
654.587,468.27030066213047
657.166,349.5679405123469
659.745,248.457804992217
662.321,171.69579477177103
664.895,106.32346309062495
667.468,79.42992562449581
670.038,52.19948463742503
672.607,30.530681705438383
675.174,47.51249329734719
677.739,28.186245862890246
680.303,37.974200698748064
682.864,24.108138814559425
685.424,16.057948661451064
687.982,5.293551002603635
690.538,-0.4293642475240631
693.092,-32.54550430865356
695.645,-49.15613927602817
698.195,-52.36241076317219
700.744,-35.78912019164318
703.291,-23.0609033284627
705.836,-23.992696184128363
708.38,6.886461967701507
710.921,-4.904662549378372
713.461,13.819551402593788
715.999,44.62586778310788
718.535,67.08124278525975
721.069,64.37187424783724
723.602,109.11272725786966
726.133,86.0142026103299
728.662,62.07261479163708
731.189,30.046384248877075
733.714,-2.877294150502621
736.238,-35.034830278043955
738.759,-5.429094094104585
741.279,16.556300141131487
743.798,19.061753635009154
746.314,-7.5816529559438095
748.829,1.4335520746822112
751.342,-2.751628344692108
753.853,9.575431723534166
756.362,27.937073156847873
758.869,29.570110093302446
761.375,7.806778728396694
763.879,41.55092420719029
766.381,51.42085418307806
768.882,51.701716186098565
771.38,40.29787499123131
773.877,44.25671855812925
776.372,47.1019877803692
778.866,64.30996337756415
781.357,76.59517659699895
783.847,100.14850086764841
786.335,98.8276244065787
788.821,131.82371330154115
791.306,166.13759840308853
793.789,258.15120031192873
796.27,349.770382937706
798.749,415.7106642006479
801.227,454.4019743522531
803.702,486.9886523912262
806.176,495.13896628892803
808.649,553.3308236910241
811.119,562.8517683334123
813.588,538.3227859819742
816.055,492.4125865627898
818.521,454.3614101018852
820.984,386.7429279030714
823.446,328.79757229721736
825.906,256.8134854391367
828.365,252.17413477114542
830.821,241.50116658185402
833.276,255.13059289829448
835.729,239.6365974256646
838.181,210.68867482040105
840.631,157.14686520135183
843.079,148.01413151809447
845.525,145.43635596686772
847.97,161.70233640650622
850.412,162.38663991723388
852.854,153.06388493088434
855.293,128.1182614563602
857.731,108.93400368604375
860.167,101.56205307840105
862.601,94.81529286915293
865.034,95.554258772926
867.465,102.73475444680366
869.894,102.21737171578275
872.321,101.19605841727866
874.747,119.48382910277064
877.171,91.60799954897288
879.594,72.42923079281104
882.014,63.23676364258972
884.433,70.89127223678247
886.851,86.87247950757842
889.266,117.2315345491968
891.68,127.82910427190973
894.092,160.33536981797647
896.503,173.75383250138088
898.912,194.18321498566593
901.319,168.29364817605074
903.724,148.75523906393005
906.128,159.38092428566642
908.53,194.36456177661375
910.931,191.37616528228818
913.329,206.22856744096725
915.726,172.2107495329533
918.122,156.23069503937086
920.516,157.33919558190428
922.908,154.68222829111733
925.298,133.40571412715326
927.687,149.79837143851728
930.074,133.19647428277722
932.459,149.60289646154115
934.843,166.30615555544478
937.225,179.02326648294388
939.605,187.5664045829169
941.984,201.65242584012594
944.361,177.04572044401039
946.736,158.1296377760607
949.11,113.52553044480555
951.482,100.4737030827066
953.853,93.16674209543521
956.222,100.98760731590141
958.589,117.79534270591125
960.954,121.0679299149624
963.318,104.52133231523362
965.68,109.87139617942671
968.041,109.21479947765306
970.4,93.12428638860592
972.757,49.50580657263731
975.113,21.5508925400718
977.467,-13.358582028103228
979.819,-13.507548721449211
982.17,30.628444686911507
984.519,40.09751715837956
986.866,15.99525969503793
989.212,18.226638965810253
991.556,3.744091408802433
993.899,7.1189522966924415
996.24,41.39860093892639
998.579,42.58265388833229
1000.92,40.28963506776586
1003.25,46.0426935158107
1005.59,44.22198779913856
1007.92,48.73135613916361
1010.25,35.61736749106899
1012.58,10.640753575225972
1014.91,-5.485492424728818
1017.24,-9.38182668762488
1019.56,10.85499264087116
1021.88,43.0328618032529
1024.2,43.95957253123629
1026.52,31.061863767637078
1028.84,49.38542576919963
1031.16,59.73776135228604
1033.48,87.49771380522839
1035.79,124.37737575306278
1038.1,154.32685516511924
1040.41,146.77237469594297
1042.72,169.378180550028
1045.03,163.1894037275008
1047.33,165.4415879364774
1049.64,151.1797413149402
1051.94,151.02024529547703
1054.24,136.24609680335107
1056.54,141.37834093075867
1058.84,163.65226551585124
1061.13,182.39835762651728
1063.43,167.89945052035773
1065.72,163.81929917608522
1068.01,142.154965348735
1070.3,142.66539310106805
1072.59,170.25236528735445
1074.87,200.62717432287172
1077.16,196.73919771530973
1079.44,197.72828311998774
1081.72,191.49618101411988
1084.0,201.5160726091799
1086.28,272.11828823944893
1088.56,368.442692417231
1090.84,459.81964031663483
1093.11,550.6747437811669
1095.38,592.0050659027563
1097.65,533.6648394102974
1099.92,478.6988041058146
1102.19,380.48506811015204
1104.46,334.4970167277031
1106.72,324.63664988257847
1108.98,346.61553860238314
1111.24,343.7643529305717
1113.5,369.556675553084
1115.76,415.08519637736345
1118.02,489.4426690161372
1120.28,545.3885815569142
1122.53,559.5396368552865
1124.78,523.7507090187107
1127.03,463.30532369981097
1129.28,426.5823288658721
1131.53,375.6749465207197
1133.77,309.7241101408781
1136.02,250.39465925460013
1138.26,254.44677211611952
1140.5,297.21216028468075
1142.74,358.5940727273685
1144.98,393.305395160035
1147.22,431.1543684358537
1149.45,436.187449791006
1151.69,421.87979313799383
1153.92,378.89715793037817
1156.15,308.52448469418596
1158.38,254.5230419878792
1160.61,249.60662098137868
1162.83,204.63201574937034
1165.06,164.07521785032122
1167.28,149.41237281026565
1169.5,126.78645089229758
1171.72,107.388203580354
1173.94,91.50378672966417
1176.16,40.65762181242826
1178.37,12.898114306360185
1180.58,9.702419702270163
1182.8,7.976447606887177
1185.01,5.388199179015373
1187.22,0.6534855180702834
1189.42,-29.321210290388308
1191.63,-28.438727729552966
1193.84,-29.69693762579118
1196.04,-22.283977796417275
1198.24,-10.816348813705872
1200.44,-26.624631930050782
1202.64,-23.89635218304238
1204.84,-12.19979499796841
1207.03,9.801698223075846
1209.23,27.96876533847285
1211.42,13.400295532390373
1213.61,-11.852297622087008
1215.8,8.595866368008501
1217.99,41.986935953333386
1220.18,79.89650829324955
1222.36,98.66219184141846
1224.55,70.9074070266388
1226.73,45.92232979082655
1228.91,33.71150179365986
1231.09,58.136678712460935
1233.27,83.7739642563713
1235.44,86.19951901946433
1237.62,80.75145981006244
1239.79,92.81556850385414
1241.96,113.82528661130414
1244.13,164.11885270220364
1246.3,260.5107255445082
1248.47,349.2439596241295
1250.64,479.9901997123386
1252.8,627.6115801950766
1254.96,745.1607196403638
1257.13,882.3569058418964
1259.29,1005.9670427674059
1261.44,1117.4246927451188
1263.6,1211.3538805549742
1265.76,1213.1881356150814
1267.91,1145.1228675015116
1270.06,1049.1629795633207
1272.22,928.8371492042461
1274.37,853.3406795929645
1276.51,766.3926370876472
1278.66,654.8072743747939
1280.81,556.3035488461635
1282.95,467.7432124042823
1285.09,390.3212822203325
1287.23,350.6136543491871
1289.37,341.6723363920537
1291.51,371.5016325400834
1293.65,396.05813814178464
1295.78,445.53644855615426
1297.92,457.5120108629528
1300.05,436.8458803348808
1302.18,449.0656673859487
1304.31,475.6988654722279
1306.44,504.93951232593645
1308.57,553.8862797609522
1310.69,609.3996110973756
1312.82,635.0540966813346
1314.94,635.2337065476361
1317.06,641.3698802252811
1319.18,662.7510451144051
1321.3,670.9035634346487
1323.41,681.5917267925729
1325.53,697.0082269395496
1327.64,648.869388434417
1329.75,622.6532584489871
1331.87,594.6948394307053
1333.98,532.3289408129176
1336.08,465.7473164394419
1338.19,438.99865913198596
1340.3,375.5124047813854
1342.4,315.47967929597576
1344.5,239.6628169785415
1346.6,147.72868842706703
1348.7,99.58202843548838
1350.8,100.98447818016189
1352.9,87.07838931109609
1354.99,86.10110423365768
1357.09,62.71828400931804
1359.18,53.881045780212844
1361.27,66.82595733655353
1363.36,106.78932370928874
1365.45,105.81671732286213
1367.54,112.57251483362188
1369.62,95.91133873012427
1371.7,78.40187988581874
1373.79,80.42214868315205
1375.87,91.01663089958834
1377.95,118.22963406981034
1380.03,142.8672052764989
1382.1,167.3066679887247
1384.18,136.87758747176895
1386.25,97.3379742921934
1388.33,42.39810687051454
1390.4,17.24435403388543
1392.47,-16.79414528837583
1394.54,-24.959750450619367
1396.6,-16.780585685070946
1398.67,-33.02290373764572
1400.74,-25.26249982316608
1402.8,-20.78946071351629
1404.86,-26.798631708219773
1406.92,-3.580086333710824
1408.98,56.62373505646133
1411.04,54.5704075953015
1413.09,87.35085621917938
1415.15,93.81792807987154
1417.2,122.01496495660831
1419.25,188.41389947764196
1421.3,259.82001800848366
1423.35,290.6576759210923
1425.4,337.5417271487827
1427.45,301.1346680268432
1429.49,260.2418763712535
1431.54,201.5258981764457
1433.58,128.22073431306876
1435.62,96.70327008289837
1437.66,83.3504190594615
1439.7,72.82483835723156
1441.74,84.26540580558549
1443.77,85.66817331323205
1445.81,86.74351070883517
1447.84,112.29705910544021
1449.87,118.84877950300324
1451.9,140.6329537718682
1453.93,174.12199516005649
1455.96,200.07406832436777
1457.98,227.6759474567191
1460.01,278.5906363152467
1462.03,349.24308349349826
1464.05,428.15351673724876
1466.07,559.0803010708321
1468.09,700.0199397806223
1470.11,887.4927896842271
1472.13,1110.733538304445
1474.14,1341.7864429479828
1476.16,1554.3624745460766
1478.17,1716.7916995903531
1480.18,1789.3089954020195
1482.19,1772.7207177820085
1484.2,1603.357082946834
1486.21,1392.9769304168283
1488.21,1141.3867716186699
1490.22,899.2026956307618
1492.22,662.6598939762339
1494.22,467.8983758921395
1496.22,304.20106455103155
1498.22,208.3747504253954
1500.22,144.27390179494046
1502.22,117.46733239674359
1504.21,57.000107170641286
1506.21,35.77449562366314
1508.2,14.359496623033692
1510.19,-9.961541572722354
1512.18,-3.0004441398227755
1514.17,15.050078455236417
1516.16,9.473574715639643
1518.14,28.125091305223805
1520.13,12.097842322749557
1522.11,-2.3244061818522823
1524.09,-19.429237405522144
1526.07,-28.075579011999025
1528.05,-27.5508414457629
1530.03,1.9052750749276584
1532.01,26.76744682448043
1533.98,40.89138996370025
1535.96,58.27576222156313
1537.93,36.34787410080253
1539.9,32.868447702544245
1541.87,6.97923269380135
1543.84,38.20300322735147
1545.81,63.53879295685124
1547.78,89.27141646620089
1549.74,101.25718117510291
1551.7,149.4476944827136
1553.67,158.08033757796102
1555.63,194.3925487736724
1557.59,199.95515445974615
1559.55,162.38665243727587
1561.5,148.9246381098203
1563.46,189.3305640080066
1565.41,192.65164217128086
1567.37,171.31607986298604
1569.32,140.2283152854434
1571.27,119.24520567598051
1573.22,101.03316778390968
1575.17,112.97293739513066
1577.11,105.6833764757771
1579.06,88.6405184111004
1581.0,74.79661324435438
1582.95,88.19917291567845
1584.89,87.7052545962215
1586.83,87.07669640321615
1588.77,81.40868644838974
1590.7,76.03452236256112
1592.64,81.14465653452794
1594.58,89.33431277852151
1596.51,76.0558649064194
1598.44,23.809310538052387
