Raman Shift,Processed Intensity
331.095,71.35673933272301
333.909,-20.920302473667107
336.721,-28.866427939856294
339.531,12.185036728324576
342.339,47.424589103840844
345.145,91.5427481421516
347.949,96.7300613086918
350.751,73.98663551588879
353.55,75.07452520303195
356.348,121.47012041614971
359.144,133.69748726883608
361.937,164.89980364117127
364.729,164.60127106912432
367.518,155.04045520538875
370.306,216.4560072325985
373.091,319.75333765750474
375.874,417.40938534325005
378.656,467.4250055892617
381.435,428.8011677349373
384.212,324.4913432395415
386.988,176.21103661922916
389.761,63.43779257455026
392.532,28.982631689387745
395.301,-5.628990060577507
398.068,-37.53812656130276
400.833,-37.21900109954049
403.596,-45.383761732070525
406.358,-43.60152675643167
409.117,-0.6793393945135904
411.874,1.2425861337587776
414.629,1.3098986919685558
417.382,-7.045903389765954
420.133,34.94013326398772
422.882,68.84259424120592
425.629,131.18854027654743
428.374,219.64797333574415
431.117,332.3671674304369
433.858,407.5877137187281
436.597,447.40842274857596
439.334,411.3091314631047
442.069,365.3411768725682
444.802,362.1273935358413
447.533,396.33830151810116
450.262,420.3587705389882
452.989,465.6213507874322
455.714,473.41579421266624
458.438,458.03190914856987
461.159,443.9024149380143
463.878,385.41246322386405
466.595,318.5663020971201
469.31,324.1301307212575
472.024,331.87019205179877
474.735,315.6480084130276
477.444,332.03942659850554
480.152,335.0489010668366
482.857,348.39520570885725
485.561,398.3209551386417
488.262,432.25926884164573
490.962,480.5956734180959
493.659,486.81095720732856
496.355,505.6716439597453
499.048,531.2776093659172
501.74,549.871602347589
504.43,575.8392425391553
507.118,649.1375891977068
509.804,701.2475196368882
512.488,808.840393375051
515.17,953.6351924738701
517.85,1041.6842333055415
520.528,1104.0398307009273
523.204,1123.7066763834227
525.878,1127.118026926626
528.551,1145.8976059977304
531.221,1188.764363743759
533.89,1228.4848552254361
536.556,1228.5399045653376
539.221,1194.2198405246222
541.883,1159.957827317855
544.544,1136.2346239992585
547.203,1122.4833438489518
549.86,1150.3275470925537
552.515,1179.5336193350577
555.168,1194.6774357090007
557.819,1229.239596451182
560.469,1273.7482815270155
563.116,1307.684010016781
565.761,1338.3843995018901
568.405,1383.710830213046
571.047,1416.0008234641223
573.687,1442.401372466983
576.324,1470.202273146312
578.96,1471.1218359068139
581.594,1457.4021212099492
584.227,1416.142270388756
586.857,1352.536598367446
589.485,1284.826972095268
592.112,1237.4932842184835
594.737,1219.1582124666124
597.359,1248.3015028482196
599.98,1255.2599671324042
602.599,1227.322718425536
605.216,1207.6835496051235
607.831,1171.9647403251251
610.445,1198.3599116402943
613.056,1255.4911663448142
615.666,1357.313848358559
618.274,1456.1641592561987
620.88,1590.3305843201333
623.484,1720.6253185934147
626.086,1889.9556929326754
628.686,2033.08607625152
631.284,2169.733111097266
633.881,2202.375234941959
636.476,2161.0145824257684
639.068,2022.1769828384877
641.659,1874.6262433153142
644.249,1686.6022415564457
646.836,1463.2018756895282
649.421,1194.7123950845025
652.005,938.8494930731863
654.587,680.1858758593521
657.166,532.1512600002175
659.745,401.8895127450887
662.321,302.0681733263764
664.895,236.44987901252534
667.468,209.98760068474894
670.038,189.68178317566617
672.607,186.4851046555641
675.174,156.92152173294198
677.739,134.84817169791359
680.303,95.02679857514022
682.864,61.55232203390415
685.424,45.709977726742636
687.982,21.118171913809874
690.538,37.20467559238159
693.092,51.34948999654716
695.645,41.313428663846025
698.195,11.428608066130892
700.744,3.1222715737690123
703.291,-14.65462467540101
705.836,-20.570253280501674
708.38,-28.769042466280553
710.921,8.795004950990915
713.461,25.215466534203642
715.999,60.34779487218657
718.535,103.6188503217154
721.069,117.12214803523693
723.602,93.61786689335804
726.133,82.53285843733556
728.662,57.38922723013957
731.189,1.4710064556134057
733.714,-25.223452196654762
736.238,-45.69575531311875
738.759,-49.66174453806434
741.279,-33.551487641118
743.798,-18.03308384966749
746.314,-33.25076006193103
748.829,-32.44391944097242
751.342,-29.470951913486715
753.853,-4.952092287626783
756.362,14.063912105360032
758.869,5.575990912349425
761.375,-9.36925021662637
763.879,-34.20134012716426
766.381,-35.06403837356129
768.882,0.5179971395423308
771.38,29.210637753617448
773.877,30.58456879555706
776.372,24.877193364603045
778.866,-14.197844833103318
781.357,-32.73637674521615
783.847,-26.262756567205997
786.335,8.508232520763613
788.821,31.24280595028449
791.306,72.13103393259098
793.789,112.12493572168205
796.27,205.12895482982321
798.749,292.9523390049494
801.227,414.30913925568575
803.702,475.6277326858931
806.176,503.3365358053993
808.649,528.292574983584
811.119,557.8767235696341
813.588,545.0413199651825
816.055,517.7863571255125
818.521,465.3499577750522
820.984,385.3036115276268
823.446,347.36169772099583
825.906,299.857674918062
828.365,241.12503231283563
830.821,200.40205066021963
833.276,182.78418225340192
835.729,168.89071661554362
838.181,159.29335095336
840.631,125.80190346784593
843.079,86.94050285548201
845.525,59.99520638086824
847.97,60.775903663645295
850.412,71.66393475112682
852.854,80.75494628617253
855.293,66.0017476750636
857.731,34.8333577315625
860.167,11.583575130506233
862.601,-9.31854637670358
865.034,-28.158222746606498
867.465,-4.839702523433516
869.894,12.161351233523419
872.321,31.65500283206029
874.747,37.07037630540253
877.171,30.122321103884588
879.594,-3.521922213373955
882.014,-17.671294382032556
884.433,7.912891116289529
886.851,45.18361374569031
889.266,78.76052589337996
891.68,110.88233284707303
894.092,104.12107753428268
896.503,79.14404430923946
898.912,69.61851988265289
901.319,71.54512568005816
903.724,91.16257877158114
906.128,114.47150042075896
908.53,132.61536749049105
910.931,140.49955908709376
913.329,128.0770698710221
915.726,107.11041384377836
918.122,109.17162337292325
920.516,114.8803434551753
922.908,116.14192597952297
925.298,129.05219065699566
927.687,154.8498049980583
930.074,137.82104524238184
932.459,162.72836681242757
934.843,178.28659381464763
937.225,185.1629180644959
939.605,165.40546954000888
941.984,153.7766487401484
944.361,123.51503047172196
946.736,111.47822001724603
949.11,105.57142358852752
951.482,141.65220925643143
953.853,130.81622026160244
956.222,153.0162216585186
958.589,151.96686124525104
960.954,129.28752573132851
963.318,111.12138738178828
965.68,122.7544506612303
968.041,110.23459887787021
970.4,126.41921225615874
972.757,100.8799288665441
975.113,61.902643650476875
977.467,50.34465030255524
979.819,38.920354581242464
982.17,42.10603523862551
984.519,35.75889066445893
986.866,37.117037911167245
989.212,27.704273623606014
991.556,37.425311159305465
993.899,47.23244628014095
996.24,61.887460939237144
998.579,82.58066992501699
1000.92,69.69282464810635
1003.25,55.842731213950856
1005.59,15.982487543053367
1007.92,-4.840612842122255
1010.25,-5.817415125481148
1012.58,15.00404981374254
1014.91,6.432851233495967
1017.24,40.03991993634986
1019.56,42.91995403620513
1021.88,59.92951585817718
1024.2,57.306081219421685
1026.52,66.85851728140142
1028.84,98.96708421166932
1031.16,124.82153208375871
1033.48,132.183007300873
1035.79,131.71738759099776
1038.1,128.471474144872
1040.41,155.96823137300407
1042.72,191.44488380555163
1045.03,195.6148225160141
1047.33,201.42951154491857
1049.64,184.50706099018066
1051.94,170.22746676412362
1054.24,167.25642177907253
1056.54,160.83103189485428
1058.84,144.4741032948698
1061.13,148.66081081454672
1063.43,147.10441388884033
1065.72,162.28006773783113
1068.01,182.7105393142233
1070.3,202.06144706036753
1072.59,194.52221495099775
1074.87,185.75845510740032
1077.16,180.3881599353881
1079.44,219.36265616804417
1081.72,238.01422557512728
1084.0,280.2465828153431
1086.28,305.1539247171777
1088.56,360.3542652740239
1090.84,450.8941992107375
1093.11,563.5822369787636
1095.38,633.5126159417455
1097.65,624.7795877516039
1099.92,515.1917057246146
1102.19,412.1765884079723
1104.46,338.1142545749103
1106.72,321.6704582198247
1108.98,358.8919283153057
1111.24,381.63494190249867
1113.5,387.61294480051833
1115.76,457.82512469681046
1118.02,518.9849842375145
1120.28,562.9489141178303
1122.53,581.1923852200005
1124.78,573.5718550370134
1127.03,530.181912191543
1129.28,472.16480190727225
1131.53,411.4247133849815
1133.77,338.4849243214901
1136.02,308.24970733335977
1138.26,316.9090935234558
1140.5,331.84363604751184
1142.74,349.7672689187875
1144.98,408.6796896222538
1147.22,422.91397982402236
1149.45,447.8985117950531
1151.69,455.63314054915486
1153.92,405.68920550478765
1156.15,365.73334167068697
1158.38,339.6227194029095
1160.61,269.9764746380754
1162.83,230.08047245994248
1165.06,202.6968325707412
1167.28,162.82583571488863
1169.5,132.65830629318248
1171.72,107.76609021508784
1173.94,91.05443751292341
1176.16,74.33343257510319
1178.37,45.31799580794291
1180.58,28.485028154612564
1182.8,9.216269899803137
1185.01,-10.058840525614414
1187.22,-1.767926787540091
1189.42,-6.100434891605573
1191.63,-7.245727806061041
1193.84,-5.440704075090025
1196.04,-4.874559923372317
1198.24,-19.212599738672225
1200.44,-3.9295709339933182
1202.64,12.118905439631362
1204.84,58.26775911678942
1207.03,74.42341843443023
1209.23,47.206664149554626
1211.42,11.428816590243741
1213.61,34.758398997164704
1215.8,41.91161038888572
1217.99,109.03327581413396
1220.18,124.83970136595235
1222.36,117.14248157682027
1224.55,115.13421157566995
1226.73,127.81705638776293
1228.91,104.38370118694297
1231.09,103.83639678598593
1233.27,87.98695750790239
1235.44,87.36152096199908
1237.62,132.200545915181
1239.79,172.83976254419736
1241.96,228.94826554503584
1244.13,316.4808929565945
1246.3,419.2496526034058
1248.47,512.2094342526393
1250.64,646.1246741520615
1252.8,780.7122100441793
1254.96,947.6888980851436
1257.13,1144.295420239851
1259.29,1351.1534250103641
1261.44,1535.4083824500478
1263.6,1656.872439177711
1265.76,1706.976797201267
1267.91,1651.3431403604409
1270.06,1505.7360131504377
1272.22,1328.3485328789393
1274.37,1172.9452446802427
1276.51,1022.2430717674972
1278.66,921.6732180658955
1280.81,827.0954517982373
1282.95,717.8933414514545
1285.09,636.8313965050368
1287.23,596.9598272070766
1289.37,568.8526376836514
1291.51,579.9409571434344
1293.65,617.5130377489791
1295.78,660.3809191546613
1297.92,710.8804263779634
1300.05,746.7283105279041
1302.18,780.6889133429886
1304.31,784.2884507767753
1306.44,806.4340584882127
1308.57,837.8899801891123
1310.69,887.3728036106716
1312.82,925.2657440890441
1314.94,956.4281662461506
1317.06,961.4812961466791
1319.18,986.2844096455578
1321.3,982.4110207354283
1323.41,984.7203079893609
1325.53,960.0237790988069
1327.64,938.8947925544051
1329.75,905.9066507553641
1331.87,867.3468835950393
1333.98,779.8839129988867
1336.08,705.2337174624299
1338.19,613.9217346844573
1340.3,555.8066689621226
1342.4,487.03287001461626
1344.5,401.9827118068429
1346.6,306.18135232547
1348.7,257.7729219264161
1350.8,213.23480692042767
1352.9,205.66336173009677
1354.99,194.34533533258445
1357.09,177.09120246425277
1359.18,162.66373292053595
1361.27,152.39703704628482
1363.36,147.00608741659835
1365.45,135.92005004145153
1367.54,138.47275842747968
1369.62,150.56937811594958
1371.7,151.2102140778684
1373.79,179.30023239481784
1375.87,200.69667717787502
1377.95,181.11383034368646
1380.03,185.26586662863065
1382.1,194.3430419363192
1384.18,163.0593102565242
1386.25,170.98565486982693
1388.33,136.02627669511025
1390.4,98.99002073230031
1392.47,76.447516790814
1394.54,63.68355831325289
1396.6,24.506624056228475
1398.67,20.915542628347566
1400.74,-20.424319162289976
1402.8,-7.419150997966426
1404.86,13.167589505627348
1406.92,28.38184382982854
1408.98,52.55514252621765
1411.04,94.92365378495197
1413.09,113.39009214226985
1415.15,152.23800814036645
1417.2,222.22703036822918
1419.25,260.4500122643749
1421.3,336.19017891958947
1423.35,367.44494054634515
1425.4,375.0211345196308
1427.45,343.2969340844554
1429.49,326.8408999204921
1431.54,254.0786507543396
1433.58,230.81667682892726
1435.62,174.76615337292628
1437.66,147.7810397844346
1439.7,135.57236929086548
1441.74,119.0892052754939
1443.77,114.75674046115364
1445.81,138.66677704631206
1447.84,154.76820684113522
1449.87,189.81939616546038
1451.9,211.1977136039177
1453.93,209.9471529991415
1455.96,241.63548025450746
1457.98,283.1637610892549
1460.01,339.7663649840806
1462.03,450.67763579340885
1464.05,581.2271337862246
1466.07,736.506306258342
1468.09,934.558967668479
1470.11,1194.0479702505202
1472.13,1437.6837793876823
1474.14,1721.3673347009787
1476.16,1957.5233873281395
1478.17,2138.290980059694
1480.18,2215.8567846178967
1482.19,2176.502724649949
1484.2,2015.939313006937
1486.21,1759.5913699751477
1488.21,1431.5027891264344
1490.22,1121.2889222161987
1492.22,851.0889640813791
1494.22,596.375480395569
1496.22,447.8115544717616
1498.22,312.29841025556493
1500.22,235.11827341366575
1502.22,192.1248514699057
1504.21,179.02905203659975
1506.21,140.7799391410938
1508.2,98.37426098089236
1510.19,45.523120535935504
1512.18,13.223408085630808
1514.17,20.281614678269534
1516.16,44.93288369567745
1518.14,41.88863384644128
1520.13,25.288944063896224
1522.11,23.55970030887488
1524.09,18.84117094388489
1526.07,10.368963059670705
1528.05,-8.192640245849589
1530.03,-23.607818779119725
1532.01,-28.16444940057613
1533.98,-8.769341024316873
1535.96,28.766051643083983
1537.93,33.868482715347
1539.9,20.821959303647418
1541.87,27.43440474139902
1543.84,37.656702761417364
1545.81,50.9636464349835
1547.78,80.06822044424143
1549.74,118.30255002126387
1551.7,161.23694512521206
1553.67,196.96561128616213
1555.63,215.48759854417153
1557.59,226.84965515024896
1559.55,225.00336698161118
1561.5,247.04324933789258
1563.46,270.2543625468793
1565.41,272.06468947500684
1567.37,250.66417970452517
1569.32,257.480936567807
1571.27,242.84788037213207
1573.22,229.76464971970836
1575.17,210.37378854197914
1577.11,182.3893140863097
1579.06,157.2395706169607
1581.0,144.97198787796356
1582.95,149.5864109845677
1584.89,148.3684303146897
1586.83,152.74652092416954
1588.77,155.62537243822067
1590.7,148.57636180002146
1592.64,131.07564506692802
1594.58,121.88510634954378
1596.51,94.29044960793271
1598.44,34.458338066877104
