Raman Shift,Processed Intensity
331.095,121.43689746742484
333.909,-8.634030107312356
336.721,-6.72396581449857
339.531,66.83376915595454
342.339,122.34873504382313
345.145,153.17814756674215
347.949,156.70308053978442
350.751,121.49514468552434
353.55,117.69745215839248
356.348,151.11986678330823
359.144,176.09615905622786
361.937,205.10306590659047
364.729,201.76030284072704
367.518,244.02105227574657
370.306,273.1719756829457
373.091,345.64274954075063
375.874,398.10131557336854
378.656,404.930083370391
381.435,354.4164187206802
384.212,282.943131946261
386.988,169.0837281409681
389.761,134.12622883767744
392.532,95.40651748505206
395.301,92.92739921000202
398.068,65.93004153253924
400.833,28.08446269966862
403.596,-19.367599028335007
406.358,-37.51743513926613
409.117,-66.02744996365664
411.874,-71.22638864931787
414.629,-63.06171200158906
417.382,-43.00435957459467
420.133,-15.667806420936358
422.882,17.33477792471922
425.629,59.961937205574486
428.374,121.4105726346429
431.117,180.63973172612714
433.858,214.13249236490537
436.597,228.4673706855233
439.334,228.74687180835417
442.069,239.50223105193118
444.802,268.55053609767447
447.533,227.32803963079687
450.262,214.5568053145421
452.989,203.00659185966242
455.714,203.5424513796056
458.438,207.74375631712837
461.159,223.38036922805668
463.878,168.84119351742993
466.595,164.0865336994666
469.31,132.40997946704465
472.024,111.53362309452677
474.735,118.13184826915312
477.444,141.64083320815098
480.152,134.40138710917608
482.857,139.75416755313154
485.561,123.94442171650644
488.262,109.16958472656734
490.962,120.24592563561055
493.659,139.7513838713944
496.355,164.26365484831422
499.048,183.9792400385395
501.74,207.2848779955325
504.43,259.2813563299578
507.118,329.9739903522427
509.804,362.5107207627643
512.488,392.9440208658498
515.17,420.897565688525
517.85,483.2805201469
520.528,547.4780176887266
523.204,603.58925798359
525.878,628.3798903273723
528.551,608.0439208562534
531.221,609.7751435702276
533.89,637.1957142137712
536.556,645.9275812993747
539.221,653.06867903584
541.883,646.526263113717
544.544,625.4454845859759
547.203,614.4951066058193
549.86,633.6770306883113
552.515,641.4215372577119
555.168,645.968240480533
557.819,655.1756145271597
560.469,666.2829007858527
563.116,684.2910626958032
565.761,739.1056453420765
568.405,744.2034445743684
571.047,739.5372713638544
573.687,745.7740494933673
576.324,719.485294199962
578.96,733.3852098650973
581.594,742.3306924667299
584.227,717.4165701266338
586.857,699.7375103244026
589.485,679.3880223495371
592.112,657.5576978487834
594.737,643.5312132782287
597.359,591.0692847363475
599.98,550.4086704160932
602.599,568.0240778189013
605.216,581.9614995401075
607.831,621.3144061972316
610.445,640.6047012630179
613.056,654.7351044698971
615.666,723.9415352144588
618.274,808.4597816762039
620.88,876.5255032696255
623.484,971.3742330963009
626.086,1057.193761349345
628.686,1157.1241377654947
631.284,1244.733864553386
633.881,1301.54370836945
636.476,1267.6457503890465
639.068,1199.846245901404
641.659,1086.9037219998054
644.249,942.719456224143
646.836,790.5279552034795
649.421,661.1826713938426
652.005,506.0607674350658
654.587,398.30121384096583
657.166,298.8047914514218
659.745,236.09123674159855
662.321,174.7754347502264
664.895,129.23408819835186
667.468,89.84381517951306
670.038,71.26686589754172
672.607,46.59398226149551
675.174,56.011067004410506
677.739,36.65632899251659
680.303,21.429814201581394
682.864,-4.435158544848491
685.424,-25.562462874028824
687.982,-34.099818432000575
690.538,0.6145550802561957
693.092,29.67099540432264
695.645,52.683642003878504
698.195,24.457108979609075
700.744,9.843637158677666
703.291,-0.4949919110404153
705.836,10.150650969723301
708.38,-0.1766303667432112
710.921,-9.433978143442346
713.461,-18.959419345350852
715.999,39.24243365108214
718.535,74.97658623775715
721.069,95.47671990706749
723.602,82.78615534595247
726.133,56.51976791089737
728.662,63.14971262675408
731.189,66.76733966175061
733.714,54.035585992983215
736.238,41.47470040523467
738.759,-4.58536484353408
741.279,-31.48113378526523
743.798,-35.40607221917162
746.314,-39.458196508242054
748.829,-16.354352304132135
751.342,0.42693161882198183
753.853,-17.068843158163418
756.362,6.537376640718321
758.869,11.053431610625466
761.375,23.62070736538908
763.879,27.99984461779559
766.381,14.618354021768482
768.882,2.6658500621683743
771.38,24.713094468403824
773.877,34.569134866142576
776.372,57.23368152425087
778.866,62.80186505411757
781.357,72.98804172803284
783.847,74.22102736898978
786.335,94.12028362143974
788.821,111.59115184109942
791.306,144.30103936570322
793.789,172.29846292861544
796.27,236.53685397719642
798.749,275.30312589593314
801.227,324.83671742004344
803.702,353.7105408109835
806.176,381.9738347938646
808.649,400.2473984472531
811.119,403.295015569154
813.588,367.7377361858689
816.055,310.4824437751297
818.521,292.578993917806
820.984,287.50592437818386
823.446,285.2656889937655
825.906,272.67036775554425
828.365,239.00832926922885
830.821,191.42517893078661
833.276,205.1142309114996
835.729,179.6022182382692
838.181,138.98738382629404
840.631,114.22519055937073
843.079,68.22355517971528
845.525,47.93808217778678
847.97,90.94348815830176
850.412,97.8145500157691
852.854,93.45943406241418
855.293,91.69112039418928
857.731,65.17977963774183
860.167,28.73848303071486
862.601,42.08510297823659
865.034,35.79468979989042
867.465,21.29946752429987
869.894,39.41263920752431
872.321,50.13790653716387
874.747,48.28851324599009
877.171,59.29676471605012
879.594,53.07116663039233
882.014,45.044039815268206
884.433,63.98103984423574
886.851,57.64781949940766
889.266,44.90526266127313
891.68,50.280908674707234
894.092,69.73085290545828
896.503,97.78259967758868
898.912,152.53505806805606
901.319,157.9442519870131
903.724,148.63283978190952
906.128,130.79487193683713
908.53,105.14816781948684
910.931,99.31526385668235
913.329,123.44245694800725
915.726,117.24741930800474
918.122,139.97157521314375
920.516,129.52295393925442
922.908,113.80951888945015
925.298,83.64392529346787
927.687,84.02923028796636
930.074,75.96841252062973
932.459,91.94055842094076
934.843,90.71038180429014
937.225,77.23298157132217
939.605,35.70145655014221
941.984,62.927853671857065
944.361,81.29554471754568
946.736,59.18779354141384
949.11,45.27346615109718
951.482,24.030836026048746
953.853,22.4142465787927
956.222,28.61601171140751
958.589,37.304506848210394
960.954,19.57654568271937
963.318,10.481185496043281
965.68,-1.3612294294912317
968.041,33.240929946759024
970.4,49.764861956449295
972.757,42.83047575815681
975.113,20.15277096853106
977.467,-13.886735087511624
979.819,-29.81143726944856
982.17,-13.335356205257312
984.519,21.779718106536166
986.866,16.1527938200677
989.212,22.45033861385855
991.556,26.67199086806272
993.899,43.102939140718945
996.24,45.409161041588504
998.579,68.97076001226719
1000.92,46.358159249145274
1003.25,34.99877181684565
1005.59,2.796051714040459
1007.92,-15.013359822637312
1010.25,-26.00248801467751
1012.58,10.017407764656582
1014.91,15.663502813605874
1017.24,33.886168395169534
1019.56,52.20706739030493
1021.88,56.00487059543639
1024.2,61.08669069530697
1026.52,67.35475433107513
1028.84,67.33021702555311
1031.16,81.34364477511235
1033.48,81.24930516540257
1035.79,69.66326801087439
1038.1,82.20150599430167
1040.41,112.47990006821146
1042.72,148.82853057059992
1045.03,169.48215881683632
1047.33,166.29451821537782
1049.64,149.40498633586253
1051.94,144.81001888196624
1054.24,163.64886937854794
1056.54,153.2988326683269
1058.84,115.13715507521601
1061.13,115.25532552003529
1063.43,137.69717616003732
1065.72,152.22079255224367
1068.01,174.53661429296767
1070.3,168.49791660972596
1072.59,142.62462528648143
1074.87,157.1509411126999
1077.16,170.6443929038262
1079.44,188.38679528367447
1081.72,209.27901599062102
1084.0,231.07907651714027
1086.28,256.4021575112397
1088.56,338.9586994159922
1090.84,423.6496459662085
1093.11,541.2331162565363
1095.38,584.3244101428941
1097.65,572.4436326915245
1099.92,498.2061757709066
1102.19,417.27510440556944
1104.46,368.789733606103
1106.72,361.4608718658317
1108.98,331.7136837051107
1111.24,336.2115045965684
1113.5,348.9510844617805
1115.76,393.69116450127626
1118.02,465.9524825959754
1120.28,540.5892072800584
1122.53,554.360371713836
1124.78,537.9774981328032
1127.03,466.34269848717736
1129.28,406.1201084147656
1131.53,352.8311307376398
1133.77,315.85444086357916
1136.02,293.09265885417267
1138.26,291.6390214929286
1140.5,279.0631019724251
1142.74,303.9822438671731
1144.98,338.0139474874227
1147.22,371.1092086139263
1149.45,386.36204770889276
1151.69,381.2476105555079
1153.92,367.1459831831769
1156.15,343.7707686975259
1158.38,310.59766411039664
1160.61,268.6263705031781
1162.83,205.09488414252223
1165.06,144.860454262722
1167.28,101.92339799095339
1169.5,102.47472479633052
1171.72,90.9437609389663
1173.94,67.76005963331727
1176.16,60.1153112115328
1178.37,41.391919953463
1180.58,24.11539044048118
1182.8,37.57338057596917
1185.01,5.2918974629496915
1187.22,-33.393268623050744
1189.42,-57.574634070662114
1191.63,-61.20158742227113
1193.84,-53.03276792347128
1196.04,-42.25511699657136
1198.24,-12.912460201559497
1200.44,13.761143161678092
1202.64,2.7223316468200665
1204.84,26.45175286881863
1207.03,32.19213800242005
1209.23,20.853043224892872
1211.42,20.534638777808368
1213.61,29.432450409776948
1215.8,5.980198144455471
1217.99,18.754541867381022
1220.18,15.570303103277183
1222.36,26.385211211960723
1224.55,29.918937183605294
1226.73,24.557843291003564
1228.91,22.21211369420621
1231.09,20.88717075944669
1233.27,23.255093837067534
1235.44,47.08318312783831
1237.62,67.23395422329236
1239.79,79.80799212557008
1241.96,96.2868052672618
1244.13,122.53282238839165
1246.3,198.17034179435223
1248.47,246.5855282328921
1250.64,305.54545739014543
1252.8,401.76954133904064
1254.96,524.9771444639061
1257.13,664.4590089088829
1259.29,824.791537169192
1261.44,928.0748842062105
1263.6,972.9805733720757
1265.76,979.3705409057077
1267.91,955.2495137621765
1270.06,847.9554826801514
1272.22,727.9692228684089
1274.37,623.009528978047
1276.51,521.7474976937465
1278.66,461.1874769917008
1280.81,406.00039634993186
1282.95,357.7618588633661
1285.09,341.38070954938416
1287.23,327.2895084152826
1289.37,304.3016701923957
1291.51,301.42098502260455
1293.65,306.2225677162735
1295.78,321.7099974863768
1297.92,337.6010291112009
1300.05,342.7561612399029
1302.18,336.6072046980712
1304.31,344.34775555518786
1306.44,380.12366819208773
1308.57,419.3187664636596
1310.69,447.9357929567866
1312.82,467.02497729589754
1314.94,492.25546159138275
1317.06,506.86767826895925
1319.18,501.86382313713057
1321.3,520.3411855975078
1323.41,531.9207169503636
1325.53,527.4136939382786
1327.64,516.8217156231224
1329.75,467.6224145487481
1331.87,416.2456440941546
1333.98,391.6925229695155
1336.08,360.10686066458356
1338.19,325.06086861139033
1340.3,281.22182372788734
1342.4,224.78063672350004
1344.5,174.3566108808618
1346.6,133.14029607564862
1348.7,96.98872374879716
1350.8,55.99683235489988
1352.9,46.87841662013466
1354.99,50.53755299066438
1357.09,34.21145365247071
1359.18,13.660939598797086
1361.27,19.837104173789612
1363.36,11.547980060998498
1365.45,37.696636249125504
1367.54,68.18594369156722
1369.62,101.96619929902613
1371.7,109.55894418439584
1373.79,132.53316286002155
1375.87,144.8862443397245
1377.95,168.13922895510927
1380.03,179.38443612424885
1382.1,166.9997587870439
1384.18,115.45819593581768
1386.25,81.42309943162468
1388.33,57.84342082056355
1390.4,51.620386721515615
1392.47,53.13131707102889
1394.54,21.70582432058518
1396.6,-1.8027492708968111
1398.67,-12.922084820747841
1400.74,-13.179923517385305
1402.8,-16.294532074220115
1404.86,-5.936598115949664
1406.92,-13.538746000796436
1408.98,-25.00981626949988
1411.04,-24.92533619085293
1413.09,4.615341599793737
1415.15,30.179516842283192
1417.2,84.76304530681796
1419.25,130.88557625922704
1421.3,172.3048405782156
1423.35,211.82617696786065
1425.4,237.6834867415314
1427.45,232.7773314629544
1429.49,212.81779249204146
1431.54,161.41971148310017
1433.58,143.72174040684968
1435.62,108.05301062006242
1437.66,74.98075431615098
1439.7,79.07221169004492
1441.74,89.3708238173549
1443.77,80.49147315257937
1445.81,78.76334307494062
1447.84,51.944206005643764
1449.87,54.12518771561736
1451.9,99.7783887761052
1453.93,150.85212505688446
1455.96,171.19950155781453
1457.98,192.95936719276142
1460.01,209.27060290686381
1462.03,249.08164788903468
1464.05,344.7695495939838
1466.07,460.7113947166288
1468.09,589.4747877855461
1470.11,758.0559488040501
1472.13,938.4511442246023
1474.14,1132.2281179232175
1476.16,1309.0975221738731
1478.17,1393.3891105276798
1480.18,1396.0993592634777
1482.19,1316.7486126479564
1484.2,1173.7620377195865
1486.21,1044.3743885963554
1488.21,871.9157231644613
1490.22,686.7637864336727
1492.22,529.8202034165001
1494.22,379.36762438831965
1496.22,252.9268701474964
1498.22,199.92360108502953
1500.22,158.78355768277265
1502.22,131.12303910689093
1504.21,121.22509608702967
1506.21,67.18239046214921
1508.2,8.4686261549341
1510.19,-11.251924615699409
1512.18,-23.552990360188915
1514.17,-27.579630386581584
1516.16,-4.47680413326384
1518.14,-5.00841917062553
1520.13,17.299808360666248
1522.11,45.207969040986654
1524.09,46.00005113799989
1526.07,43.24584283401305
1528.05,38.22950111999512
1530.03,32.044787356263896
1532.01,37.30935045222009
1533.98,16.355200522272753
1535.96,4.847753970331496
1537.93,-10.785597616175664
1539.9,-11.403107412916142
1541.87,4.470373851852628
1543.84,12.9291106656176
1545.81,20.5912419468018
1547.78,43.02735023516402
1549.74,60.665221358390454
1551.7,91.50412790820951
1553.67,117.87673176412386
1555.63,141.78241518857112
1557.59,156.45870716018067
1559.55,148.85747161178983
1561.5,167.12109566846266
1563.46,179.20153502836433
1565.41,184.3841212483967
1567.37,179.716130934592
1569.32,149.48297398012824
1571.27,104.4462865652506
1573.22,87.08202415718802
1575.17,70.96141165292693
1577.11,78.27475066484044
1579.06,67.73617918727336
1581.0,58.3455741202672
1582.95,45.57902522185691
1584.89,26.43645191751193
1586.83,18.346362966717606
1588.77,33.78490184384327
1590.7,26.942511166631448
1592.64,25.057263791353307
1594.58,18.795812955580004
1596.51,16.34862813523955
1598.44,22.382373758816357
