Raman Shift,Processed Intensity
331.095,111.21732361075465
333.909,30.84430698537244
336.721,-15.907965719469303
339.531,-29.872816717450405
342.339,2.306930207521873
345.145,50.417056059065544
347.949,66.64814519642505
350.751,53.047974378780054
353.55,0.4739018095510801
356.348,-24.78807715262201
359.144,-32.30903618765706
361.937,-24.18377658877307
364.729,11.159654461905575
367.518,57.626632686231005
370.306,140.93214679500488
373.091,212.9817504777102
375.874,294.4906096303398
378.656,328.7454067260878
381.435,322.4138642336593
384.212,245.49712517844318
386.988,186.56784798939043
389.761,73.91306325065489
392.532,30.105601881814437
395.301,-12.138762396196853
398.068,-31.485122976108414
400.833,-14.646107422189289
403.596,29.522882734162522
406.358,67.30938101515085
409.117,63.3343253166895
411.874,29.075860561835725
414.629,2.2979032589928465
417.382,-9.949865368458177
420.133,2.0013300329046615
422.882,24.439355277296727
425.629,53.50925709457488
428.374,107.737068090104
431.117,161.07742378855528
433.858,210.0564177729466
436.597,253.5335044427311
439.334,228.89197320045605
442.069,183.3722797812752
444.802,161.88156805865856
447.533,142.6603347072446
450.262,158.61576053234876
452.989,221.41694656138907
455.714,243.8758644210211
458.438,252.47116385712343
461.159,243.49102787383572
463.878,221.5093612059227
466.595,177.1000740292434
469.31,165.64660376645224
472.024,180.81810355936977
474.735,209.52182121754504
477.444,221.5221448334769
480.152,207.25012458831952
482.857,166.0415659861501
485.561,129.99417070728123
488.262,108.49134412824242
490.962,114.2974314131834
493.659,136.5100964624212
496.355,124.08412943241956
499.048,116.26001616051872
501.74,127.75441235157814
504.43,134.0934749074745
507.118,172.42238373278906
509.804,238.3148635404882
512.488,271.39222946713426
515.17,301.8471945928495
517.85,294.9200584136711
520.528,291.9463238853273
523.204,288.4043144670086
525.878,283.9627911651446
528.551,240.24285529146118
531.221,269.15127979246427
533.89,246.73765010274155
536.556,277.2419811887321
539.221,312.47566792583484
541.883,315.8691021421828
544.544,300.5669087100373
547.203,353.28508639908387
549.86,336.50148206306994
552.515,361.40816958834057
555.168,382.67335265190604
557.819,378.2508865271234
560.469,385.61837131795437
563.116,395.0628642408469
565.761,367.7761157161417
568.405,356.5688530785196
571.047,334.6326833350781
573.687,295.96866259007265
576.324,258.1015797553696
578.96,239.4609069275739
581.594,230.95222595561745
584.227,226.00484548454642
586.857,194.23846561835717
589.485,156.89174734473454
592.112,119.67945338836262
594.737,109.55435096899419
597.359,109.65959074999682
599.98,114.94775245357505
602.599,116.32369999978982
605.216,100.78743664558169
607.831,66.9579125047444
610.445,53.45397492504344
613.056,30.180080770088352
615.666,17.088199177402203
618.274,19.98733336410578
620.88,40.44828359371559
623.484,15.041745256793092
626.086,0.29069472704486543
628.686,-17.615320020673607
631.284,-10.439220568981455
633.881,-3.372582042758495
636.476,35.72627619701598
639.068,61.57038920398372
641.659,49.301292357515194
644.249,53.250929178577735
646.836,48.179749621792325
649.421,52.65766551035085
652.005,36.58786311378935
654.587,42.63537763052091
657.166,42.36995338465658
659.745,43.78985640378187
662.321,22.89330604434508
664.895,39.82133518848241
667.468,49.66731710750355
670.038,37.09601613490531
672.607,48.486447863195735
675.174,42.83664410262236
677.739,18.76365593513492
680.303,6.836890101687459
682.864,21.244778722870706
685.424,5.937639495736676
687.982,18.103869223957645
690.538,35.550899252750696
693.092,28.657579475225702
695.645,17.13608614825762
698.195,-0.6347417202146062
700.744,-4.752256460077206
703.291,11.829048933968807
705.836,25.39278188786102
708.38,32.22255751889088
710.921,40.36390590642213
713.461,31.052846029279408
715.999,39.858745417408954
718.535,61.30337027974565
721.069,60.28945944158977
723.602,66.76739352009099
726.133,65.02091171877373
728.662,61.95282862206477
731.189,49.13265575172227
733.714,34.41565169470232
736.238,12.371396040538457
738.759,9.093315699684808
741.279,9.055830269470789
743.798,27.257211685770926
746.314,41.69577720801408
748.829,32.13179668989915
751.342,35.42082842154878
753.853,21.60895973355855
756.362,-11.876714303712106
758.869,-10.513802657036194
761.375,18.410622273735953
763.879,27.5619307083507
766.381,66.22460236838879
768.882,70.58794097855844
771.38,57.69845543465249
773.877,60.74557430484424
776.372,58.49021747383517
778.866,27.59812969176687
781.357,40.544642694562526
783.847,58.99562780045494
786.335,81.75987707795184
788.821,128.64624641856335
791.306,122.17794146667165
793.789,106.40204164462966
796.27,99.17521465405162
798.749,86.83038335805963
801.227,59.70053552066656
803.702,66.1663430699798
806.176,56.08473374235473
808.649,56.312700821785256
811.119,62.75492240310905
813.588,54.363761607587094
816.055,37.37736203658574
818.521,34.17679084430142
820.984,30.09556276287026
823.446,22.800592698910577
825.906,36.673148330061395
828.365,33.99932651104609
830.821,16.731958251163633
833.276,15.39537083462983
835.729,12.752054702832766
838.181,-4.24495537770531
840.631,-0.35684200449577475
843.079,-3.2971001615981095
845.525,-1.1601088611992054
847.97,35.67410670289064
850.412,67.30177933639311
852.854,62.20016105232253
855.293,67.65609380255978
857.731,32.52791354275814
860.167,6.435925725825427
862.601,-13.380452537929614
865.034,-1.8245979396949679
867.465,12.676365949896308
869.894,31.50489994185341
872.321,37.805427926258744
874.747,22.81766795065323
877.171,3.638534726996795
879.594,-5.968338813751643
882.014,-1.8106990146768567
884.433,10.827564347381667
886.851,30.75784377574064
889.266,36.07728720572254
891.68,67.97831877554927
894.092,55.55815959724441
896.503,73.81882471800304
898.912,90.80997722442703
901.319,74.58130615627579
903.724,59.13490442023112
906.128,81.94907527507871
908.53,77.07356738832641
910.931,105.89147655948341
913.329,109.21448077667083
915.726,98.4256943208502
918.122,77.00347425100881
920.516,100.6166554607671
922.908,103.02930954451836
925.298,97.91026556832276
927.687,91.26167845985424
930.074,83.4190259697773
932.459,39.90824849027172
934.843,61.96955554021656
937.225,64.1288512979911
939.605,51.7215410866595
941.984,102.22586166867563
944.361,102.97716392154734
946.736,66.45362408491883
949.11,63.51433596004199
951.482,60.018355490204385
953.853,28.777078674488166
956.222,57.60185757676754
958.589,60.44685442994523
960.954,53.504276692569874
963.318,50.1091359149782
965.68,44.405911367338604
968.041,13.586642239124558
970.4,1.0337817433482996
972.757,4.9392416969910755
975.113,-13.505132955376894
977.467,5.130529537307211
979.819,-2.8192066485460145
982.17,-9.781754087194258
984.519,-14.232218364411665
986.866,6.973266314285411
989.212,24.45467664611192
991.556,71.30809533387082
993.899,69.81999263562034
996.24,92.46722467879044
998.579,85.34560320287119
1000.92,60.93179863543105
1003.25,69.4642907871837
1005.59,59.467176689907774
1007.92,52.27397843436893
1010.25,63.694308151094674
1012.58,52.775771086394116
1014.91,46.70872582123343
1017.24,72.35009210915632
1019.56,83.50906347611476
1021.88,91.99472926116005
1024.2,70.90179189524065
1026.52,72.94390322760728
1028.84,95.9774770427066
1031.16,123.04931110087614
1033.48,167.39659013142546
1035.79,183.16117454000369
1038.1,157.96103197310663
1040.41,160.89024031115468
1042.72,159.32851447109692
1045.03,169.7983522566417
1047.33,215.29837068466463
1049.64,224.58902326400676
1051.94,189.049745845693
1054.24,196.72657866361556
1056.54,187.1416931371259
1058.84,182.76958534028472
1061.13,204.084698042549
1063.43,203.89475703516973
1065.72,179.10267888616954
1068.01,198.5637167905511
1070.3,198.75213023003153
1072.59,209.66594987087296
1074.87,203.68412341409635
1077.16,215.61413763616656
1079.44,222.16821185825097
1081.72,242.15377712976192
1084.0,260.85443160237855
1086.28,326.69661018977604
1088.56,376.011492322599
1090.84,478.46357637009964
1093.11,559.860206442728
1095.38,583.2944325280575
1097.65,559.4307277695636
1099.92,513.8859438406416
1102.19,423.8959806043408
1104.46,372.6491224397637
1106.72,339.28604123513423
1108.98,313.1855136665747
1111.24,330.6310908578389
1113.5,370.3349108971838
1115.76,389.8662732590051
1118.02,407.93735608262114
1120.28,432.30798107009923
1122.53,424.2618069555094
1124.78,412.27299916465813
1127.03,380.48242328434594
1129.28,339.98336234114663
1131.53,289.05961503257186
1133.77,247.04264157727857
1136.02,211.88299527956224
1138.26,182.62651599861078
1140.5,194.9381426653822
1142.74,185.0066781804312
1144.98,174.1162209784061
1147.22,156.21759659254235
1149.45,164.16645588582765
1151.69,199.67565899645138
1153.92,243.26765928325926
1156.15,224.46498250930154
1158.38,178.64737269204602
1160.61,145.9565570012146
1162.83,129.86767732327553
1165.06,125.37976944498769
1167.28,96.634813665514
1169.5,79.3939282656836
1171.72,60.4183248820118
1173.94,40.23121626167335
1176.16,43.07020020795517
1178.37,41.601548287608466
1180.58,55.110685014393766
1182.8,69.16885750880897
1185.01,57.77599563401736
1187.22,3.122619750819922
1189.42,-18.743489622606603
1191.63,-48.34586024620694
1193.84,-28.255515310448345
1196.04,-10.233829333802532
1198.24,1.0531816571419768
1200.44,17.177709622528255
1202.64,19.61681242393024
1204.84,7.657167087629205
1207.03,11.2045867063066
1209.23,-6.2636035522718885
1211.42,9.58714368231631
1213.61,19.710499724699957
1215.8,28.39354186770811
1217.99,32.875798294016704
1220.18,53.111150130645
1222.36,37.958304932027204
1224.55,72.32365111546324
1226.73,63.92316001561562
1228.91,67.94904984376672
1231.09,33.974544885172236
1233.27,24.430063267840524
1235.44,5.2222618741743645
1237.62,18.40070030022548
1239.79,8.586409576859978
1241.96,25.876651894202496
1244.13,23.273489849890666
1246.3,37.01711846124476
1248.47,35.39538765363045
1250.64,25.07713427263002
1252.8,-0.17353352283271306
1254.96,-7.449618534029696
1257.13,-0.796473938829422
1259.29,1.740576321830531
1261.44,18.449568766041466
1263.6,33.18999341639483
1265.76,43.964220355732095
1267.91,60.155592949562106
1270.06,72.24271154466624
1272.22,62.32324097723358
1274.37,78.63771808099364
1276.51,63.33145443344506
1278.66,68.35929624494452
1280.81,62.96181281922827
1282.95,55.665294537739555
1285.09,61.186512748728774
1287.23,95.00414632301317
1289.37,104.54925582878786
1291.51,133.91956723024896
1293.65,114.87946987192777
1295.78,95.33620493921626
1297.92,77.86367296651406
1300.05,71.70243182156878
1302.18,63.902551832671634
1304.31,75.46647091585419
1306.44,80.72994494017917
1308.57,107.64775999779408
1310.69,100.93658753112936
1312.82,99.26545850771618
1314.94,94.87480902357629
1317.06,96.19552590661033
1319.18,110.61084946284359
1321.3,149.07541907982318
1323.41,173.35336644904692
1325.53,208.20878974078119
1327.64,224.88194206458365
1329.75,250.13684850126265
1331.87,260.26130408720974
1333.98,256.7811575130254
1336.08,255.841261488805
1338.19,222.2054707284708
1340.3,188.16140183887364
1342.4,165.75852654222103
1344.5,140.42721727945718
1346.6,112.55017376602086
1348.7,108.89099240475093
1350.8,91.2132118892639
1352.9,100.56602547399825
1354.99,108.2366599109298
1357.09,108.08370676723757
1359.18,101.15616802868112
1361.27,103.16964456012124
1363.36,125.36347694698884
1365.45,168.2150291938999
1367.54,180.0111152804095
1369.62,217.80037809772807
1371.7,245.15519219495332
1373.79,271.4097570015001
1375.87,290.1362852876143
1377.95,285.0021440058474
1380.03,241.29366179918998
1382.1,232.05898412825718
1384.18,214.15569030322672
1386.25,212.72698194435839
1388.33,203.20168096630914
1390.4,171.15137041960224
1392.47,173.4808686654212
1394.54,160.57108450279247
1396.6,123.80282467671873
1398.67,108.74726805297382
1400.74,88.92786836433265
1402.8,75.86797124251666
1404.86,86.85271696442578
1406.92,91.16713367455623
1408.98,81.47708775027672
1411.04,64.82928178616066
1413.09,44.651252578308004
1415.15,27.513273870572903
1417.2,9.556925767462644
1419.25,17.20937843275283
1421.3,35.5167234071464
1423.35,28.28682972292927
1425.4,15.803630335825801
1427.45,3.1128371282843545
1429.49,9.54575115085754
1431.54,15.433550656033503
1433.58,30.012055646734552
1435.62,53.374112451124574
1437.66,59.374360809383006
1439.7,88.15304857952833
1441.74,110.37413215752804
1443.77,125.1776626116964
1445.81,118.22740991232968
1447.84,113.28229668515883
1449.87,104.9583081552712
1451.9,113.63325923388766
1453.93,122.68489493847414
1455.96,145.9670860509459
1457.98,157.2860247758765
1460.01,142.11451563679884
1462.03,128.87769494393797
1464.05,133.76255978575227
1466.07,145.19416368714224
1468.09,146.45466941051336
1470.11,141.06430651875075
1472.13,122.25756703342245
1474.14,103.5070201406088
1476.16,118.04712689673579
1478.17,115.35043588678127
1480.18,95.84187412058213
1482.19,48.470180786282754
1484.2,21.088864813311602
1486.21,10.551448149642283
1488.21,42.568613800958474
1490.22,65.327258631723
1492.22,88.77621283291546
1494.22,70.72148319929374
1496.22,55.54054402570364
1498.22,6.515675622434401
1500.22,-2.880316217041809
1502.22,7.254000204044814
1504.21,39.153449572542286
1506.21,41.43387350201306
1508.2,36.61594494555811
1510.19,10.363268322927524
1512.18,-6.755710828559586
1514.17,-9.220081917384732
1516.16,-4.223131075482797
1518.14,4.994329705889868
1520.13,15.620156301052248
1522.11,28.508970507069535
1524.09,7.372639053310877
1526.07,-15.314961674715505
1528.05,-29.079847578188037
1530.03,-8.305066883039899
1532.01,-3.8973655835707177
1533.98,14.236620179282454
1535.96,11.618932792442138
1537.93,10.724099544511091
1539.9,19.026748523407377
1541.87,27.382557847330872
1543.84,35.07587156240015
1545.81,58.62922030218897
1547.78,89.85093718536086
1549.74,105.02563085615816
1551.7,114.3427537629941
1553.67,109.61088472275264
1555.63,96.25772577080943
1557.59,72.94914663009422
1559.55,69.20822918015574
1561.5,73.84383573575315
1563.46,82.52203446830208
1565.41,108.00419149398795
1567.37,101.38506296188348
1569.32,85.42612523730054
1571.27,75.60319079943088
1573.22,83.53497651994348
1575.17,68.6497671796742
1577.11,67.28065041389232
1579.06,57.4750373718507
1581.0,42.70894528109693
1582.95,63.69651810702521
1584.89,71.91383292670957
1586.83,51.741753921789496
1588.77,42.27545303802049
1590.7,30.943454454340326
1592.64,10.98382190908842
1594.58,23.13463174050412
1596.51,34.25301735580342
1598.44,31.50564227167615
