Raman Shift,Processed Intensity
331.095,29.240540427486394
333.909,22.89327113846366
336.721,30.53677616621053
339.531,44.504391767573
342.339,53.79612671308132
345.145,54.197712829521606
347.949,44.66156030439561
350.751,15.854379657048412
353.55,4.204803709807948
356.348,2.1891047972071647
359.144,4.378816737123088
361.937,19.583594897148032
364.729,61.708361975252046
367.518,108.56283473283747
370.306,197.57581263254178
373.091,265.8904188570086
375.874,303.31648418479244
378.656,341.52102610436486
381.435,329.64729935669584
384.212,261.2195607635472
386.988,195.66688167482062
389.761,130.75172232065916
392.532,72.56993473497505
395.301,49.788860917070906
398.068,47.266383374217185
400.833,39.0509280451829
403.596,35.14337198567728
406.358,19.687522482358872
409.117,-14.60130859506171
411.874,-48.436301870278385
414.629,-39.721030259397594
417.382,-19.45421754551444
420.133,21.032163872495858
422.882,45.549076224207056
425.629,64.90754976868084
428.374,96.01391364964229
431.117,149.53645989659617
433.858,189.90544075927755
436.597,203.5987803278258
439.334,207.95159567676046
442.069,175.44190848515746
444.802,153.6430233234846
447.533,132.2711440356693
450.262,147.2329901211706
452.989,164.34007978371164
455.714,231.21348917049818
458.438,254.14099256381678
461.159,277.93420257262505
463.878,239.83332937176647
466.595,206.36432089356185
469.31,155.05314587654948
472.024,125.80674358088345
474.735,99.19873540849858
477.444,119.61227938041839
480.152,128.9543531854897
482.857,153.7033705624517
485.561,168.0520357772366
488.262,187.52638857647298
490.962,183.98580152193972
493.659,190.57535827739957
496.355,161.67823189543196
499.048,141.58234881854332
501.74,153.24229097552825
504.43,184.75548359211143
507.118,203.31457347777996
509.804,219.30266445547022
512.488,219.8171242198364
515.17,219.09815310026988
517.85,248.6716385382124
520.528,262.11105718350063
523.204,275.6089008002418
525.878,258.7385783631644
528.551,261.4544133920572
531.221,256.2821174766859
533.89,286.12831142075265
536.556,300.8995701953818
539.221,296.4548012259438
541.883,304.31952744078217
544.544,301.4001703199374
547.203,350.46023770577676
549.86,391.88222589934185
552.515,406.33428366146154
555.168,397.7225904995771
557.819,391.0961159069484
560.469,353.5989976494793
563.116,393.9943486239745
565.761,379.8547303830592
568.405,375.2764361839113
571.047,358.3080597512794
573.687,309.76001642144684
576.324,280.87120714333605
578.96,260.6899681938917
581.594,218.26454470300405
584.227,200.69070703556235
586.857,152.6831766973287
589.485,148.0041950979362
592.112,155.4635208853333
594.737,140.34699870878922
597.359,108.3213184580959
599.98,66.71972688371716
602.599,24.637263026468645
605.216,53.21646983766914
607.831,88.64739151358299
610.445,86.83424004550216
613.056,36.633490341253946
615.666,17.234832489572455
618.274,3.2087906911306163
620.88,17.935294570530004
623.484,50.12749036661262
626.086,42.16507627321744
628.686,15.760972954999488
631.284,35.532755968009496
633.881,33.43123103741391
636.476,39.40710618530602
639.068,30.93480671565385
641.659,7.393433056395679
644.249,8.59057574438657
646.836,47.71470183892643
649.421,56.1923039997464
652.005,82.06885996720166
654.587,87.96122061389678
657.166,51.581426567735434
659.745,26.498620073074107
662.321,39.90095685186725
664.895,25.119422726715584
667.468,45.81831691058733
670.038,48.85240196320319
672.607,9.695482318849827
675.174,-6.416731471526418
677.739,22.41814626368432
680.303,16.483469130279445
682.864,17.96737462886631
685.424,-6.989590360719831
687.982,-29.96112980926864
690.538,-15.759001625207475
693.092,7.138416634514215
695.645,12.538511201777055
698.195,4.82014721932228
700.744,-4.3520447086452805
703.291,15.924713272241661
705.836,30.362775674261684
708.38,29.24597882256876
710.921,40.19154601017044
713.461,34.05484979576249
715.999,40.881793349185045
718.535,84.57547751116181
721.069,89.13429642447272
723.602,102.74717602226292
726.133,99.36500299254067
728.662,106.22443469506561
731.189,96.6574233639376
733.714,101.23407364352488
736.238,73.33407155296345
738.759,52.09906583161501
741.279,17.146954046419978
743.798,24.00045441354314
746.314,21.325201429533536
748.829,25.02498435963389
751.342,32.47984286893825
753.853,17.022257891658683
756.362,-13.015228928188662
758.869,11.699985156285493
761.375,26.45294534029472
763.879,19.385900214500907
766.381,51.403062712133305
768.882,75.02775200849419
771.38,69.92620208713652
773.877,95.3361322107985
776.372,82.63817453519141
778.866,14.784444579935098
781.357,8.679492651878718
783.847,11.989826696986256
786.335,21.096292295091644
788.821,59.713119321312206
791.306,79.55458765508911
793.789,61.620740508273684
796.27,71.57833584845594
798.749,87.61798829847976
801.227,90.6922634169141
803.702,95.13472435947324
806.176,67.46945473091591
808.649,41.1253433417005
811.119,41.81703563131214
813.588,74.5449327106362
816.055,93.78566659481112
818.521,89.96828972179264
820.984,73.66475018520259
823.446,53.82798601479544
825.906,41.125257552155745
828.365,47.366717921638156
830.821,57.21969778701941
833.276,43.63727582243155
835.729,42.76303965948864
838.181,24.35965635821958
840.631,37.57077621133567
843.079,36.96865083419016
845.525,27.792227445217122
847.97,35.28048124161023
850.412,36.00574777499878
852.854,27.49276961283931
855.293,19.45679061885994
857.731,1.9464121382629855
860.167,1.2483539448289775
862.601,19.506500902308744
865.034,37.007616487149335
867.465,52.038485007617055
869.894,30.457339537194002
872.321,23.312908895609326
874.747,31.463464629857754
877.171,18.386344185706093
879.594,14.416045507762647
882.014,25.50613116336217
884.433,30.61018008549172
886.851,27.443691696677433
889.266,39.055513842382425
891.68,43.399270724406506
894.092,57.42860035810463
896.503,66.76382060102469
898.912,75.025261848215
901.319,77.07136163229325
903.724,77.90342589017655
906.128,93.61800927743343
908.53,97.69262881597024
910.931,68.31909658932864
913.329,49.30828100941517
915.726,58.75677284513222
918.122,57.14212267958828
920.516,74.8942688434945
922.908,76.72887011047078
925.298,57.40920982091757
927.687,62.79381429160503
930.074,73.45549979668613
932.459,80.39565764394638
934.843,62.7109202034344
937.225,50.5931602694277
939.605,65.94853804144532
941.984,76.349881438593
944.361,97.46525689010105
946.736,108.15320679252272
949.11,98.31989172883732
951.482,83.34766125898614
953.853,89.95219613896734
956.222,49.42060292089286
958.589,21.849508553045325
960.954,-3.3787497819678265
963.318,3.9753032661769794
965.68,-4.467909898709422
968.041,19.483455386907508
970.4,37.54504641642643
972.757,29.76583587930395
975.113,0.385263674871112
977.467,-24.690573654803302
979.819,-42.88892396824144
982.17,-27.20847576618462
984.519,6.4949238219796825
986.866,43.984450929563764
989.212,21.451817170018558
991.556,22.088687287035327
993.899,31.18190632844835
996.24,40.82777660066017
998.579,52.50347971083261
1000.92,68.25754622813133
1003.25,49.61461105926219
1005.59,31.194454538284617
1007.92,20.854853040243597
1010.25,8.453477213845872
1012.58,29.94312670898671
1014.91,53.51458612074225
1017.24,81.16805326800045
1019.56,93.3798086464833
1021.88,99.91174202463094
1024.2,118.47802189661729
1026.52,124.31652684014148
1028.84,130.1888483027708
1031.16,121.33267434068102
1033.48,97.89036383358393
1035.79,88.38513974727357
1038.1,123.95918715807602
1040.41,149.56413222968126
1042.72,191.19914023759634
1045.03,209.10139454597788
1047.33,193.26990891779906
1049.64,178.75124458692176
1051.94,150.82998923493165
1054.24,126.2668550155945
1056.54,133.29868134121512
1058.84,159.59081862139055
1061.13,180.6180834303234
1063.43,187.99809462652775
1065.72,164.53889518680717
1068.01,126.85800261167037
1070.3,121.90622123550474
1072.59,166.92002596531597
1074.87,207.65966030519417
1077.16,242.59961533315231
1079.44,253.54768010654288
1081.72,267.2639920674694
1084.0,290.175325543436
1086.28,337.756046914664
1088.56,385.528117400459
1090.84,449.63252441700115
1093.11,477.21023674466073
1095.38,500.68792160007956
1097.65,495.0160426606269
1099.92,423.5260057079138
1102.19,350.8349233189151
1104.46,299.1789509856703
1106.72,289.74662323498
1108.98,294.9645707004827
1111.24,328.2594276709301
1113.5,347.5816444003551
1115.76,363.9292994182467
1118.02,359.8242927920994
1120.28,403.6933012947311
1122.53,391.82016214302166
1124.78,379.7744472128479
1127.03,355.3638467778228
1129.28,309.9675056289816
1131.53,231.0122163373319
1133.77,177.63908870687237
1136.02,153.13212398951964
1138.26,130.77536052860614
1140.5,132.37668606904708
1142.74,163.6964119722645
1144.98,177.73299028825136
1147.22,197.1039689228728
1149.45,210.66504204326543
1151.69,193.79576714990844
1153.92,163.01861548202123
1156.15,131.23707004200946
1158.38,91.06896171514995
1160.61,92.51313872261176
1162.83,63.28280274114513
1165.06,77.85313073705356
1167.28,83.41365870493223
1169.5,64.77304635879045
1171.72,51.16860372793349
1173.94,63.742484419511584
1176.16,55.44645030963602
1178.37,49.37520766307648
1180.58,28.90926706247251
1182.8,7.048279528026114
1185.01,-12.112770219951244
1187.22,-27.764510449851286
1189.42,-39.33555693943845
1191.63,-24.587745958778896
1193.84,6.812439154042295
1196.04,39.3891035722952
1198.24,35.57122145310473
1200.44,10.549774257686977
1202.64,2.515841452541963
1204.84,18.755834067789692
1207.03,39.080062663889066
1209.23,49.63225793949573
1211.42,47.032424672653406
1213.61,29.138743281035204
1215.8,29.095185667901433
1217.99,13.712464401387251
1220.18,-8.198637153828713
1222.36,5.506065295143571
1224.55,8.58986805346126
1226.73,36.67327061841752
1228.91,52.900638846226
1231.09,69.55924993594226
1233.27,55.93643265147307
1235.44,66.36718373406961
1237.62,45.805593838617824
1239.79,25.872463946129756
1241.96,5.236255109558215
1244.13,0.47022867580403727
1246.3,2.242919841051389
1248.47,35.651468879581444
1250.64,63.221619087404406
1252.8,51.81247685968765
1254.96,28.568890815797204
1257.13,13.588116638627753
1259.29,23.06267239012277
1261.44,23.37557477917494
1263.6,34.052719648640505
1265.76,32.47716722425298
1267.91,-5.30133454122506
1270.06,-8.99492186194675
1272.22,25.065241558501157
1274.37,33.69086826616399
1276.51,56.931783174075235
1278.66,83.0283025367628
1280.81,74.36361292474544
1282.95,70.93995972284529
1285.09,68.52150229516496
1287.23,74.72955010244209
1289.37,79.8520845336966
1291.51,101.55804264263406
1293.65,114.7068389792978
1295.78,91.53883980266323
1297.92,87.53250395991063
1300.05,101.40438090855037
1302.18,103.06148969093306
1304.31,99.5060788611338
1306.44,102.16895784040526
1308.57,64.76663779644264
1310.69,92.15847252264825
1312.82,107.06094217453847
1314.94,129.95241319662864
1317.06,131.78742205884691
1319.18,155.66333994532602
1321.3,166.53465649081613
1323.41,180.07012065995468
1325.53,186.12892924558196
1327.64,207.95120108134074
1329.75,205.15797506379545
1331.87,212.37025579361057
1333.98,232.54234493100853
1336.08,218.72374397980116
1338.19,202.63058088093976
1340.3,205.64560803463633
1342.4,196.24677175105762
1344.5,178.24530551053908
1346.6,163.45239465237592
1348.7,128.06012677789295
1350.8,94.30815643923984
1352.9,94.57894125675398
1354.99,103.01678756012757
1357.09,132.67070555339
1359.18,171.39916924179965
1361.27,193.72725731111746
1363.36,193.0371273402145
1365.45,172.80610906130164
1367.54,148.1781309534881
1369.62,146.58276588396757
1371.7,165.973324368244
1373.79,222.5411383065541
1375.87,265.9060351964765
1377.95,276.4020504407831
1380.03,289.458377750532
1382.1,258.5993671671995
1384.18,211.25404689434276
1386.25,221.7561213197373
1388.33,207.1534928470403
1390.4,204.7796884893512
1392.47,205.77766741516166
1394.54,179.0998189704908
1396.6,140.36510355817404
1398.67,138.33524113619092
1400.74,116.29566162075889
1402.8,133.3888362418097
1404.86,119.75713270798269
1406.92,130.1618608478184
1408.98,122.12612777475351
1411.04,109.74435971879143
1413.09,82.4442048105443
1415.15,47.12938824624439
1417.2,17.79875792893222
1419.25,11.165330109650995
1421.3,-2.4389506856464322
1423.35,3.4129786642024555
1425.4,22.43377706678666
1427.45,18.383604719292634
1429.49,28.35583849337786
1431.54,34.49136100368901
1433.58,38.78808963161623
1435.62,60.67241031095273
1437.66,88.18965893260042
1439.7,110.242221796889
1441.74,113.97049320875931
1443.77,123.37192831104062
1445.81,90.96771496535234
1447.84,83.27896944252097
1449.87,84.73150354157224
1451.9,110.2272583753861
1453.93,117.57288101348922
1455.96,122.43211064866318
1457.98,95.37340285878349
1460.01,100.53660148770973
1462.03,129.347229573797
1464.05,124.2307802784037
1466.07,109.85081733821312
1468.09,122.06136123183887
1470.11,126.71641820356922
1472.13,145.95569976330353
1474.14,181.25224694839721
1476.16,132.555292680742
1478.17,111.14740983813408
1480.18,114.73975456373728
1482.19,101.32921433745128
1484.2,92.24603223775739
1486.21,84.3442883464204
1488.21,45.19238115318808
1490.22,35.73969943668294
1492.22,44.93567509767786
1494.22,49.11074075426882
1496.22,51.97633495609807
1498.22,24.52966930333514
1500.22,6.339447946612381
1502.22,-8.787460532093291
1504.21,-12.901256000478952
1506.21,-17.38539203788696
1508.2,-7.289904956103101
1510.19,-4.855220345911903
1512.18,11.82118141699334
1514.17,23.594289396643035
1516.16,20.462038208255535
1518.14,-2.5299301560148706
1520.13,-17.764456882282047
1522.11,6.756657395579396
1524.09,20.555509403316364
1526.07,36.29713864944438
1528.05,26.360953800777224
1530.03,21.078825724621765
1532.01,26.49699005478101
1533.98,55.61414023374641
1535.96,39.85761579299265
1537.93,29.511971585655147
1539.9,30.62373749539688
1541.87,45.23951147861089
1543.84,61.02500498757581
1545.81,73.31265982218065
1547.78,63.482598314985125
1549.74,58.72452589723048
1551.7,82.99010985532846
1553.67,119.13583427782237
1555.63,131.58966452616232
1557.59,120.11294980071011
1559.55,120.13375427817482
1561.5,112.0325692014303
1563.46,108.57088211219434
1565.41,121.98641275036971
1567.37,116.75501562006161
1569.32,98.68591588892241
1571.27,100.73123100178327
1573.22,113.65263515142829
1575.17,112.9737380350839
1577.11,100.78960646804967
1579.06,82.71914314018613
1581.0,68.0479415628804
1582.95,61.06161720648129
1584.89,63.950567209164774
1586.83,70.61949199056062
1588.77,72.5445359130008
1590.7,75.1066184189649
1592.64,82.21047945422924
1594.58,73.52277251006944
1596.51,53.829205284503814
1598.44,21.96310891496637
