Raman Shift,Processed Intensity
331.095,28.93658809523794
333.909,-24.718430952381052
336.721,-43.99600952380959
339.531,-40.608714285714306
342.339,-37.41245809523809
345.145,-8.47676780952382
347.949,3.678325761904753
350.751,-11.3229460952381
353.55,-12.569203380952395
356.348,-19.195308476190483
359.144,-13.8108228095238
361.937,-1.9287278095237923
364.729,4.272798095238118
367.518,41.09325857142866
370.306,133.83339428571446
373.091,261.557123809524
375.874,378.13977142857163
378.656,388.26700000000017
381.435,307.34028571428576
384.212,198.61961428571433
386.988,91.46137142857147
389.761,30.937552380952415
392.532,13.312400000000011
395.301,4.803285714285741
398.068,21.914795238095255
400.833,22.962295238095237
403.596,22.690966761904775
406.358,23.275852238095244
409.117,8.845590190476194
411.874,-10.5176050952381
414.629,11.079261619047639
417.382,16.006442714285747
420.133,34.39729057142861
422.882,79.19565238095242
425.629,91.53703809523816
428.374,102.5105000000001
431.117,172.39653333333345
433.858,217.61908571428583
436.597,231.1746666666668
439.334,220.63188095238104
442.069,166.98885714285723
444.802,121.57788095238104
447.533,127.8749523809525
450.262,153.1184523809525
452.989,193.73785714285722
455.714,203.59214285714296
458.438,199.6834571428572
461.159,146.34779047619054
463.878,120.39796190476197
466.595,100.36180952380958
469.31,84.48159047619052
472.024,79.23850000000006
474.735,64.2567047619048
477.444,61.73210952380961
480.152,98.57539047619056
482.857,135.31661428571437
485.561,151.72415238095246
488.262,164.0429714285715
490.962,131.9943476190477
493.659,134.20440000000008
496.355,109.53808095238101
499.048,84.62192380952386
501.74,74.79713809523815
504.43,80.45253333333339
507.118,89.16734285714294
509.804,115.47361904761912
512.488,137.99853333333343
515.17,174.13123809523822
517.85,193.73695238095246
520.528,187.82370476190482
523.204,150.25691904761908
525.878,113.56861904761911
528.551,80.86204761904766
531.221,75.62141428571432
533.89,60.75914761904766
536.556,66.90220476190481
539.221,52.67726666666671
541.883,90.90093809523816
544.544,87.48569047619051
547.203,94.10523809523815
549.86,92.43313333333339
552.515,103.85732380952388
555.168,107.6702095238096
557.819,125.02066190476197
560.469,133.39111428571437
563.116,125.35874761904769
565.761,121.64347619047626
568.405,147.63134761904772
571.047,165.85174285714294
573.687,154.88064761904772
576.324,153.15083809523819
578.96,164.38090476190487
581.594,168.7176666666668
584.227,190.6404761904763
586.857,176.81947619047625
589.485,150.30551428571437
592.112,102.19599047619053
594.737,112.58847619047627
597.359,104.91343333333339
599.98,114.36273333333341
602.599,115.60428095238103
605.216,125.54402857142865
607.831,125.94409047619055
610.445,154.47130476190486
613.056,143.22097619047625
615.666,138.24047619047627
618.274,110.38607142857148
620.88,106.5612857142858
623.484,116.9550238095239
626.086,145.70861904761912
628.686,164.29628571428583
631.284,205.76352380952392
633.881,199.82152380952394
636.476,210.51504761904775
639.068,229.84080952380964
641.659,226.84337142857154
644.249,198.5664380952382
646.836,173.57751904761912
649.421,123.39602380952387
652.005,67.06536190476196
654.587,72.10441523809529
657.166,49.3182461904762
659.745,61.1780590476191
662.321,66.86906809523812
664.895,88.67171142857147
667.468,63.62822714285717
670.038,51.20904380952381
672.607,33.50425714285719
675.174,51.31767142857147
677.739,72.83393333333342
680.303,118.19046190476197
682.864,128.09566190476198
685.424,115.63912857142863
687.982,107.29163809523814
690.538,77.3331666666667
693.092,26.805838095238112
695.645,35.133157142857186
698.195,31.11906190476192
700.744,25.52038571428574
703.291,23.189300000000017
705.836,39.59722857142859
708.38,21.02518571428575
710.921,45.80213333333336
713.461,46.25695714285716
715.999,53.95694761904766
718.535,56.94566666666672
721.069,90.79066666666672
723.602,99.15479523809529
726.133,111.74894285714292
728.662,103.95036666666671
731.189,87.94623333333338
733.714,85.30468095238102
736.238,98.07034761904768
738.759,106.24018095238102
741.279,133.85915619047623
743.798,119.11484190476193
746.314,66.62377428571432
748.829,35.478739047619065
751.342,14.534664761904791
753.853,30.02738000000005
756.362,59.573832380952425
758.869,91.55326190476195
761.375,92.58279047619052
763.879,91.7560190476191
766.381,91.64282380952386
768.882,92.52755238095244
771.38,88.40893809523816
773.877,85.52411428571433
776.372,82.30040476190482
778.866,76.07032857142862
781.357,79.45215238095243
783.847,73.82610476190482
786.335,81.04900476190483
788.821,91.5010571428572
791.306,110.18192857142864
793.789,125.85334285714293
796.27,113.22943809523814
798.749,111.97691428571437
801.227,118.76263809523817
803.702,157.25305714285727
806.176,188.54398095238105
808.649,216.39745714285726
811.119,217.29004761904775
813.588,211.2702857142858
816.055,192.10044761904774
818.521,162.63837619047627
820.984,145.3610857142858
823.446,130.1263857142858
825.906,134.12575238095246
828.365,135.83668095238102
830.821,134.21249047619054
833.276,106.92099047619055
835.729,120.6776238095239
838.181,119.91222857142867
840.631,128.7213761904763
843.079,158.3924380952382
845.525,144.02201428571433
847.97,135.04006666666675
850.412,135.97214761904766
852.854,109.62936190476196
855.293,93.15622380952387
857.731,92.74521428571431
860.167,76.25511428571433
862.601,66.11629523809528
865.034,66.23549523809527
867.465,58.709895238095285
869.894,62.350866666666725
872.321,107.87474761904772
874.747,138.1884095238096
877.171,135.5797238095239
879.594,148.76514285714293
882.014,144.17523809523817
884.433,131.9550476190477
886.851,130.7255714285715
889.266,128.155961904762
891.68,103.53405714285721
894.092,109.62416190476199
896.503,125.09508571428579
898.912,132.66340000000008
901.319,126.14077142857153
903.724,170.14890476190487
906.128,157.4995857142858
908.53,157.8140761904763
910.931,158.3330333333334
913.329,143.48702857142865
915.726,143.9928238095239
918.122,164.32875238095247
920.516,153.0212380952382
922.908,170.1672476190477
925.298,148.10298571428578
927.687,124.68759047619055
930.074,125.39992857142863
932.459,93.05142857142863
934.843,76.40650000000007
937.225,99.9908666666667
939.605,77.75928571428575
941.984,83.14235714285721
944.361,89.61865238095241
946.736,68.52344761904766
949.11,44.95415238095241
951.482,46.389057142857176
953.853,46.449195238095285
956.222,55.088936190476225
958.589,31.215002857142874
960.954,39.353053333333364
963.318,53.409792380952425
965.68,68.57749619047625
968.041,97.09607904761907
970.4,78.77679047619048
972.757,20.76416142857144
975.113,19.059756190476218
977.467,24.80809952380954
979.819,22.867850476190494
982.17,33.52625
984.519,20.35610285714286
986.866,-7.879339999999979
989.212,31.963875238095294
991.556,69.17290857142864
993.899,108.1771095238096
996.24,154.50143809523817
998.579,153.43239047619053
1000.92,136.6374380952382
1003.25,140.16497142857148
1005.59,110.96808095238099
1007.92,96.80881904761911
1010.25,104.02132857142863
1012.58,80.0344952380953
1014.91,92.75344285714291
1017.24,109.17847619047626
1019.56,109.92861904761912
1021.88,124.33741904761914
1024.2,140.166961904762
1026.52,148.5122380952382
1028.84,152.32571428571438
1031.16,175.41647619047632
1033.48,209.78438095238107
1035.79,222.61985714285726
1038.1,221.87476190476204
1040.41,232.1674285714287
1042.72,234.0690952380954
1045.03,247.38871428571446
1047.33,242.74495238095247
1049.64,224.37523809523822
1051.94,184.70733333333342
1054.24,175.5500000000001
1056.54,156.0453095238096
1058.84,145.71623809523817
1061.13,137.9429761904763
1063.43,170.7244285714287
1065.72,185.01240476190486
1068.01,199.52019047619058
1070.3,171.53228571428582
1072.59,184.57128571428586
1074.87,176.11242857142867
1077.16,191.29733333333348
1079.44,224.3630476190478
1081.72,248.59419047619068
1084.0,284.6084285714288
1086.28,363.73804761904785
1088.56,427.8863333333337
1090.84,521.7187619047622
1093.11,607.9005238095241
1095.38,629.4304761904765
1097.65,580.7834285714288
1099.92,478.19623809523836
1102.19,387.1910476190479
1104.46,358.19504761904784
1106.72,359.77842857142883
1108.98,368.93971428571456
1111.24,384.15366666666694
1113.5,396.41885714285735
1115.76,407.2100000000003
1118.02,454.2398095238098
1120.28,498.22128571428595
1122.53,504.0100952380956
1124.78,490.556904761905
1127.03,437.7653333333336
1129.28,385.49104761904783
1131.53,333.5897619047621
1133.77,296.34576190476207
1136.02,267.8051904761906
1138.26,247.5378095238097
1140.5,228.733142857143
1142.74,239.34180952380967
1144.98,241.07685714285728
1147.22,239.3179523809525
1149.45,240.44447619047634
1151.69,241.69357142857157
1153.92,237.30180952380962
1156.15,215.98217142857155
1158.38,181.25726666666677
1160.61,141.2687714285715
1162.83,147.01517142857153
1165.06,125.82906666666673
1167.28,136.08971428571436
1169.5,109.93940000000003
1171.72,86.9005714285715
1173.94,70.97242857142861
1176.16,71.20137619047621
1178.37,24.538942857142867
1180.58,33.2697761904762
1182.8,7.869357142857162
1185.01,16.62242857142859
1187.22,22.861714285714285
1189.42,18.015071428571435
1191.63,9.22477142857145
1193.84,27.347438095238115
1196.04,25.477809523809544
1198.24,23.948757142857165
1200.44,44.42680476190481
1202.64,76.38776666666672
1204.84,102.06939333333338
1207.03,91.94773380952384
1209.23,81.40362476190478
1211.42,40.19895190476193
1213.61,27.667329523809553
1215.8,31.42783380952383
1217.99,36.76627428571431
1220.18,39.68295714285719
1222.36,68.17820000000003
1224.55,76.06195238095243
1226.73,73.8585142857143
1228.91,65.56841428571431
1231.09,42.81129523809527
1233.27,45.54038571428576
1235.44,61.94672857142862
1237.62,82.60257619047624
1239.79,85.69922857142862
1241.96,98.23762857142863
1244.13,94.59952857142865
1246.3,124.02453333333344
1248.47,136.1325476190477
1250.64,145.92459047619056
1252.8,147.2590000000001
1254.96,149.13709523809533
1257.13,156.89338095238108
1259.29,187.24357142857153
1261.44,191.66528571428586
1263.6,200.2074761904763
1265.76,195.15695238095248
1267.91,187.61080952380962
1270.06,177.903761904762
1272.22,164.17995238095247
1274.37,157.0605238095239
1276.51,130.21361904761912
1278.66,123.97390476190485
1280.81,140.77185714285721
1282.95,138.94219047619058
1285.09,163.86752380952393
1287.23,179.12142857142865
1289.37,176.89609523809534
1291.51,176.95491428571438
1293.65,154.34731904761912
1295.78,115.02730476190484
1297.92,99.42534761904767
1300.05,97.591161904762
1302.18,124.95484285714295
1304.31,140.0417714285715
1306.44,153.23509523809534
1308.57,168.2032380952382
1310.69,170.37666666666678
1312.82,194.2809523809525
1314.94,213.0127142857144
1317.06,231.9548571428573
1319.18,257.5382380952383
1321.3,281.28819047619066
1323.41,303.53995238095257
1325.53,335.15219047619064
1327.64,359.0314285714288
1329.75,375.0365714285717
1331.87,374.50300000000027
1333.98,374.0034761904764
1336.08,364.25404761904787
1338.19,366.0180476190479
1340.3,355.24985714285737
1342.4,304.9510476190478
1344.5,265.1706666666668
1346.6,235.67238095238108
1348.7,215.69538095238113
1350.8,226.57476190476206
1352.9,226.7882380952382
1354.99,233.1943809523811
1357.09,223.2703333333334
1359.18,201.73228571428587
1361.27,174.3429047619049
1363.36,188.15147619047633
1365.45,202.77795238095257
1367.54,245.2713809523811
1369.62,251.1088571428573
1371.7,263.2440000000002
1373.79,277.24876190476215
1375.87,314.4577619047621
1377.95,342.8240476190478
1380.03,334.11061904761925
1382.1,294.27071428571446
1384.18,251.7809047619049
1386.25,229.68933333333345
1388.33,202.28276190476203
1390.4,188.98990476190485
1392.47,158.19238095238106
1394.54,141.8428571428572
1396.6,131.08428571428578
1398.67,127.8217190476191
1400.74,111.24590952380957
1402.8,105.30927142857149
1404.86,101.39280476190483
1406.92,116.06760476190485
1408.98,132.38119523809533
1411.04,139.95212380952387
1413.09,125.30419047619054
1415.15,115.57995238095246
1417.2,127.92133333333342
1419.25,145.0421904761906
1421.3,159.08471428571437
1423.35,166.4762857142858
1425.4,150.83542857142865
1427.45,134.1608095238096
1429.49,131.59422857142863
1431.54,126.84900000000005
1433.58,91.82851428571432
1435.62,77.24564761904767
1437.66,80.4794952380953
1439.7,102.76658095238103
1441.74,134.010161904762
1443.77,145.68425238095242
1445.81,117.1678190476191
1447.84,79.50667619047623
1449.87,73.98398095238102
1451.9,67.83605714285719
1453.93,83.91758095238102
1455.96,87.03568095238101
1457.98,117.80706666666676
1460.01,129.18145714285725
1462.03,163.06117142857155
1464.05,198.5867142857144
1466.07,233.18376190476206
1468.09,240.32580952380968
1470.11,272.15314285714305
1472.13,295.4250476190478
1474.14,296.94842857142874
1476.16,297.29214285714295
1478.17,287.83452380952394
1480.18,263.85814285714304
1482.19,238.55123809523823
1484.2,209.24457142857153
1486.21,162.98300000000006
1488.21,128.28795238095248
1490.22,108.91876190476198
1492.22,119.25360000000008
1494.22,115.81444285714291
1496.22,112.78927142857147
1498.22,80.41405714285716
1500.22,50.35332857142859
1502.22,35.36665714285718
1504.21,45.499685714285754
1506.21,63.41736666666672
1508.2,66.8797619047619
1510.19,52.21850952380956
1512.18,39.86060476190479
1514.17,28.23316428571431
1516.16,29.525319047619078
1518.14,36.402492857142875
1520.13,34.33970952380955
1522.11,43.1930785714286
1524.09,49.77117619047621
1526.07,42.35887142857145
1528.05,34.28875714285715
1530.03,31.988703142857172
1532.01,24.64859290476192
1533.98,30.172804857142896
1535.96,55.656177095238135
1537.93,70.66974771428576
1539.9,84.87998338095244
1541.87,98.8104888571429
1543.84,76.50886666666672
1545.81,90.3561476190477
1547.78,132.97137142857153
1549.74,164.97390952380965
1551.7,186.2687714285715
1553.67,192.95149523809533
1555.63,174.73652380952387
1557.59,157.52909523809535
1559.55,156.1393333333334
1561.5,146.61566666666678
1563.46,134.43480952380963
1565.41,150.07357142857154
1567.37,156.53242857142868
1569.32,159.81242857142868
1571.27,164.86671428571438
1573.22,138.50600000000009
1575.17,144.6835238095239
1577.11,145.49547619047627
1579.06,165.1810000000001
1581.0,175.64590476190486
1582.95,175.12933333333342
1584.89,164.01352380952392
1586.83,171.68085714285726
1588.77,145.94190476190485
1590.7,151.60733333333343
1592.64,146.25014285714295
1594.58,148.91919047619047
1596.51,154.3301190476191
1598.44,160.8175952380954
