Raman Shift,Processed Intensity
331.095,-22.98922857142846
333.909,3.9740309523811135
336.721,-6.7977619047617885
339.531,-34.85329047619051
342.339,-57.07509523809526
345.145,-46.89261904761906
347.949,-18.685671428571435
350.751,-17.499250476190497
353.55,-19.138619523809535
356.348,-18.02660095238096
359.144,-1.0604995238095043
361.937,13.292451428571457
364.729,40.28087095238098
367.518,45.345468571428626
370.306,106.78554285714299
373.091,206.99711904761924
375.874,304.94925714285733
378.656,347.18379047619067
381.435,308.52976190476204
384.212,223.57965714285723
386.988,130.6413666666667
389.761,69.69100000000005
392.532,40.03941428571432
395.301,41.141657142857184
398.068,35.50181428571431
400.833,58.67294285714289
403.596,58.11400952380956
406.358,74.66636190476196
409.117,64.93450476190478
411.874,43.38136666666666
414.629,-9.862233333333343
417.382,-4.426185714285687
420.133,1.108552380952423
422.882,56.590776190476255
425.629,99.53682857142866
428.374,124.08365714285723
431.117,162.65469047619064
433.858,230.72180952380964
436.597,247.99604761904777
439.334,244.80861904761915
442.069,202.01495238095245
444.802,151.61485714285726
447.533,127.13238095238106
450.262,144.37771428571443
452.989,200.4954285714287
455.714,246.4401904761906
458.438,257.0242285714287
461.159,217.29875238095244
463.878,156.17283809523815
466.595,126.93630476190485
469.31,109.26115714285721
472.024,118.91481904761912
474.735,115.1887190476191
477.444,109.94630476190486
480.152,155.14674761904774
482.857,187.13015238095247
485.561,200.04685714285725
488.262,205.28538095238105
490.962,171.52004761904774
493.659,142.99704761904772
496.355,148.62933333333342
499.048,135.8535714285715
501.74,136.91661904761912
504.43,140.11239047619054
507.118,106.97360476190481
509.804,102.65178095238106
512.488,137.39410952380962
515.17,178.4948761904763
517.85,202.67746190476203
520.528,205.71229523809532
523.204,165.79847619047626
525.878,143.99214285714294
528.551,140.5405333333334
531.221,130.4998190476191
533.89,122.40216190476198
536.556,120.1608314285715
539.221,84.97429333333338
541.883,63.0886771428572
544.544,71.369220952381
547.203,96.01409619047628
549.86,132.07841714285723
552.515,174.5220552380953
555.168,170.6854761904763
557.819,151.1472857142858
560.469,158.48538095238106
563.116,165.37290476190486
565.761,164.29223809523822
568.405,166.96338095238104
571.047,176.86838095238105
573.687,162.44114285714295
576.324,165.73442857142868
578.96,154.27647619047627
581.594,165.40538095238108
584.227,167.83938095238105
586.857,174.53485714285725
589.485,175.4470476190477
592.112,153.72238095238103
594.737,128.64895238095247
597.359,117.65819047619055
599.98,122.79971428571437
602.599,141.7894000000001
605.216,152.48565714285724
607.831,141.93734285714294
610.445,115.04982857142863
613.056,98.25226666666674
615.666,92.97330476190483
618.274,108.73610476190484
620.88,115.44520000000007
623.484,120.43287619047626
626.086,151.8881523809525
628.686,186.5714380952382
631.284,187.7191904761906
633.881,186.4719523809525
636.476,191.1130000000001
639.068,186.1156666666668
641.659,202.85800000000012
644.249,192.43166666666676
646.836,158.88115238095244
649.421,111.01217142857146
652.005,76.48719714285717
654.587,39.302135238095254
657.166,16.26227523809525
659.745,11.981812380952402
662.321,17.884751428571455
664.895,40.82328285714289
667.468,51.1257304761905
670.038,51.31080476190479
672.607,46.61137619047622
675.174,52.3554666666667
677.739,57.06150476190481
680.303,82.15262857142862
682.864,83.19478571428574
685.424,88.03967047619052
687.982,63.72943714285716
690.538,52.83009809523813
693.092,44.47909619047621
695.645,36.76635523809526
698.195,34.01992285714287
700.744,9.996565714285694
703.291,-8.070638095238074
705.836,7.099119047619071
708.38,37.31060761904766
710.921,43.13069333333336
713.461,59.50732476190478
715.999,42.19816857142861
718.535,53.72288190476196
721.069,79.64905047619055
723.602,95.49651714285719
726.133,92.73778095238102
728.662,80.32163809523814
731.189,83.76839047619055
733.714,86.4081714285715
736.238,114.23774285714293
738.759,117.53975238095245
741.279,109.40653809523813
743.798,78.88281428571433
746.314,67.53719523809526
748.829,48.7480666666667
751.342,43.60794761904765
753.853,57.59076190476195
756.362,72.74184761904766
758.869,91.96374666666672
761.375,84.58773952380955
763.879,64.80228857142859
766.381,31.557970000000026
768.882,44.519488571428624
771.38,67.25680619047625
773.877,94.38740380952387
776.372,98.62413333333338
778.866,88.53707142857147
781.357,52.79162380952385
783.847,38.95788095238099
786.335,48.892261904761966
788.821,79.21263809523819
791.306,134.29910000000012
793.789,163.15095238095248
796.27,169.91024761904774
798.749,153.7191904761906
801.227,162.14885714285725
803.702,198.19895238095253
806.176,234.2499047619049
808.649,224.06352380952393
811.119,224.3538571428573
813.588,190.69214285714298
816.055,164.64966666666677
818.521,162.70295238095247
820.984,160.56633333333343
823.446,139.57314285714295
825.906,160.20019047619058
828.365,175.49533333333343
830.821,163.98255714285722
833.276,135.9957714285715
835.729,115.39276666666674
838.181,87.79295238095244
840.631,92.43547142857149
843.079,92.89229047619052
845.525,101.21199047619055
847.97,109.06174761904768
850.412,112.87114285714293
852.854,111.6887571428572
855.293,115.51563809523816
857.731,73.49562857142861
860.167,80.86836190476197
862.601,102.11052380952387
865.034,88.98553333333338
867.465,89.16117142857146
869.894,85.6388047619048
872.321,46.32451428571433
874.747,67.64829047619055
877.171,101.94476190476198
879.594,114.54883333333342
882.014,139.65231428571437
884.433,152.78063809523817
886.851,171.8876666666668
889.266,196.4987142857144
891.68,207.7582380952382
894.092,193.8584761904763
896.503,184.99133333333344
898.912,187.20623809523823
901.319,204.9809047619049
903.724,219.22214285714298
906.128,193.93142857142863
908.53,193.6346190476192
910.931,180.09514285714295
913.329,175.74328571428583
915.726,166.81861904761914
918.122,157.94266666666675
920.516,138.92628571428583
922.908,167.81938095238104
925.298,180.0996666666668
927.687,188.57857142857154
930.074,195.3528000000001
932.459,172.13893333333343
934.843,146.98605714285722
937.225,107.22971904761908
939.605,98.5382095238096
941.984,90.48510000000007
944.361,109.97643809523817
946.736,112.34760000000006
949.11,120.0288476190477
951.482,124.16488095238105
953.853,144.23381904761914
956.222,128.38034761904768
958.589,97.9869047619048
960.954,82.76960000000005
963.318,75.49198571428578
965.68,85.87001904761912
968.041,116.09610761904767
970.4,98.07642190476194
972.757,49.57447714285716
975.113,40.115625714285734
977.467,10.368167619047636
979.819,16.7621171428572
982.17,68.20396952380959
984.519,93.4569190476191
986.866,98.61756190476196
989.212,113.92541428571434
991.556,117.5723238095239
993.899,138.17851904761915
996.24,177.50697142857155
998.579,184.65409523809532
1000.92,194.00213333333343
1003.25,170.8378476190477
1005.59,153.73383809523816
1007.92,132.64322857142864
1010.25,113.75731904761912
1012.58,98.8865238095239
1014.91,122.98431904761912
1017.24,122.81320000000008
1019.56,141.32633809523819
1021.88,163.00055238095246
1024.2,149.3605238095239
1026.52,150.6447142857144
1028.84,172.23485714285727
1031.16,194.22657142857156
1033.48,219.6678095238097
1035.79,248.89266666666683
1038.1,255.90152380952398
1040.41,256.5992857142858
1042.72,266.7482380952382
1045.03,266.87252380952395
1047.33,252.44852380952392
1049.64,228.9526190476192
1051.94,218.09909523809534
1054.24,208.84047619047632
1056.54,209.3674285714287
1058.84,214.10866666666678
1061.13,202.254761904762
1063.43,177.4244761904763
1065.72,173.7604285714287
1068.01,193.0719523809525
1070.3,231.21614285714304
1072.59,267.33571428571446
1074.87,276.66880952380967
1077.16,254.78633333333346
1079.44,256.35447619047636
1081.72,263.4208095238097
1084.0,309.8893809523812
1086.28,386.14100000000025
1088.56,490.22271428571463
1090.84,586.3721904761908
1093.11,706.7314285714289
1095.38,706.2528571428574
1097.65,627.5067619047621
1099.92,520.1593333333335
1102.19,417.82900000000024
1104.46,347.9437142857145
1106.72,375.2168571428574
1108.98,392.7432380952383
1111.24,437.2835714285717
1113.5,487.40861904761937
1115.76,511.78419047619076
1118.02,493.21866666666693
1120.28,493.3305238095241
1122.53,486.1663333333336
1124.78,485.8202380952383
1127.03,461.0058095238097
1129.28,418.6266190476192
1131.53,353.44342857142874
1133.77,306.31228571428585
1136.02,264.565142857143
1138.26,238.15323809523824
1140.5,233.31395238095254
1142.74,220.42676190476203
1144.98,224.77628571428585
1147.22,248.7897142857144
1149.45,251.7989047619049
1151.69,236.32628571428583
1153.92,232.08523809523822
1156.15,179.35961904761916
1158.38,131.10066666666674
1160.61,110.44975238095243
1162.83,85.64344761904766
1165.06,65.91836190476197
1167.28,83.08275714285719
1169.5,72.94440952380955
1171.72,61.73990000000005
1173.94,68.039080952381
1176.16,68.64984761904766
1178.37,65.47536666666672
1180.58,70.51400000000002
1182.8,55.097409523809546
1185.01,33.509676190476206
1187.22,25.27297142857144
1189.42,14.195204761904767
1191.63,15.274779047619065
1193.84,14.986306190476201
1196.04,11.89968285714286
1198.24,18.584834761904787
1200.44,28.087952380952398
1202.64,26.74101666666669
1204.84,44.209337142857166
1207.03,35.729762857142866
1209.23,20.15828095238097
1211.42,11.208066666666664
1213.61,9.687680952380965
1215.8,9.310528571428595
1217.99,33.79015809523812
1220.18,36.84019857142859
1222.36,38.41253238095239
1224.55,11.93532238095239
1226.73,29.884515238095272
1228.91,27.736149047619065
1231.09,32.728319047619074
1233.27,40.57545904761907
1235.44,63.94450095238099
1237.62,45.78826571428576
1239.79,74.15496952380957
1241.96,69.61672000000003
1244.13,63.745745714285775
1246.3,86.9239752380953
1248.47,109.24768000000006
1250.64,102.43253809523816
1252.8,110.90824761904767
1254.96,123.05739047619056
1257.13,126.78597142857151
1259.29,164.9054000000001
1261.44,179.4649523809525
1263.6,199.37138095238106
1265.76,198.2454285714287
1267.91,185.4230000000001
1270.06,154.47704761904774
1272.22,142.36266666666674
1274.37,125.79604761904771
1276.51,154.3032285714287
1278.66,156.9819238095239
1280.81,143.02541428571436
1282.95,121.19773333333339
1285.09,95.21616666666672
1287.23,101.94042857142868
1289.37,147.80170952380962
1291.51,172.13590476190487
1293.65,170.37448095238102
1295.78,137.28209523809528
1297.92,109.24245238095244
1300.05,81.35405238095242
1302.18,95.23858571428582
1304.31,129.42262380952388
1306.44,144.05234285714295
1308.57,136.8448333333334
1310.69,152.99338095238105
1312.82,139.07238095238105
1314.94,156.94176190476202
1317.06,202.74728571428585
1319.18,217.11123809523824
1321.3,208.08419047619057
1323.41,211.47833333333347
1325.53,235.53466666666685
1327.64,269.01790476190496
1329.75,311.7880952380954
1331.87,311.1336190476192
1333.98,295.10523809523824
1336.08,287.3240952380954
1338.19,295.8885714285716
1340.3,281.89604761904775
1342.4,261.0161904761906
1344.5,229.44147619047632
1346.6,198.12714285714296
1348.7,172.74180952380962
1350.8,145.14519047619055
1352.9,119.72019047619057
1354.99,133.32657142857153
1357.09,143.29947619047627
1359.18,154.1170476190477
1361.27,157.25704761904774
1363.36,164.3879523809525
1365.45,158.6544285714287
1367.54,173.58204761904773
1369.62,176.36252380952394
1371.7,210.6160952380954
1373.79,259.77261904761923
1375.87,303.2618571428573
1377.95,316.65623809523834
1380.03,300.48047619047634
1382.1,254.68752380952395
1384.18,210.7540000000001
1386.25,187.4423809523811
1388.33,155.5150000000001
1390.4,164.4958285714287
1392.47,137.05137619047628
1394.54,104.9909190476191
1396.6,86.69505238095243
1398.67,89.73468095238101
1400.74,95.82366190476199
1402.8,127.86570952380958
1404.86,122.43098095238102
1406.92,116.2804333333334
1408.98,101.60347142857148
1411.04,89.35100000000006
1413.09,76.90245714285719
1415.15,68.01778571428576
1417.2,63.218890476190516
1419.25,64.36116666666672
1421.3,78.53764761904769
1423.35,99.93670952380958
1425.4,111.1274952380953
1427.45,104.86959047619052
1429.49,96.87466190476195
1431.54,79.61650952380958
1433.58,85.99724285714294
1435.62,97.68080952380959
1437.66,108.71203809523816
1439.7,103.51669047619052
1441.74,98.13935714285718
1443.77,73.43442857142861
1445.81,64.30373809523813
1447.84,42.64890714285716
1449.87,32.65744761904766
1451.9,57.088007142857194
1453.93,69.12813809523814
1455.96,75.39368809523816
1457.98,121.31035238095245
1460.01,113.77958571428577
1462.03,116.65553333333344
1464.05,160.50608095238104
1466.07,194.13790476190488
1468.09,211.40497619047633
1470.11,243.35209523809536
1472.13,268.3569523809525
1474.14,267.8927142857145
1476.16,272.4802380952383
1478.17,265.2115714285716
1480.18,242.08409523809536
1482.19,209.952142857143
1484.2,212.0981714285715
1486.21,179.94809047619057
1488.21,136.21367619047626
1490.22,94.79673333333339
1492.22,85.4093190476191
1494.22,64.66797142857148
1496.22,64.80800952380956
1498.22,66.01780476190478
1500.22,34.39022857142859
1502.22,27.3993666666667
1504.21,37.6145285714286
1506.21,61.27188285714291
1508.2,72.46479714285718
1510.19,82.42959428571433
1512.18,52.78365523809526
1514.17,50.00154190476195
1516.16,53.55805904761911
1518.14,78.02331142857147
1520.13,76.96740952380958
1522.11,91.62729047619052
1524.09,64.38280000000003
1526.07,58.375742857142896
1528.05,55.17673333333337
1530.03,59.832623809523845
1532.01,58.39030000000004
1533.98,61.182557142857156
1535.96,57.875438095238145
1537.93,73.75441428571433
1539.9,70.20010476190481
1541.87,68.73611904761908
1543.84,70.93377142857148
1545.81,72.88815238095245
1547.78,109.17075238095248
1549.74,155.8768142857144
1551.7,167.81618095238107
1553.67,187.32228571428584
1555.63,189.96719047619058
1557.59,178.03695238095247
1559.55,152.19866666666672
1561.5,144.16719047619057
1563.46,133.08614285714296
1565.41,162.62247619047628
1567.37,175.586761904762
1569.32,181.5035238095239
1571.27,173.84952380952387
1573.22,156.483380952381
1575.17,142.31042857142867
1577.11,153.18904761904773
1579.06,174.35821904761917
1581.0,168.81914761904773
1582.95,162.52520000000007
1584.89,154.23985238095247
1586.83,149.72581904761915
1588.77,152.74657619047633
1590.7,162.35093333333342
1592.64,157.15938095238104
1594.58,155.12557142857153
1596.51,153.8222857142859
1598.44,153.41752380952417
