Raman Shift,Processed Intensity
331.095,85.10695476190432
333.909,-26.644878571428535
336.721,-41.41648571428544
339.531,-3.2586666666666275
342.339,16.705914285714307
345.145,35.1884761904762
347.949,15.378186666666632
350.751,-22.439091904761924
353.55,-55.7855742857143
356.348,-31.46789380952381
359.144,1.0426114285714476
361.937,9.323550952380955
364.729,24.0967628571429
367.518,46.41935238095243
370.306,106.68332857142872
373.091,205.85335238095257
375.874,300.13360952380975
378.656,326.3492857142859
381.435,294.1837285714287
384.212,190.65553809523817
386.988,103.64193809523813
389.761,47.783190476190505
392.532,17.673395238095264
395.301,12.90851428571429
398.068,-4.200128571428576
400.833,-1.0539285714285622
403.596,-10.48138095238095
406.358,17.690409523809564
409.117,48.30244285714288
411.874,32.38752380952381
414.629,11.694119047619065
417.382,17.97208095238097
420.133,27.591533333333395
422.882,75.4955952380953
425.629,122.05673809523816
428.374,136.93455714285722
431.117,180.40909523809535
433.858,185.52309523809532
436.597,194.51080952380966
439.334,187.46485714285723
442.069,165.1450000000001
444.802,153.0742857142858
447.533,169.2052857142858
450.262,145.9193333333334
452.989,168.26595238095248
455.714,190.7710476190477
458.438,189.4376571428572
461.159,156.55520476190483
463.878,134.50883809523816
466.595,104.44622380952389
469.31,110.51569523809533
472.024,112.8183476190477
474.735,126.1703238095239
477.444,126.14968571428581
480.152,128.573161904762
482.857,123.4483238095239
485.561,138.30664761904774
488.262,151.9660857142858
490.962,151.00685238095247
493.659,145.39011428571433
496.355,109.31511904761909
499.048,94.31447619047626
501.74,116.06435714285723
504.43,159.00252380952395
507.118,150.8530000000001
509.804,156.81604761904774
512.488,189.85323809523823
515.17,226.92666666666682
517.85,257.7127142857144
520.528,261.077761904762
523.204,210.1268095238096
525.878,138.25019047619057
528.551,124.55238095238104
531.221,113.85223809523816
533.89,124.11095238095247
536.556,125.43257142857149
539.221,137.06409523809532
541.883,123.77595238095248
544.544,131.43347619047626
547.203,137.04466666666676
549.86,148.28403809523817
552.515,122.06399047619053
555.168,120.43974285714293
557.819,118.75139047619055
560.469,113.14831428571438
563.116,134.16099047619056
565.761,165.0810380952382
568.405,174.00952380952393
571.047,194.8092857142858
573.687,200.05647619047633
576.324,209.94623809523824
578.96,214.86438095238108
581.594,195.1954285714287
584.227,192.08580952380964
586.857,196.3484761904763
589.485,195.98609523809537
592.112,197.66786666666673
594.737,167.82474761904768
597.359,122.45806666666675
599.98,112.3788238095239
602.599,123.58781904761912
605.216,123.1807571428572
607.831,115.25327142857148
610.445,100.90016190476196
613.056,91.78748571428578
615.666,88.62888095238101
618.274,96.7083333333334
620.88,125.26252857142867
623.484,157.95614761904773
626.086,198.0724523809525
628.686,238.1799809523811
631.284,254.51385714285735
633.881,262.0229523809526
636.476,296.8467142857145
639.068,304.2193333333335
641.659,275.70780952380966
644.249,243.35493333333343
646.836,178.20384285714294
649.421,119.10665238095245
652.005,76.01057619047623
654.587,62.672042857142905
657.166,42.56133809523813
659.745,45.19645714285717
662.321,45.90491009523813
664.895,32.966301523809534
667.468,29.660169714285757
670.038,53.07548609523813
672.607,63.2059268571429
675.174,68.37843961904765
677.739,51.87236723809524
680.303,20.014680952380967
682.864,18.941861904761932
685.424,32.59998571428575
687.982,58.36382380952384
690.538,61.13196285714286
693.092,33.707912857142865
695.645,23.466716190476202
698.195,3.259710952380958
700.744,16.31939238095241
703.291,30.735574761904758
705.836,16.693453333333334
708.38,0.18795714285714382
710.921,9.5951761904762
713.461,9.481866666666704
715.999,31.557866666666694
718.535,42.34288571428575
721.069,82.97546666666675
723.602,116.92815714285723
726.133,135.14959047619055
728.662,119.92199523809528
731.189,96.86116190476194
733.714,64.05927619047625
736.238,63.32263333333338
738.759,64.22010952380957
741.279,82.84405238095243
743.798,79.81113809523815
746.314,114.78577619047626
748.829,115.19420000000004
751.342,108.70116190476196
753.853,85.923680952381
756.362,92.43127238095241
758.869,53.93672952380955
761.375,63.867173333333376
763.879,53.459227619047645
766.381,52.99754000000004
768.882,69.24276285714292
771.38,100.05105333333337
773.877,79.75489047619052
776.372,98.4964190476191
778.866,87.70349047619052
781.357,73.09002380952388
783.847,100.27466190476198
786.335,123.39962857142864
788.821,116.22690000000007
791.306,128.66111428571435
793.789,136.98785714285725
796.27,173.5884761904763
798.749,206.0824761904763
801.227,219.13623809523824
803.702,228.98871428571442
806.176,225.8783333333335
808.649,235.4244285714287
811.119,239.1042380952382
813.588,219.0137142857144
816.055,212.963142857143
818.521,205.28676190476202
820.984,191.1284761904763
823.446,172.8700000000001
825.906,151.51309523809533
828.365,131.77290476190487
830.821,146.0795714285715
833.276,135.9580476190477
835.729,145.45733333333342
838.181,153.62611428571438
840.631,142.60934285714293
843.079,122.0274952380953
845.525,86.59657142857145
847.97,71.08040000000007
850.412,79.6232952380953
852.854,96.51262380952386
855.293,63.083735714285744
857.731,66.95755714285718
860.167,65.23136428571435
862.601,72.6213428571429
865.034,90.93885000000006
867.465,97.66218095238101
869.894,86.22197142857149
872.321,112.62039771428579
874.747,102.05012961904767
877.171,72.84652590476196
879.594,87.96396276190482
882.014,98.3573354285715
884.433,121.7429772380953
886.851,146.31369771428578
889.266,140.59538095238105
891.68,156.59028571428584
894.092,176.06228571428582
896.503,198.68080952380967
898.912,185.25738095238106
901.319,187.31823809523823
903.724,177.72257142857154
906.128,168.0442380952382
908.53,137.1900952380953
910.931,129.01971428571434
913.329,111.63041904761914
915.726,124.21501904761911
918.122,118.29940000000006
920.516,86.21926666666671
922.908,85.73847619047626
925.298,85.71637619047624
927.687,111.86932380952388
930.074,108.342380952381
932.459,120.89942857142864
934.843,107.63789523809533
937.225,124.8452476190477
939.605,131.71396666666675
941.984,140.57946666666675
944.361,130.11042857142866
946.736,146.21310476190484
949.11,141.69910952380957
951.482,129.14141428571435
953.853,106.82740476190482
956.222,80.0922333333334
958.589,67.17570000000005
960.954,89.45979523809532
963.318,111.37509523809531
965.68,133.35143809523817
968.041,128.72341428571434
970.4,118.44469847619052
972.757,77.65939038095242
975.113,52.17803314285716
977.467,27.24010057142858
979.819,3.5131283809523843
982.17,-5.4782024761904555
984.519,16.647927047619074
986.866,37.22563571428576
989.212,72.44600952380958
991.556,105.02408095238098
993.899,106.34134761904768
996.24,115.30305238095245
998.579,126.43335238095244
1000.92,119.9232333333334
1003.25,114.58243809523815
1005.59,95.45898571428576
1007.92,66.6958571428572
1010.25,77.15008095238102
1012.58,108.8219333333334
1014.91,136.56859047619056
1017.24,155.10420000000008
1019.56,147.42879047619056
1021.88,123.78023809523819
1024.2,123.77714285714295
1026.52,123.27676190476197
1028.84,129.46914285714294
1031.16,124.11552380952388
1033.48,132.97752380952392
1035.79,157.19761904761918
1038.1,204.68004761904774
1040.41,241.186523809524
1042.72,287.28771428571446
1045.03,287.4114285714287
1047.33,274.1760952380954
1049.64,262.0094285714287
1051.94,234.386761904762
1054.24,203.4027142857144
1056.54,210.34200000000013
1058.84,202.39457142857157
1061.13,208.27352380952397
1063.43,227.31119047619057
1065.72,230.0781904761906
1068.01,192.47804761904771
1070.3,191.22433333333345
1072.59,194.69704761904774
1074.87,214.94219047619063
1077.16,253.1970476190478
1079.44,275.174523809524
1081.72,277.58766666666685
1084.0,322.34033333333355
1086.28,371.5739523809527
1088.56,454.47785714285743
1090.84,577.4795238095242
1093.11,657.9105714285718
1095.38,697.3888571428574
1097.65,667.3892380952384
1099.92,566.3387619047622
1102.19,458.1410952380955
1104.46,417.1760476190479
1106.72,406.34671428571454
1108.98,407.4136190476193
1111.24,434.13690476190504
1113.5,445.8010476190479
1115.76,479.6424285714289
1118.02,528.1363809523813
1120.28,560.9954285714289
1122.53,553.2182380952385
1124.78,515.5648095238098
1127.03,440.51019047619076
1129.28,379.67161904761923
1131.53,320.66709523809544
1133.77,283.6853809523811
1136.02,243.4869047619049
1138.26,218.88000000000017
1140.5,226.95800000000017
1142.74,242.52914285714303
1144.98,269.16338095238115
1147.22,309.0970000000002
1149.45,293.37647619047635
1151.69,274.00033333333346
1153.92,243.10957142857157
1156.15,203.84620952380965
1158.38,157.5895380952382
1160.61,134.33800000000005
1162.83,101.09047142857149
1165.06,84.65467619047624
1167.28,94.41031904761911
1169.5,86.68950476190481
1171.72,90.30036190476197
1173.94,81.19389523809527
1176.16,66.22591904761909
1178.37,42.252247619047644
1180.58,46.36688095238097
1182.8,37.33048571428575
1185.01,37.237240952380965
1187.22,27.228769523809532
1189.42,8.018334285714278
1191.63,-5.156964761904747
1193.84,9.178186666666694
1196.04,33.97539809523812
1198.24,38.80543619047621
1200.44,35.90586666666667
1202.64,21.27624285714287
1204.84,19.344828571428586
1207.03,22.206647619047637
1209.23,28.004480952380966
1211.42,32.30978095238097
1213.61,27.83703809523811
1215.8,32.91988095238097
1217.99,27.034913333333343
1220.18,12.563651428571436
1222.36,5.030626666666671
1224.55,7.960424761904774
1226.73,5.639760000000017
1228.91,27.64117523809527
1231.09,43.44206571428575
1233.27,59.18667619047624
1235.44,73.4003047619048
1237.62,79.46546666666671
1239.79,87.57439523809529
1241.96,90.7765095238096
1244.13,111.35950476190484
1246.3,121.23014761904768
1248.47,113.53348095238101
1250.64,100.12866190476196
1252.8,110.20868095238102
1254.96,103.01390952380962
1257.13,145.40430952380964
1259.29,177.38240952380963
1261.44,220.2838571428573
1263.6,256.30200000000013
1265.76,256.34428571428583
1267.91,206.36590476190486
1270.06,171.131980952381
1272.22,122.26424285714293
1274.37,106.5272476190477
1276.51,123.01966190476196
1278.66,126.98262857142865
1280.81,135.46695714285724
1282.95,149.76140952380962
1285.09,149.05966666666677
1287.23,146.55542857142868
1289.37,162.9183714285715
1291.51,140.151980952381
1293.65,101.25932857142861
1295.78,82.91027619047624
1297.92,77.63187142857149
1300.05,84.66578095238103
1302.18,120.77676666666676
1304.31,133.3016571428572
1306.44,125.33890476190484
1308.57,138.89142857142866
1310.69,148.86723809523818
1312.82,146.9840000000001
1314.94,172.91138095238108
1317.06,202.65233333333347
1319.18,226.06723809523825
1321.3,232.25400000000013
1323.41,239.73980952380967
1325.53,237.5750952380954
1327.64,273.81042857142876
1329.75,322.1147142857145
1331.87,357.2052380952383
1333.98,367.9894285714288
1336.08,350.7081904761907
1338.19,295.55438095238105
1340.3,234.43519047619057
1342.4,176.87652380952392
1344.5,139.97594285714294
1346.6,121.11674761904769
1348.7,111.11056190476195
1350.8,78.19727619047622
1352.9,59.18844761904766
1354.99,54.94276666666672
1357.09,61.65236666666672
1359.18,80.08057142857149
1361.27,101.0858714285715
1363.36,86.57450000000007
1365.45,113.21449047619058
1367.54,156.2922476190477
1369.62,198.99957142857156
1371.7,220.86057142857157
1373.79,211.7808095238096
1375.87,203.28476190476204
1377.95,204.70633333333345
1380.03,213.09323809523823
1382.1,205.30323809523819
1384.18,172.76447619047627
1386.25,122.00100000000008
1388.33,108.6318095238096
1390.4,108.84728571428579
1392.47,105.884880952381
1394.54,87.31561428571435
1396.6,76.28151904761908
1398.67,68.02033809523815
1400.74,66.57881428571433
1402.8,79.95602190476193
1404.86,59.626981428571455
1406.92,51.20962476190479
1408.98,42.22646619047622
1411.04,56.581081904761945
1413.09,58.7479147619048
1415.15,78.05882190476196
1417.2,84.98802857142863
1419.25,107.96254285714292
1421.3,122.21848571428578
1423.35,106.99193809523813
1425.4,93.23314761904768
1427.45,76.17805238095241
1429.49,55.63363333333337
1431.54,53.216823809523845
1433.58,58.49650952380955
1435.62,53.66062857142862
1437.66,53.42088571428573
1439.7,50.96509714285716
1441.74,34.433359523809536
1443.77,20.10860190476192
1445.81,19.845106190476216
1447.84,24.116181904761923
1449.87,31.728248095238143
1451.9,66.20224761904767
1453.93,78.53510285714289
1455.96,75.53322857142861
1457.98,78.24113809523816
1460.01,93.27456666666674
1462.03,121.10648095238105
1464.05,169.63864285714297
1466.07,198.5822285714287
1468.09,222.7433809523811
1470.11,257.5476190476192
1472.13,283.2769047619049
1474.14,307.49961904761926
1476.16,316.92704761904776
1478.17,284.2225714285716
1480.18,255.95473333333348
1482.19,215.31089047619054
1484.2,153.00187619047625
1486.21,106.59621428571434
1488.21,85.3289171428572
1490.22,52.00652428571433
1492.22,45.245567619047655
1494.22,43.04300904761908
1496.22,46.253262857142886
1498.22,39.635548095238136
1500.22,66.90139809523812
1502.22,55.09606761904763
1504.21,32.26467714285716
1506.21,27.785830476190494
1508.2,28.75246952380954
1510.19,21.97191019047621
1512.18,25.10872280952381
1514.17,11.68466895238095
1516.16,-5.825970904761899
1518.14,1.4321051428571572
1520.13,16.123815190476204
1522.11,18.723711142857155
1524.09,29.94454476190478
1526.07,35.022976666666686
1528.05,26.719581428571445
1530.03,19.128327142857152
1532.01,26.81950428571431
1533.98,22.649239047619076
1535.96,36.330862380952425
1537.93,66.53016000000005
1539.9,85.19877142857149
1541.87,89.81221428571433
1543.84,91.89370952380956
1545.81,83.01423333333337
1547.78,65.26860476190481
1549.74,75.65630952380958
1551.7,100.79651904761911
1553.67,109.92693809523816
1555.63,115.47616190476198
1557.59,134.777480952381
1559.55,113.49754761904767
1561.5,105.20772857142863
1563.46,121.48001428571435
1565.41,120.0288476190477
1567.37,114.14046190476198
1569.32,121.14853333333339
1571.27,107.5772095238096
1573.22,100.99862857142867
1575.17,121.41325714285722
1577.11,127.91699047619056
1579.06,137.12957142857152
1581.0,156.48061904761914
1582.95,160.30395238095247
1584.89,145.1720476190477
1586.83,152.32390476190483
1588.77,140.52238095238104
1590.7,141.81590476190485
1592.64,154.44419047619056
1594.58,150.76502380952388
1596.51,156.58923809523833
1598.44,183.08466666666703
