Raman Shift,Processed Intensity
331.095,91.08642428571399
333.909,3.112214761904468
336.721,-15.094253809524005
339.531,4.086851904761912
342.339,9.894152190476202
345.145,17.328485523809505
347.949,-13.179650857142871
350.751,-28.865645999999984
353.55,4.464601523809525
356.348,7.434835523809528
359.144,4.8601379047619115
361.937,13.747101904761923
364.729,30.198772380952438
367.518,55.509221904761986
370.306,131.83126952380965
373.091,229.08044761904776
375.874,294.69751428571453
378.656,338.79100000000017
381.435,325.89904476190486
384.212,220.75127571428578
386.988,109.45996000000001
389.761,25.3764280952381
392.532,-16.57490476190474
395.301,-14.94456809523808
398.068,9.480010476190492
400.833,39.05590571428572
403.596,4.712947619047608
406.358,3.23955523809526
409.117,28.235188571428576
411.874,4.20551428571429
414.629,6.562466666666687
417.382,24.95753333333333
420.133,21.85326666666673
422.882,63.0943714285715
425.629,96.28894761904769
428.374,150.23693809523826
431.117,200.93023809523822
433.858,234.69495238095254
436.597,232.7155238095239
439.334,223.70138095238107
442.069,174.41061904761915
444.802,174.8402380952382
447.533,140.79852380952389
450.262,157.95085714285727
452.989,186.2972857142859
455.714,272.74361904761923
458.438,289.053142857143
461.159,254.60909523809536
463.878,169.2720476190477
466.595,127.52139047619056
469.31,102.07617619047629
472.024,119.56025714285721
474.735,131.16944285714294
477.444,129.33887619047627
480.152,152.5507476190477
482.857,171.28829523809534
485.561,163.32061904761915
488.262,192.98876190476204
490.962,203.63419047619058
493.659,187.83691428571439
496.355,166.0812952380953
499.048,111.42418571428576
501.74,68.44570952380958
504.43,66.53635714285718
507.118,48.562661904761974
509.804,103.72471904761915
512.488,151.1747476190477
515.17,197.065742857143
517.85,248.69294285714295
520.528,220.59003333333342
523.204,164.38601904761916
525.878,148.61450000000008
528.551,113.57050000000007
531.221,77.8830714285715
533.89,110.08553809523818
536.556,114.04428571428579
539.221,132.3879285714287
541.883,157.7446476190477
544.544,155.93308571428577
547.203,113.6287095238096
549.86,110.64994285714292
552.515,102.90929047619056
555.168,131.6057523809525
557.819,168.46142380952392
560.469,204.00782857142866
563.116,171.29985714285723
565.761,178.53500000000008
568.405,150.72000000000008
571.047,177.57561904761917
573.687,177.63204761904774
576.324,186.89471428571437
578.96,162.84533333333346
581.594,190.2030000000001
584.227,180.97276190476202
586.857,198.2060000000001
589.485,190.47866666666678
592.112,182.31771428571437
594.737,160.10719047619054
597.359,145.0403714285715
599.98,111.88180000000006
602.599,111.53802857142867
605.216,118.29658095238102
607.831,134.87270476190483
610.445,122.45753142857147
613.056,90.28969809523812
615.666,40.512091428571466
618.274,30.981459047619087
620.88,48.17344380952389
623.484,90.75323619047627
626.086,158.6241504761906
628.686,211.45114761904776
631.284,230.27944761904774
633.881,221.91604761904773
636.476,220.59638095238108
639.068,203.6978571428573
641.659,198.16941904761913
644.249,167.3405857142858
646.836,127.54017142857151
649.421,108.24036666666673
652.005,92.24587142857149
654.587,80.07559047619051
657.166,65.81969523809528
659.745,58.3775571428572
662.321,57.02914761904767
664.895,79.48339523809528
667.468,75.92472761904764
670.038,45.29957285714287
672.607,39.554240952380994
675.174,55.063574761904796
677.739,70.3926552380953
680.303,87.34471095238099
682.864,90.8182085714286
685.424,70.42584285714288
687.982,42.2565380952381
690.538,7.780199999999996
693.092,-4.295104761904758
695.645,-7.6421571428571236
698.195,7.8282857142857445
700.744,42.15794285714288
703.291,40.10295952380953
705.836,38.18146190476193
708.38,33.959373809523825
710.921,25.43132380952383
713.461,32.63964047619051
715.999,46.05536190476194
718.535,46.67349047619051
721.069,61.29863333333337
723.602,48.783252380952405
726.133,46.21784761904766
728.662,61.883919047619095
731.189,84.72929523809529
733.714,90.08328571428576
736.238,84.03712380952385
738.759,62.77746190476195
741.279,79.91951428571434
743.798,66.88867619047622
746.314,67.6813428571429
748.829,55.62787619047621
751.342,42.439604761904796
753.853,32.54237619047623
756.362,69.88586190476194
758.869,64.9917047619048
761.375,74.00059523809529
763.879,89.86292857142861
766.381,80.48165238095241
768.882,51.712300000000035
771.38,73.83875714285719
773.877,68.3838571428572
776.372,85.48910952380959
778.866,97.20128095238098
781.357,87.18613523809528
783.847,53.25245428571432
786.335,46.20889428571432
788.821,46.4838171428572
791.306,77.0767514285715
793.789,109.79682095238103
796.27,143.07248285714292
798.749,151.61796190476198
801.227,164.3859047619049
803.702,202.4716666666668
806.176,229.68528571428587
808.649,227.6931904761906
811.119,214.59157142857154
813.588,197.19023809523821
816.055,181.68061904761916
818.521,192.06333333333345
820.984,194.43461904761915
823.446,166.7474095238096
825.906,136.52690952380956
828.365,103.44062857142863
830.821,96.29928095238103
833.276,106.96139047619057
835.729,137.8094333333334
838.181,143.41600476190482
840.631,140.1157714285715
843.079,111.4342285714286
845.525,82.08707142857146
847.97,67.0762190476191
850.412,83.26059047619053
852.854,82.45131428571435
855.293,85.3167428571429
857.731,67.62086666666669
860.167,59.69873809523814
862.601,53.40975238095242
865.034,72.47010476190482
867.465,77.83428571428576
869.894,74.2186190476191
872.321,89.53020476190484
874.747,117.77087619047624
877.171,97.27626190476197
879.594,110.76303809523816
882.014,106.51922857142864
884.433,103.88001904761913
886.851,127.84830476190486
889.266,147.6640000000001
891.68,152.32961904761916
894.092,171.51438095238106
896.503,181.36347619047632
898.912,185.59361904761914
901.319,182.68347619047628
903.724,175.8732857142858
906.128,163.02266666666677
908.53,171.94338095238106
910.931,174.06676190476202
913.329,163.87138095238103
915.726,159.12128571428582
918.122,169.05700952380963
920.516,147.58581904761914
922.908,160.94800952380962
925.298,142.5749333333334
927.687,109.32569047619054
930.074,93.58354285714294
932.459,117.01730000000008
934.843,137.0106857142858
937.225,153.51785238095246
939.605,140.49367619047626
941.984,123.70220952380959
944.361,120.95461904761912
946.736,116.68185238095245
949.11,130.02896190476196
951.482,119.8548428571429
953.853,110.59045714285722
956.222,106.95201428571437
958.589,134.08389523809532
960.954,133.36919047619054
963.318,131.71406666666672
965.68,119.45354761904768
968.041,103.54182857142862
970.4,78.98047142857149
972.757,64.48525714285717
975.113,55.72442380952384
977.467,55.270657142857175
979.819,34.83956666666668
982.17,22.622876190476212
984.519,25.050309523809545
986.866,32.69441428571434
989.212,51.032480952381
991.556,89.06549047619055
993.899,121.84199047619056
996.24,152.79154761904772
998.579,171.81960952380962
1000.92,174.02242857142863
1003.25,163.49595238095247
1005.59,119.9548333333334
1007.92,97.73295238095244
1010.25,98.97364285714293
1012.58,108.77238095238103
1014.91,131.98688095238103
1017.24,157.04590476190486
1019.56,146.18747619047627
1021.88,128.17371428571437
1024.2,131.19480952380962
1026.52,130.53652380952389
1028.84,152.48414285714296
1031.16,184.32319047619063
1033.48,218.3863809523811
1035.79,216.34014285714298
1038.1,225.56466666666682
1040.41,236.9168095238097
1042.72,251.5859047619049
1045.03,286.6190952380954
1047.33,285.7296190476192
1049.64,257.5361904761906
1051.94,241.4661904761906
1054.24,245.47133333333352
1056.54,215.50238095238106
1058.84,215.41580952380963
1061.13,219.59095238095253
1063.43,219.26533333333344
1065.72,215.34223809523823
1068.01,234.4393809523811
1070.3,218.6980952380954
1072.59,212.40319047619062
1074.87,224.45761904761918
1077.16,241.5270952380954
1079.44,257.6576190476192
1081.72,299.65700000000027
1084.0,346.47609523809547
1086.28,397.8277142857146
1088.56,460.2344761904765
1090.84,568.5517142857148
1093.11,669.9208571428575
1095.38,703.3876666666671
1097.65,674.6646190476193
1099.92,581.3691428571431
1102.19,460.166523809524
1104.46,391.10252380952403
1106.72,362.1760000000002
1108.98,342.38466666666693
1111.24,373.8700000000003
1113.5,427.9160000000003
1115.76,476.52076190476225
1118.02,536.1113333333337
1120.28,560.5910476190479
1122.53,534.1483333333337
1124.78,501.49623809523837
1127.03,430.7759523809526
1129.28,368.8903809523812
1131.53,294.36166666666685
1133.77,259.04552380952396
1136.02,250.3690476190478
1138.26,253.33066666666681
1140.5,245.5958571428573
1142.74,270.4963333333335
1144.98,244.5066190476192
1147.22,247.2443333333335
1149.45,266.1843333333335
1151.69,263.9920952380954
1153.92,261.0949047619049
1156.15,252.77728571428582
1158.38,222.1332380952382
1160.61,182.97119047619057
1162.83,160.67071428571438
1165.06,139.46920000000006
1167.28,118.65108095238101
1169.5,105.40600952380959
1171.72,101.97124285714291
1173.94,83.01266666666673
1176.16,86.71987142857148
1178.37,88.23500000000004
1180.58,80.55740476190482
1182.8,83.97226666666671
1185.01,82.62191428571433
1187.22,43.83926666666668
1189.42,33.71940952380955
1191.63,38.452357142857174
1193.84,37.99032857142861
1196.04,67.42849238095243
1198.24,73.2905661904762
1200.44,37.576613333333356
1202.64,34.33438428571431
1204.84,27.135473333333344
1207.03,25.932503333333372
1209.23,36.72579238095239
1211.42,42.8490304761905
1213.61,34.4454523809524
1215.8,44.32505619047621
1217.99,36.86927428571431
1220.18,53.22151238095241
1222.36,48.525223809523844
1224.55,43.49539523809526
1226.73,52.751704761904804
1228.91,60.58071428571432
1231.09,73.36418571428577
1233.27,67.57922380952382
1235.44,53.512500000000024
1237.62,36.73651428571432
1239.79,51.77613809523815
1241.96,86.25160476190484
1244.13,134.30709047619055
1246.3,152.9915238095239
1248.47,168.3064095238096
1250.64,159.06261904761914
1252.8,162.45252380952394
1254.96,182.19152380952394
1257.13,181.61485714285726
1259.29,213.10519047619061
1261.44,246.90242857142871
1263.6,230.1510952380954
1265.76,231.37704761904774
1267.91,220.3914761904763
1270.06,177.33957142857153
1272.22,167.46147619047628
1274.37,171.66380952380962
1276.51,139.56761904761913
1278.66,135.03209523809534
1280.81,144.15490476190485
1282.95,142.65252380952393
1285.09,148.71780952380962
1287.23,163.68595238095247
1289.37,173.7498761904763
1291.51,147.53082857142866
1293.65,132.1741333333334
1295.78,103.72969523809529
1297.92,99.48546666666674
1300.05,105.58673333333343
1302.18,140.98811428571435
1304.31,126.9778571428572
1306.44,148.03461904761915
1308.57,148.87476190476198
1310.69,174.54838095238105
1312.82,177.10557142857152
1314.94,185.4532857142858
1317.06,165.9749523809525
1319.18,189.7681904761906
1321.3,196.1209047619049
1323.41,218.08319047619062
1325.53,236.4666190476192
1327.64,267.5591904761907
1329.75,302.31552380952405
1331.87,327.11909523809544
1333.98,345.35295238095256
1336.08,331.7333809523811
1338.19,302.40547619047635
1340.3,270.18052380952395
1342.4,234.39452380952392
1344.5,176.3825333333334
1346.6,139.86072380952388
1348.7,107.45016190476197
1350.8,111.77164761904771
1352.9,115.96981904761913
1354.99,120.5228952380953
1357.09,122.6704952380953
1359.18,131.7476000000001
1361.27,153.4703904761906
1363.36,157.31639047619055
1365.45,139.09656190476198
1367.54,145.57417142857153
1369.62,158.13156190476204
1371.7,181.81773333333345
1373.79,224.157542857143
1375.87,244.86666666666682
1377.95,259.18390476190496
1380.03,275.5863809523811
1382.1,257.64628571428585
1384.18,213.69823809523822
1386.25,173.64728571428583
1388.33,155.63714285714298
1390.4,143.76343809523817
1392.47,135.6930857142858
1394.54,114.28351904761911
1396.6,91.86853333333337
1398.67,66.68625238095241
1400.74,39.59371428571431
1402.8,48.82893809523815
1404.86,66.01077142857149
1406.92,80.61505238095245
1408.98,107.9271333333334
1411.04,111.70825238095243
1413.09,74.38620952380955
1415.15,71.62697619047624
1417.2,84.28660952380959
1419.25,75.69740000000006
1421.3,90.42966666666672
1423.35,83.48196666666668
1425.4,60.13856190476194
1427.45,42.874152380952424
1429.49,65.97269523809527
1431.54,67.14647142857147
1433.58,68.393480952381
1435.62,65.8068666666667
1437.66,64.76540476190479
1439.7,47.07630000000003
1441.74,49.78499047619051
1443.77,53.26974571428574
1445.81,32.33760285714287
1447.84,23.605039047619076
1449.87,42.735930476190525
1451.9,73.10846761904769
1453.93,99.29147904761912
1455.96,113.56785047619053
1457.98,101.22046190476196
1460.01,96.86550000000008
1462.03,122.40454761904772
1464.05,161.59684285714297
1466.07,201.62980000000016
1468.09,232.8338095238097
1470.11,253.39628571428585
1472.13,275.40966666666685
1474.14,281.4900000000002
1476.16,273.49147619047636
1478.17,234.31595238095252
1480.18,201.77013333333343
1482.19,160.80325714285723
1484.2,126.9364333333334
1486.21,99.9287190476191
1488.21,86.25329333333336
1490.22,51.76489571428575
1492.22,39.69888666666668
1494.22,24.147761428571435
1496.22,17.585163809523827
1498.22,17.29433885714287
1500.22,16.74904266666667
1502.22,12.661206780952385
1504.21,6.695201590476193
1506.21,-0.19878091428570532
1508.2,10.548583076190486
1510.19,11.935313085714297
1512.18,24.48329378095241
1514.17,37.76216763809526
1516.16,40.055900000000015
1518.14,36.410528571428586
1520.13,22.77695047619047
1522.11,-0.7033423809523766
1524.09,-3.1268657142857084
1526.07,22.267147142857176
1528.05,42.382420095238125
1530.03,51.6942512857143
1532.01,30.678041619047622
1533.98,23.809299190476217
1535.96,15.611274952380981
1537.93,38.94064223809528
1539.9,52.98752961904764
1541.87,48.37070571428573
1543.84,27.756690476190496
1545.81,31.478700000000025
1547.78,49.536952380952435
1549.74,63.31235714285719
1551.7,84.42405238095243
1553.67,111.68184285714293
1555.63,115.70531428571435
1557.59,111.25676666666675
1559.55,128.0988095238096
1561.5,114.04135238095245
1563.46,114.27543809523817
1565.41,138.37335238095247
1567.37,130.38364761904768
1569.32,105.64039523809531
1571.27,101.57312380952386
1573.22,99.1826333333334
1575.17,97.99377619047627
1577.11,112.86484285714292
1579.06,115.27305238095244
1581.0,108.79113333333339
1582.95,113.61084285714293
1584.89,98.44761428571431
1586.83,83.06481904761911
1588.77,90.9872714285715
1590.7,107.88294285714295
1592.64,121.80111428571435
1594.58,123.83835238095244
1596.51,108.99626666666674
1598.44,71.77639047619047
