Raman Shift,Processed Intensity
331.095,-17.890584523809274
333.909,37.178123809524045
336.721,35.818166666666805
339.531,9.817885714285712
342.339,11.846264285714318
345.145,34.406042857142886
347.949,44.35826904761905
350.751,28.23158095238094
353.55,-5.825338095238111
356.348,-20.9961238095238
359.144,-11.463338095238095
361.937,-5.64646190476191
364.729,-22.678152380952383
367.518,-0.26102380952376336
370.306,56.5695761904763
373.091,170.16122857142875
375.874,280.10016666666684
378.656,317.92677142857156
381.435,267.89692380952386
384.212,170.79174761904767
386.988,56.25027619047621
389.761,16.96121904761908
392.532,-6.719385714285714
395.301,-8.005042857142845
398.068,-11.488909523809543
400.833,-0.6675999999999913
403.596,-6.655276190476176
406.358,22.53047142857144
409.117,9.921119047619047
411.874,19.311347619047627
414.629,-10.121866666666657
417.382,18.942366666666704
420.133,51.826480952381
422.882,79.28265238095244
425.629,106.01653809523818
428.374,162.40165714285723
431.117,177.33598095238108
433.858,223.1947523809525
436.597,233.83075238095245
439.334,190.3835238095239
442.069,165.65985714285725
444.802,155.7530476190477
447.533,162.66166666666678
450.262,187.3854761904763
452.989,205.0677142857144
455.714,206.9954285714287
458.438,219.31309523809537
461.159,214.68917142857154
463.878,190.12662380952386
466.595,158.77186666666677
469.31,144.81889047619055
472.024,121.1770476190477
474.735,129.0891761904763
477.444,143.1790857142858
480.152,128.3096000000001
482.857,145.39122857142868
485.561,164.52499047619057
488.262,146.62233333333344
490.962,164.8802380952382
493.659,169.92461904761913
496.355,152.66685714285722
499.048,151.44766666666672
501.74,135.5600476190477
504.43,129.53514285714297
507.118,158.61866666666677
509.804,167.48490476190483
512.488,171.807761904762
515.17,171.40442857142867
517.85,164.6633809523811
520.528,166.68741904761916
523.204,152.91288571428578
525.878,110.25201904761911
528.551,86.56932380952388
531.221,107.25271428571439
533.89,111.35714761904768
536.556,124.98514285714293
539.221,122.47674285714291
541.883,107.60082857142865
544.544,91.31610476190482
547.203,120.96229523809531
549.86,126.92659523809533
552.515,135.26271428571437
555.168,153.69061904761915
557.819,152.88271428571437
560.469,165.082142857143
563.116,198.00852380952392
565.761,212.61885714285725
568.405,184.06052380952391
571.047,170.81419047619056
573.687,150.0265238095239
576.324,145.60585714285725
578.96,160.60342857142865
581.594,146.9745714285715
584.227,146.81714285714295
586.857,158.65776190476203
589.485,196.4987142857144
592.112,197.57966666666678
594.737,188.85471428571438
597.359,172.99190476190486
599.98,162.8016190476191
602.599,155.23690476190487
605.216,164.9175714285715
607.831,167.12895238095248
610.445,144.5378095238096
613.056,151.14388571428577
615.666,127.23213809523816
618.274,98.23004285714289
620.88,68.42220952380957
623.484,78.85474761904767
626.086,84.14518095238104
628.686,127.9104142857144
631.284,164.1959380952382
633.881,174.47601904761916
636.476,182.93823809523823
639.068,200.34222857142868
641.659,172.92315714285724
644.249,169.9636952380953
646.836,154.55589047619054
649.421,123.07771428571435
652.005,84.62070476190478
654.587,35.134076190476186
657.166,4.471485714285748
659.745,10.582019047619081
662.321,44.70007619047624
664.895,65.9649680952381
667.468,47.420776428571436
670.038,17.301990952380976
672.607,28.41466404761908
675.174,48.13604809523816
677.739,79.65305261904767
680.303,104.05717761904768
682.864,85.53538571428574
685.424,62.56024285714289
687.982,47.93775238095241
690.538,40.61650000000003
693.092,39.45001428571433
695.645,65.91070952380956
698.195,63.66170000000004
700.744,78.5087428571429
703.291,76.63874761904765
705.836,59.09565238095241
708.38,60.304409523809554
710.921,49.64230476190478
713.461,46.105714285714335
715.999,70.9766428571429
718.535,71.68015714285718
721.069,84.73651428571435
723.602,86.95169523809527
726.133,81.51274761904767
728.662,79.27332380952386
731.189,76.70620952380958
733.714,70.04615238095242
736.238,53.86133333333335
738.759,38.386661904761944
741.279,44.09526190476194
743.798,58.65071428571434
746.314,75.05011428571434
748.829,92.90963809523814
751.342,76.03608571428575
753.853,56.8554285714286
756.362,51.50798095238099
758.869,44.80087619047621
761.375,41.96991904761908
763.879,46.67957619047622
766.381,52.59445238095241
768.882,60.37931619047624
771.38,61.603813809523835
773.877,57.647220952380984
776.372,37.508012857142866
778.866,14.899071428571451
781.357,34.20015380952386
783.847,58.69574571428576
786.335,85.57559333333342
788.821,119.69558380952388
791.306,128.4839333333334
793.789,129.0828333333334
796.27,142.39661904761914
798.749,140.99633333333344
801.227,156.73919047619057
803.702,170.76757142857153
806.176,182.79642857142866
808.649,188.2541904761906
811.119,175.37929523809532
813.588,150.64841428571435
816.055,129.39525714285722
818.521,114.90615714285721
820.984,113.37235238095246
823.446,117.17555714285723
825.906,136.69763809523818
828.365,121.32081904761912
830.821,130.56968571428578
833.276,137.30289523809532
835.729,145.71203809523817
838.181,128.5126476190477
840.631,136.2774952380953
843.079,98.15102095238099
845.525,67.61083285714288
847.97,42.61126095238097
850.412,38.82065761904765
852.854,32.47877047619052
855.293,42.87323761904764
857.731,43.57725428571431
860.167,61.973871428571485
862.601,73.96967619047625
865.034,93.56673809523815
867.465,80.86238095238097
869.894,49.66830952380957
872.321,57.9388714285715
874.747,81.58134285714291
877.171,85.35967619047624
879.594,88.80017142857147
882.014,83.61911904761911
884.433,104.05711904761915
886.851,148.21161428571438
889.266,159.56107619047626
891.68,144.9650952380953
894.092,128.5212857142858
896.503,135.8511904761906
898.912,154.71904761904773
901.319,168.46090476190483
903.724,141.60252380952386
906.128,110.57500000000005
908.53,90.90442857142865
910.931,105.26014285714294
913.329,109.73940476190484
915.726,134.86866666666674
918.122,129.98348095238103
920.516,124.41953333333342
922.908,108.17920476190483
925.298,128.21706666666677
927.687,95.297280952381
930.074,111.13616190476199
932.459,127.2599476190477
934.843,136.7659714285715
937.225,126.84681428571434
939.605,117.36163809523812
941.984,64.502980952381
944.361,55.89157142857148
946.736,95.52946666666676
949.11,111.13291428571434
951.482,123.46559361904767
953.853,83.19591195238097
956.222,60.32556200000005
958.589,37.23691042857148
960.954,72.69332390476197
963.318,70.17262147619053
965.68,87.72360790476196
968.041,89.96694761904769
970.4,90.76084285714289
972.757,79.24923333333338
975.113,69.90931523809525
977.467,32.12302476190477
979.819,20.129197142857166
982.17,24.214632380952395
984.519,23.617844761904795
986.866,27.815700952380976
989.212,50.47522000000005
991.556,79.69214761904769
993.899,113.99061428571437
996.24,121.27556666666673
998.579,117.21394285714291
1000.92,100.47220000000004
1003.25,84.71702380952385
1005.59,74.85322380952385
1007.92,76.9757190476191
1010.25,77.84626666666674
1012.58,69.22652857142863
1014.91,81.59216190476197
1017.24,97.60925714285722
1019.56,119.51560476190487
1021.88,150.73885714285723
1024.2,153.99291428571433
1026.52,151.75314285714293
1028.84,157.87619047619057
1031.16,170.07509523809534
1033.48,187.3017142857144
1035.79,184.173761904762
1038.1,176.64285714285728
1040.41,218.75547619047637
1042.72,271.7488095238097
1045.03,270.2402857142858
1047.33,236.27666666666676
1049.64,201.90438095238102
1051.94,184.4077142857144
1054.24,195.7857142857144
1056.54,214.17976190476202
1058.84,202.68328571428583
1061.13,165.00966666666676
1063.43,168.34785714285726
1065.72,162.60104761904773
1068.01,179.43466666666677
1070.3,176.13252380952392
1072.59,176.0263809523811
1074.87,185.25771428571443
1077.16,230.7298095238097
1079.44,275.29838095238114
1081.72,316.53300000000024
1084.0,337.28909523809546
1086.28,378.3747619047622
1088.56,468.97842857142894
1090.84,578.0989523809527
1093.11,664.9250000000004
1095.38,661.3594285714289
1097.65,610.7816666666671
1099.92,525.9521904761907
1102.19,438.3927619047622
1104.46,408.19747619047644
1106.72,392.6500476190478
1108.98,366.0344285714288
1111.24,377.7300952380955
1113.5,401.21166666666693
1115.76,426.5729523809527
1118.02,500.24076190476217
1120.28,532.5469047619051
1122.53,517.3944761904764
1124.78,462.0678571428574
1127.03,396.517523809524
1129.28,311.1709047619049
1131.53,272.1216190476192
1133.77,233.8444761904763
1136.02,236.481142857143
1138.26,224.69680952380966
1140.5,242.0137142857144
1142.74,229.66909523809537
1144.98,241.61400000000015
1147.22,232.41842857142873
1149.45,256.938523809524
1151.69,251.07771428571442
1153.92,240.59685714285723
1156.15,199.11414285714295
1158.38,178.67628571428583
1160.61,158.94890476190488
1162.83,168.55017142857153
1165.06,140.76512380952389
1167.28,123.11658095238101
1169.5,106.88970952380959
1171.72,86.32210000000003
1173.94,70.60339523809527
1176.16,64.9237142857143
1178.37,35.282609523809555
1180.58,34.203447619047644
1182.8,39.49559047619049
1185.01,50.4445047619048
1187.22,46.05008380952382
1189.42,27.64566238095238
1191.63,13.326634285714293
1193.84,3.7599328571428723
1196.04,19.32692000000004
1198.24,47.59953380952383
1200.44,43.530831428571446
1202.64,40.02636666666669
1204.84,44.27751428571431
1207.03,42.23764095238098
1209.23,43.14594333333334
1211.42,32.38456285714286
1213.61,21.76429952380954
1215.8,13.381767619047638
1217.99,39.66674809523814
1220.18,66.71613619047622
1222.36,65.34097619047623
1224.55,60.35238571428573
1226.73,45.1329380952381
1228.91,34.636657333333375
1231.09,35.96033066666669
1233.27,45.15352323809527
1235.44,51.21796361904766
1237.62,64.96501847619052
1239.79,71.6822592380953
1241.96,89.56203828571432
1244.13,81.8444047619048
1246.3,81.9120714285715
1248.47,89.7197095238096
1250.64,110.03115238095246
1252.8,112.8007476190477
1254.96,135.83989523809532
1257.13,153.67461904761916
1259.29,165.3545238095239
1261.44,173.35809523809533
1263.6,172.6873333333334
1265.76,144.7253333333334
1267.91,131.7123333333334
1270.06,109.50764285714293
1272.22,107.58980000000005
1274.37,113.34159047619053
1276.51,95.05091428571434
1278.66,99.48187619047627
1280.81,110.97014285714295
1282.95,118.23208095238103
1285.09,126.79376666666673
1287.23,124.94290952380958
1289.37,81.01511428571433
1291.51,90.20275714285722
1293.65,99.69873809523816
1295.78,106.17190476190483
1297.92,87.67190952380956
1300.05,71.72464761904766
1302.18,58.570428571428636
1304.31,87.21109523809531
1306.44,110.55361428571436
1308.57,141.7903857142858
1310.69,153.4946761904763
1312.82,160.43061904761916
1314.94,192.64780952380966
1317.06,214.43385714285728
1319.18,222.31457142857158
1321.3,241.67266666666683
1323.41,258.79547619047634
1325.53,270.542142857143
1327.64,296.0572380952383
1329.75,302.1043809523811
1331.87,289.4950000000002
1333.98,270.65919047619064
1336.08,243.78895238095254
1338.19,240.7427142857144
1340.3,233.2367142857144
1342.4,211.6056666666668
1344.5,189.80314285714297
1346.6,160.11642857142863
1348.7,152.92773333333344
1350.8,146.14280000000005
1352.9,125.6202952380953
1354.99,97.83744761904768
1357.09,99.17601904761912
1359.18,106.68505714285725
1361.27,139.4128476190477
1363.36,149.26501904761912
1365.45,157.14723809523818
1367.54,168.01247619047632
1369.62,182.48061904761917
1371.7,213.5999047619049
1373.79,246.6563809523811
1375.87,269.69809523809545
1377.95,286.1540952380954
1380.03,293.596142857143
1382.1,267.3580000000002
1384.18,245.39185714285725
1386.25,216.50728571428584
1388.33,173.5135714285715
1390.4,155.07738095238105
1392.47,136.81764761904768
1394.54,111.4006952380953
1396.6,105.2070095238096
1398.67,104.1884952380953
1400.74,114.39224761904771
1402.8,142.0554190476191
1404.86,143.17723333333342
1406.92,97.23300000000005
1408.98,88.6503952380953
1411.04,77.71401428571434
1413.09,85.32750476190483
1415.15,96.29877619047625
1417.2,104.62639523809527
1419.25,86.07096666666673
1421.3,101.91638571428578
1423.35,116.30386666666674
1425.4,102.75537619047621
1427.45,82.9356428571429
1429.49,48.556861904761924
1431.54,46.23613714285719
1433.58,39.876025238095266
1435.62,48.902955238095274
1437.66,48.79078428571431
1439.7,41.87051714285715
1441.74,36.13976333333337
1443.77,40.78637523809525
1445.81,39.37941428571432
1447.84,48.05913333333338
1449.87,73.67992857142862
1451.9,82.57266666666672
1453.93,90.30609523809528
1455.96,70.54412380952385
1457.98,89.56992857142863
1460.01,107.99969523809531
1462.03,142.97350952380964
1464.05,184.34550952380965
1466.07,199.92281904761919
1468.09,200.84523809523824
1470.11,224.44380952380965
1472.13,229.33457142857156
1474.14,227.3244285714287
1476.16,233.36280952380966
1478.17,234.59023809523825
1480.18,201.6230238095239
1482.19,174.83992380952392
1484.2,134.90470952380957
1486.21,106.19570476190482
1488.21,86.37727142857148
1490.22,86.92313809523814
1492.22,56.021638095238124
1494.22,53.81347619047623
1496.22,42.72493333333336
1498.22,41.13476666666669
1500.22,47.231579047619086
1502.22,44.7277242857143
1504.21,29.04992476190479
1506.21,44.72029476190479
1508.2,32.16578190476192
1510.19,21.194410000000026
1512.18,37.51906952380955
1514.17,35.37658571428574
1516.16,38.480100000000036
1518.14,48.971455238095245
1520.13,32.51639523809525
1522.11,8.923643333333342
1524.09,11.716358095238109
1526.07,20.322558571428594
1528.05,31.5037323809524
1530.03,33.16434238095239
1532.01,28.018453333333337
1533.98,12.065977142857152
1535.96,3.687911428571441
1537.93,15.312921904761925
1539.9,31.560303809523834
1541.87,33.19222476190479
1543.84,48.8281647619048
1545.81,79.94491238095245
1547.78,78.11435714285717
1549.74,85.57507619047625
1551.7,92.28033333333337
1553.67,95.61175238095245
1555.63,92.14186666666673
1557.59,114.82430476190483
1559.55,101.23116666666671
1561.5,90.03016190476198
1563.46,102.60341428571436
1565.41,114.1423333333334
1567.37,108.8865476190477
1569.32,134.36111428571436
1571.27,137.75759047619056
1573.22,134.22075238095246
1575.17,129.5136571428572
1577.11,106.11396190476196
1579.06,87.59454285714293
1581.0,100.29028571428577
1582.95,105.05963809523814
1584.89,118.0950095238096
1586.83,117.7309333333334
1588.77,108.25502380952386
1590.7,107.19242857142865
1592.64,110.87851428571433
1594.58,106.98140476190481
1596.51,105.24092619047632
1598.44,109.49209523809546
