Raman Shift,Processed Intensity
331.095,67.64914523809503
333.909,23.363959523809456
336.721,8.089659523809516
339.531,12.614461904761932
342.339,27.012071428571453
345.145,35.23744761904765
347.949,59.91307142857144
350.751,27.376414285714276
353.55,-0.1771714285714192
356.348,-4.027671428571426
359.144,-0.5017857142856976
361.937,2.9318190476190678
364.729,36.28168095238098
367.518,28.747819047619103
370.306,73.48356190476201
373.091,175.02450952380968
375.874,287.1452714285716
378.656,307.1456238095239
381.435,269.5645076190477
384.212,153.22776000000002
386.988,44.62904380952384
389.761,-5.6888409523809385
392.532,-20.372432380952397
395.301,-30.114287619047623
398.068,-27.462809523809536
400.833,-8.82208380952381
403.596,-8.499486666666687
406.358,-19.277064761904782
409.117,-29.078249523809532
411.874,-32.77739047619048
414.629,-11.390244761904736
417.382,18.878407619047632
420.133,45.44418000000004
422.882,59.34312761904765
425.629,66.61249523809528
428.374,75.81493809523818
431.117,139.37077142857154
433.858,184.65438571428587
436.597,262.6125714285716
439.334,265.2407000000001
442.069,195.72560000000004
444.802,130.20779523809531
447.533,109.9232857142858
450.262,127.01397619047634
452.989,193.52758095238107
455.714,228.75060952380966
458.438,207.01761904761915
461.159,179.85469047619057
463.878,123.31227380952384
466.595,87.29827142857148
469.31,47.72156904761909
472.024,67.6344238095239
474.735,107.5175500000001
477.444,145.04323333333343
480.152,151.26520000000008
482.857,149.28481904761912
485.561,147.82285714285726
488.262,155.69590476190487
490.962,179.67280952380963
493.659,188.0472380952382
496.355,192.3982476190477
499.048,160.30510476190486
501.74,147.15697142857152
504.43,113.58094285714296
507.118,125.53787619047631
509.804,164.22696190476202
512.488,186.94205714285724
515.17,191.21571428571443
517.85,200.4851904761906
520.528,171.23504761904772
523.204,168.33104761904772
525.878,160.8773047619048
528.551,118.59640000000007
531.221,126.40151428571437
533.89,134.82468095238102
536.556,116.82640476190483
539.221,118.60501428571435
541.883,133.12098571428578
544.544,120.90566190476201
547.203,148.06208095238105
549.86,143.69248571428577
552.515,127.04214285714292
555.168,127.02257142857152
557.819,158.02142857142866
560.469,162.7590952380953
563.116,182.6706857142858
565.761,156.95204285714294
568.405,139.18046666666677
571.047,135.93219523809535
573.687,166.83164761904771
576.324,164.26384285714295
578.96,166.85238095238105
581.594,137.74405714285723
584.227,143.27583809523819
586.857,136.40327619047628
589.485,153.2248952380953
592.112,147.21919047619053
594.737,132.91238095238103
597.359,116.16319047619058
599.98,142.97304761904772
602.599,155.01038095238104
605.216,145.18069047619056
607.831,148.29408571428579
610.445,125.30313333333338
613.056,77.35014761904768
615.666,84.48239047619055
618.274,92.27081428571435
620.88,113.71387142857155
623.484,142.8578238095239
626.086,176.79595238095249
628.686,174.14538095238106
631.284,183.85614285714297
633.881,191.87800000000013
636.476,215.92176190476204
639.068,199.07976190476202
641.659,212.20512380952388
644.249,187.38965238095247
646.836,135.96260476190483
649.421,91.4434904761905
652.005,53.11330476190478
654.587,19.63431904761908
657.166,19.04881428571431
659.745,38.87573542857146
662.321,35.538363523809544
664.895,41.74560323809527
667.468,44.39668790476193
670.038,50.29557942857147
672.607,65.38875400000005
675.174,92.24199257142863
677.739,87.8018428571429
680.303,80.63381714285717
682.864,45.73197904761905
685.424,24.04282952380954
687.982,20.607892380952396
690.538,17.70716761904763
693.092,28.811012380952395
695.645,25.00887904761904
698.195,-0.8001142857142929
700.744,-15.43105000000001
703.291,-11.365538095238087
705.836,-1.4660214285714064
708.38,21.40530952380955
710.921,61.0528690476191
713.461,73.71011428571433
715.999,79.89608571428577
718.535,107.22554761904767
721.069,109.26544190476194
723.602,72.48776333333336
726.133,59.69785523809525
728.662,40.55863190476194
731.189,47.78050761904768
733.714,68.40764904761909
736.238,92.24615619047624
738.759,100.57826190476196
741.279,84.54367380952384
743.798,71.47268095238098
746.314,60.695740476190494
748.829,51.30531904761911
751.342,78.77517857142864
753.853,114.38831142857148
756.362,97.61860428571433
758.869,71.5590704761905
761.375,50.20764333333337
763.879,53.943313333333386
766.381,65.28805666666672
768.882,100.47842095238101
771.38,95.75074285714291
773.877,81.29405238095242
776.372,76.82130000000004
778.866,70.66461428571432
781.357,51.68004761904766
783.847,65.6764047619048
786.335,56.84312857142861
788.821,61.56037619047625
791.306,96.16096190476199
793.789,135.35859047619059
796.27,152.53413809523818
798.749,159.0682476190477
801.227,167.34152380952392
803.702,164.2587142857144
806.176,187.24833333333345
808.649,213.64404761904774
811.119,216.63695238095252
813.588,196.4177142857144
816.055,200.0820000000001
818.521,179.4874761904763
820.984,174.53938095238107
823.446,193.57227619047632
825.906,178.20606190476198
828.365,164.48921904761914
830.821,149.37555714285725
833.276,136.72321904761912
835.729,139.34296666666677
838.181,153.37927619047628
840.631,141.97633333333343
843.079,144.61161904761912
845.525,132.5730571428572
847.97,111.43364285714291
850.412,91.67138571428576
852.854,84.38353047619051
855.293,58.38154238095242
857.731,52.096018095238136
860.167,79.81518619047624
862.601,85.01725619047625
865.034,88.65702809523815
867.465,85.8797780952381
869.894,52.35470000000004
872.321,40.846328571428614
874.747,61.92876666666672
877.171,74.65226190476196
879.594,81.54342857142862
882.014,94.27189523809531
884.433,85.364180952381
886.851,96.9185857142858
889.266,126.1762095238096
891.68,135.1398952380953
894.092,142.28890476190486
896.503,157.57892380952387
898.912,131.39389523809533
901.319,108.30860952380958
903.724,86.4691428571429
906.128,77.25935238095244
908.53,76.2064952380953
910.931,81.551980952381
913.329,91.0133428571429
915.726,107.92724761904769
918.122,124.96364761904772
920.516,123.12557619047624
922.908,121.55931428571435
925.298,118.31565238095244
927.687,123.11245714285724
930.074,135.52436190476197
932.459,136.84038571428576
934.843,80.15888571428577
937.225,108.48298571428583
939.605,146.81596190476202
941.984,155.63730476190486
944.361,144.23564285714292
946.736,118.80470952380956
949.11,69.8237238095239
951.482,112.43839523809534
953.853,138.46150000000006
956.222,104.18150476190482
958.589,101.79184285714294
960.954,107.34316190476197
963.318,108.07606190476199
965.68,119.85025809523813
968.041,95.62090809523811
970.4,22.485768571428583
972.757,2.447449047619064
975.113,3.2703571428571547
977.467,9.623339523809538
979.819,12.651568571428578
982.17,22.97626380952382
984.519,22.980439047619075
986.866,29.475555238095268
989.212,50.60616476190481
991.556,60.04070000000005
993.899,76.25685238095244
996.24,114.11308095238103
998.579,120.18200952380957
1000.92,105.13130952380959
1003.25,89.67598095238097
1005.59,61.816723809523864
1007.92,66.60151428571434
1010.25,77.84008571428575
1012.58,86.62763809523815
1014.91,101.34498095238101
1017.24,115.80120952380959
1019.56,124.04369523809531
1021.88,130.2144476190477
1024.2,101.12209523809528
1026.52,91.24180952380958
1028.84,86.14378095238104
1031.16,133.82629523809535
1033.48,175.81220952380963
1035.79,203.813942857143
1038.1,219.1154285714287
1040.41,213.33409523809536
1042.72,201.99161904761917
1045.03,208.94266666666675
1047.33,184.09019047619057
1049.64,169.86000000000013
1051.94,184.7734285714287
1054.24,186.3519523809525
1056.54,180.0692857142858
1058.84,171.87490476190484
1061.13,151.86119047619056
1063.43,156.5490476190477
1065.72,166.93552380952391
1068.01,173.39838095238105
1070.3,170.55366666666677
1072.59,168.1602380952382
1074.87,181.45276190476204
1077.16,206.42847619047635
1079.44,238.79795238095255
1081.72,249.03395238095254
1084.0,294.03776190476214
1086.28,361.33047619047653
1088.56,450.14638095238126
1090.84,557.6727142857146
1093.11,652.3820000000003
1095.38,647.7947619047623
1097.65,617.5264761904765
1099.92,534.0503809523811
1102.19,426.98176190476215
1104.46,363.9364285714288
1106.72,363.0061428571431
1108.98,384.71138095238115
1111.24,418.0963333333336
1113.5,454.87247619047645
1115.76,486.3222380952384
1118.02,496.6329523809526
1120.28,511.2774761904765
1122.53,497.25280952380973
1124.78,450.2224285714288
1127.03,402.6600000000002
1129.28,355.13414285714305
1131.53,299.0230476190478
1133.77,261.75271428571443
1136.02,237.7965714285716
1138.26,230.67604761904775
1140.5,230.6266666666668
1142.74,246.2177142857144
1144.98,242.87600000000015
1147.22,247.07547619047637
1149.45,264.7666666666668
1151.69,267.1860952380954
1153.92,282.33176190476206
1156.15,276.5831904761906
1158.38,248.93938095238113
1160.61,234.06549523809537
1162.83,205.29405238095248
1165.06,153.86222857142863
1167.28,119.43599047619054
1169.5,91.3004952380953
1171.72,84.21736190476197
1173.94,88.56740476190481
1176.16,113.6838714285715
1178.37,85.75756190476191
1180.58,60.21752857142861
1182.8,49.63580000000001
1185.01,33.394190476190495
1187.22,21.44612571428575
1189.42,35.364154285714285
1191.63,17.102203809523836
1193.84,22.376155238095265
1196.04,42.42585142857147
1198.24,68.77697333333339
1200.44,90.71725904761908
1202.64,81.48694761904765
1204.84,71.46924761904765
1207.03,55.80935714285718
1209.23,58.033471428571474
1211.42,57.04884285714288
1213.61,46.57230476190478
1215.8,30.035066666666687
1217.99,33.058804761904796
1220.18,49.979512285714335
1222.36,59.7998553809524
1224.55,49.09396790476192
1226.73,29.388397476190498
1228.91,36.68588219047625
1231.09,70.41761252380958
1233.27,107.87218847619053
1235.44,102.48096190476194
1237.62,85.72288095238099
1239.79,71.64816666666673
1241.96,87.73608095238102
1244.13,99.46536190476196
1246.3,103.17226666666672
1248.47,82.24057142857149
1250.64,69.29194761904769
1252.8,94.18613333333343
1254.96,119.92652857142865
1257.13,142.75369047619057
1259.29,163.86081904761915
1261.44,170.8222380952382
1263.6,186.9262380952382
1265.76,189.9375238095239
1267.91,176.66838095238106
1270.06,162.64517142857153
1272.22,141.68018095238105
1274.37,115.39528095238103
1276.51,112.93603809523817
1278.66,105.63852857142865
1280.81,99.79078095238101
1282.95,100.53830000000006
1285.09,88.02655714285717
1287.23,71.06762380952387
1289.37,63.0450190476191
1291.51,93.77069047619054
1293.65,103.72332857142862
1295.78,98.52447142857146
1297.92,99.17629523809529
1300.05,97.72900000000007
1302.18,108.89913809523819
1304.31,147.78427619047628
1306.44,179.8626952380953
1308.57,174.61300000000008
1310.69,173.03690476190488
1312.82,166.85123809523822
1314.94,180.58157142857155
1317.06,184.3255238095239
1319.18,206.22757142857157
1321.3,201.1947142857144
1323.41,218.5618571428573
1325.53,228.66428571428585
1327.64,249.07500000000016
1329.75,256.5578095238097
1331.87,266.59047619047635
1333.98,273.3174761904764
1336.08,295.88319047619063
1338.19,274.3844285714287
1340.3,264.584142857143
1342.4,234.29344761904773
1344.5,177.94199523809533
1346.6,148.9120857142858
1348.7,139.53800476190486
1350.8,128.20181904761915
1352.9,135.9995857142858
1354.99,134.50396190476198
1357.09,120.76321904761912
1359.18,121.01637142857152
1361.27,129.69240000000008
1363.36,146.7918857142858
1365.45,127.12505714285722
1367.54,122.50159047619056
1369.62,145.39808571428583
1371.7,175.86240000000015
1373.79,208.94253333333347
1375.87,233.97172380952392
1377.95,227.52142857142871
1380.03,235.54366666666684
1382.1,227.65738095238106
1384.18,198.3860476190477
1386.25,174.20571428571435
1388.33,142.2582857142858
1390.4,133.35285714285726
1392.47,147.2506095238096
1394.54,132.09366190476194
1396.6,93.40486666666669
1398.67,55.23094761904764
1400.74,33.8561428571429
1402.8,55.18404285714293
1404.86,96.83247619047627
1406.92,109.51425238095243
1408.98,94.41827142857147
1411.04,76.20954761904767
1413.09,71.74329047619054
1415.15,84.97006666666672
1417.2,103.79281428571434
1419.25,93.54284761904766
1421.3,88.2656952380953
1423.35,92.91158571428578
1425.4,94.85920952380958
1427.45,92.48730952380959
1429.49,91.31735238095241
1431.54,73.82316666666671
1433.58,68.43092857142861
1435.62,65.56673809523814
1437.66,59.60909523809528
1439.7,69.50788571428576
1441.74,80.68914285714288
1443.77,85.15027619047625
1445.81,97.69828380952384
1447.84,74.14007190476192
1449.87,54.99713428571434
1451.9,74.93322809523816
1453.93,92.13641047619053
1455.96,95.03263857142865
1457.98,117.95293619047625
1460.01,112.27547619047627
1462.03,129.18861904761917
1464.05,191.40375238095254
1466.07,230.63272380952395
1468.09,257.25428571428586
1470.11,295.9805714285716
1472.13,309.90414285714303
1474.14,302.02271428571447
1476.16,270.8103809523811
1478.17,247.2646666666668
1480.18,228.85985714285727
1482.19,223.0224285714287
1484.2,201.89314285714292
1486.21,166.94600000000008
1488.21,128.03670476190482
1490.22,112.1632333333334
1492.22,87.89517142857149
1494.22,62.51650000000002
1496.22,54.93032380952385
1498.22,43.18262380952384
1500.22,59.17687142857147
1502.22,44.91165714285715
1504.21,35.95708571428572
1506.21,5.359578571428582
1508.2,22.641847619047645
1510.19,21.564778571428594
1512.18,47.27032285714288
1514.17,42.66245380952383
1516.16,45.31183809523811
1518.14,17.02734333333334
1520.13,16.37982571428573
1522.11,18.74967571428575
1524.09,45.61266476190481
1526.07,71.77790428571433
1528.05,79.29267809523812
1530.03,74.53763333333336
1532.01,67.32210000000003
1533.98,45.16964285714288
1535.96,52.41340952380956
1537.93,68.00569047619052
1539.9,77.13685238095245
1541.87,90.90202380952387
1543.84,93.15827142857148
1545.81,89.09603809523817
1547.78,99.9532333333334
1549.74,106.15863333333341
1551.7,128.37862857142864
1553.67,156.3752380952382
1555.63,159.43421904761914
1557.59,167.65079047619054
1559.55,158.21555238095246
1561.5,124.98588571428577
1563.46,105.86643809523818
1565.41,137.90482857142868
1567.37,156.57762857142868
1569.32,180.7894095238096
1571.27,184.58821904761908
1573.22,159.5932857142858
1575.17,129.7092857142858
1577.11,140.60310476190486
1579.06,132.27520000000007
1581.0,138.24925714285723
1582.95,140.2878476190477
1584.89,144.67682857142867
1586.83,149.13034285714295
1588.77,167.69658095238103
1590.7,159.61395238095247
1592.64,145.9780000000001
1594.58,134.86069047619054
1596.51,141.904904761905
1598.44,180.61080952381005
