Raman Shift,Processed Intensity
331.095,3.060089761904536
333.909,-16.955250000000046
336.721,-0.18190071428570276
339.531,31.330447619047646
342.339,31.008036666666687
345.145,47.39651428571431
347.949,42.637726666666666
350.751,21.255220952380967
353.55,3.9162352380952505
356.348,20.098418095238117
359.144,24.661307619047662
361.937,60.56067047619052
364.729,66.03888761904766
367.518,101.10157333333343
370.306,150.7551714285716
373.091,257.34061904761927
375.874,328.91398095238117
378.656,338.34265714285726
381.435,260.0663486666667
384.212,150.66931271428575
386.988,55.21302161904765
389.761,28.331825857142874
392.532,-4.814972666666666
395.301,-7.113631095238093
398.068,-8.163554190476209
400.833,-29.276651428571448
403.596,-35.62041809523811
406.358,-29.74158571428574
409.117,-40.70901904761905
411.874,-16.732742857142856
414.629,-7.592506666666681
417.382,-12.018686190476199
420.133,-20.549573809523817
422.882,-16.05513571428569
425.629,22.691328095238163
428.374,78.53736047619056
431.117,144.8081900000001
433.858,177.83007523809533
436.597,188.21669523809533
439.334,162.53540476190483
442.069,143.5928095238096
444.802,118.95888095238104
447.533,112.34733333333341
450.262,125.28254761904773
452.989,179.71866666666676
455.714,204.27725714285725
458.438,188.29559047619054
461.159,151.30203809523817
463.878,105.01600952380959
466.595,86.58706190476198
469.31,74.7840714285715
472.024,80.42405238095243
474.735,88.08711904761913
477.444,88.40137619047626
480.152,95.85250952380959
482.857,113.40327619047625
485.561,101.68348095238105
488.262,105.89484761904771
490.962,132.9535476190477
493.659,136.39570476190482
496.355,133.04307142857152
499.048,132.47966666666676
501.74,135.05166666666676
504.43,136.77223809523818
507.118,144.03571428571436
509.804,140.23666666666674
512.488,164.34100000000012
515.17,178.17180952380966
517.85,234.64742857142875
520.528,256.97176190476205
523.204,241.4922380952382
525.878,208.84133333333344
528.551,212.8423333333335
531.221,224.2703333333335
533.89,237.71014285714296
536.556,210.93619047619055
539.221,162.48523809523817
541.883,147.98914285714298
544.544,151.0792380952382
547.203,171.3864761904763
549.86,184.11347619047626
552.515,178.3662380952382
555.168,162.48952380952392
557.819,177.54157142857156
560.469,193.38980952380967
563.116,219.6154285714287
565.761,242.13295238095253
568.405,265.2843333333335
571.047,257.03080952380964
573.687,249.38014285714303
576.324,222.19709523809536
578.96,201.48847619047632
581.594,166.2137142857144
584.227,177.95009523809537
586.857,170.27466666666675
589.485,187.09709523809533
592.112,181.18357142857153
594.737,171.44266666666678
597.359,157.68723809523823
599.98,204.68185714285733
602.599,229.47642857142873
605.216,239.0250476190477
607.831,238.28128571428581
610.445,227.9594761904763
613.056,198.96428571428586
615.666,206.1521904761906
618.274,220.5697142857144
620.88,217.78661904761918
623.484,247.75285714285732
626.086,317.8937619047622
628.686,386.1107142857146
631.284,460.4472380952384
633.881,523.6133333333337
636.476,550.0325238095242
639.068,535.0328571428574
641.659,515.0845238095241
644.249,490.89509523809545
646.836,421.695504761905
649.421,308.8594380952382
652.005,191.33160952380956
654.587,103.53255238095245
657.166,89.1207238095239
659.745,87.89692857142862
662.321,80.85201904761907
664.895,51.7388142857143
667.468,41.024133333333396
670.038,58.364880952381014
672.607,90.08485714285719
675.174,94.55523809523815
677.739,112.62309523809529
680.303,86.5644190476191
682.864,81.22640476190479
685.424,73.12290000000003
687.982,46.863023809523824
690.538,21.389348571428577
693.092,3.787146190476181
695.645,-1.1910742857142562
698.195,18.588058571428608
700.744,59.829606666666706
703.291,57.33407
705.836,43.949858095238106
708.38,-4.85539047619049
710.921,-2.851771428571407
713.461,12.619490476190506
715.999,27.12223333333336
718.535,46.315900000000056
721.069,104.0031571428572
723.602,114.12961428571435
726.133,117.49850000000004
728.662,101.19899523809525
731.189,59.08252380952385
733.714,34.42941428571432
736.238,60.66312380952387
738.759,68.49292380952386
741.279,74.58087619047625
743.798,82.4940428571429
746.314,81.22838571428575
748.829,90.25604285714293
751.342,89.33554761904767
753.853,88.84453809523816
756.362,103.5417952380953
758.869,116.66251428571437
761.375,133.06121904761915
763.879,168.11631428571437
766.381,154.30201904761913
768.882,136.61640000000006
771.38,121.0576571428572
773.877,105.9101333333334
776.372,96.98197619047625
778.866,99.84365714285721
781.357,107.58941428571434
783.847,113.45649523809533
786.335,127.01612857142865
788.821,134.1727714285715
791.306,145.87876190476197
793.789,156.13409523809534
796.27,198.08185714285727
798.749,215.5319047619049
801.227,232.0565714285716
803.702,249.22776190476208
806.176,288.99914285714306
808.649,294.94285714285735
811.119,317.3460476190478
813.588,307.4006190476192
816.055,281.77480952380967
818.521,288.99409523809544
820.984,303.7271904761906
823.446,276.928142857143
825.906,254.8849047619049
828.365,213.31404761904773
830.821,191.4558666666668
833.276,172.26515238095246
835.729,168.030161904762
838.181,147.08703809523817
840.631,139.62892380952388
843.079,117.80181904761912
845.525,150.65630476190483
847.97,135.19527142857152
850.412,157.4218857142858
852.854,134.2444047619048
855.293,113.4276095238096
857.731,91.02302380952388
860.167,96.46264761904769
862.601,103.51190476190484
865.034,121.2695047619048
867.465,96.69150952380956
869.894,91.11493333333338
872.321,82.11512857142863
874.747,93.50540000000008
877.171,128.6230333333334
879.594,141.5195238095239
882.014,127.53196190476199
884.433,140.85534285714294
886.851,151.20742857142866
889.266,173.7829047619049
891.68,201.25261904761913
894.092,199.52523809523822
896.503,199.3190666666668
898.912,176.4004476190477
901.319,170.7255142857144
903.724,176.15550476190487
906.128,177.83760952380962
908.53,160.29935238095248
910.931,159.3070190476191
913.329,128.76938095238103
915.726,118.73795238095246
918.122,128.88333333333344
920.516,134.4000952380953
922.908,136.14918095238104
925.298,121.18230000000007
927.687,125.31298095238104
930.074,131.97306476190482
932.459,108.21420523809529
934.843,80.70671047619051
937.225,68.97803761904765
939.605,36.17466285714289
941.984,39.109781428571466
944.361,53.35788857142859
946.736,34.73208095238097
949.11,28.99747619047622
951.482,42.68107142857146
953.853,42.547842857142896
956.222,58.743542857142906
958.589,89.65201904761909
960.954,100.0855333333334
963.318,122.42775238095246
965.68,135.01431428571436
968.041,113.13327428571434
970.4,76.07240714285717
972.757,38.64331714285714
975.113,14.60976523809527
977.467,18.402132380952406
979.819,32.688447142857164
982.17,23.517709523809522
984.519,14.081492380952387
986.866,3.7140904761904974
989.212,24.559147619047653
991.556,49.28398571428576
993.899,74.93661428571433
996.24,79.70793333333339
998.579,105.74077142857149
1000.92,101.93996666666672
1003.25,106.11478095238101
1005.59,99.45550000000004
1007.92,75.96170000000005
1010.25,78.77555714285721
1012.58,89.42028095238099
1014.91,87.03781904761911
1017.24,97.7701190476191
1019.56,85.18760476190481
1021.88,75.52716190476195
1024.2,75.97777142857147
1026.52,86.20482857142864
1028.84,98.82571428571435
1031.16,111.41038095238102
1033.48,116.62362380952388
1035.79,124.60662857142864
1038.1,129.0716761904763
1040.41,159.87410476190487
1042.72,165.86885714285722
1045.03,179.1964761904763
1047.33,184.66428571428582
1049.64,181.50833333333344
1051.94,160.72609523809533
1054.24,166.0296666666668
1056.54,147.17809523809532
1058.84,150.0260000000001
1061.13,158.61823809523818
1063.43,166.09514285714295
1065.72,151.21614285714296
1068.01,169.64528571428582
1070.3,165.14133333333345
1072.59,178.8446666666668
1074.87,202.9423809523811
1077.16,218.62228571428585
1079.44,205.45323809523822
1081.72,207.52757142857158
1084.0,224.79442857142874
1086.28,279.91757142857165
1088.56,390.27485714285746
1090.84,517.6253333333336
1093.11,614.2996190476194
1095.38,635.1042380952383
1097.65,576.6076666666669
1099.92,476.9022380952383
1102.19,395.50880952380976
1104.46,326.47180952380967
1106.72,318.26485714285735
1108.98,327.3611428571431
1111.24,325.6628571428574
1113.5,360.119523809524
1115.76,404.77585714285743
1118.02,439.438666666667
1120.28,475.8198571428575
1122.53,479.4404761904764
1124.78,429.5359523809526
1127.03,383.2943333333335
1129.28,301.37961904761914
1131.53,248.93247619047634
1133.77,212.0934761904763
1136.02,197.86061904761917
1138.26,204.32676190476207
1140.5,227.91866666666678
1142.74,215.3957142857144
1144.98,207.18461904761918
1147.22,236.52166666666682
1149.45,256.26257142857156
1151.69,264.5960476190478
1153.92,265.2826666666668
1156.15,250.41566666666682
1158.38,211.42271428571442
1160.61,204.8262857142858
1162.83,171.38712380952387
1165.06,133.34255238095244
1167.28,112.73945714285722
1169.5,101.19581904761908
1171.72,87.3780571428572
1173.94,80.380680952381
1176.16,85.48907142857146
1178.37,74.36987619047623
1180.58,72.78488571428574
1182.8,66.97238285714289
1185.01,50.83737095238097
1187.22,54.04698952380956
1189.42,45.64940523809525
1191.63,34.550155238095265
1193.84,18.41686047619049
1196.04,27.917295238095264
1198.24,33.19560571428575
1200.44,29.49136952380952
1202.64,22.758618095238116
1204.84,24.094418095238108
1207.03,29.596080952381
1209.23,53.170600000000036
1211.42,70.01083809523811
1213.61,53.50029047619051
1215.8,53.92741904761907
1217.99,46.9616666666667
1220.18,43.51075714285716
1222.36,29.91106190476192
1224.55,26.546600000000026
1226.73,31.182409523809554
1228.91,46.012219047619084
1231.09,64.94393333333336
1233.27,78.79035904761909
1235.44,57.03089000000002
1237.62,58.6213228571429
1239.79,62.89795761904767
1241.96,78.81672285714293
1244.13,96.33299476190484
1246.3,132.59303523809533
1248.47,149.55233333333345
1250.64,184.88095238095252
1252.8,241.67714285714305
1254.96,299.2777619047621
1257.13,354.3523333333336
1259.29,416.0948095238098
1261.44,457.79395238095265
1263.6,467.881285714286
1265.76,442.5504761904764
1267.91,380.37585714285734
1270.06,327.4557142857144
1272.22,295.745523809524
1274.37,265.9627142857144
1276.51,246.63385714285727
1278.66,215.76228571428584
1280.81,178.73157142857153
1282.95,150.40171428571438
1285.09,161.91833333333344
1287.23,151.37952380952393
1289.37,165.93085714285726
1291.51,173.67042857142866
1293.65,155.93390476190484
1295.78,143.58104761904772
1297.92,141.04319047619057
1300.05,137.65609523809533
1302.18,150.42233333333343
1304.31,157.53461904761915
1306.44,164.7097142857144
1308.57,188.90233333333344
1310.69,187.25776190476202
1312.82,206.4921904761906
1314.94,185.79814285714295
1317.06,178.27295238095252
1319.18,185.29961904761916
1321.3,206.6896666666668
1323.41,246.3500000000002
1325.53,265.472523809524
1327.64,248.05900000000017
1329.75,296.6827142857145
1331.87,328.2022857142859
1333.98,343.3333809523811
1336.08,362.31585714285734
1338.19,303.912523809524
1340.3,212.17247619047632
1342.4,185.43038095238106
1344.5,159.3540000000001
1346.6,142.2298000000001
1348.7,130.5352428571429
1350.8,101.69954285714289
1352.9,74.72354761904768
1354.99,72.79847619047625
1357.09,88.87745238095245
1359.18,100.7225952380953
1361.27,95.95340952380958
1363.36,86.855880952381
1365.45,87.28723809523814
1367.54,91.39071904761911
1369.62,95.97572380952387
1371.7,106.04210476190484
1373.79,125.25634285714294
1375.87,152.47526666666678
1377.95,184.93642857142868
1380.03,195.2110000000001
1382.1,197.6788285714287
1384.18,172.76805238095247
1386.25,144.38251904761913
1388.33,104.045080952381
1390.4,72.56404285714288
1392.47,43.08115238095242
1394.54,49.73770952380957
1396.6,56.91332380952386
1398.67,63.653952380952404
1400.74,63.719833333333376
1402.8,60.871033333333365
1404.86,54.43899523809527
1406.92,38.89790285714287
1408.98,17.34093142857143
1411.04,7.52786285714289
1413.09,36.78982571428577
1415.15,63.02926285714292
1417.2,96.43412190476195
1419.25,122.47838380952388
1421.3,126.92149523809533
1423.35,141.18965238095245
1425.4,163.47065714285722
1427.45,143.09535238095242
1429.49,111.0133571428572
1431.54,108.60306666666673
1433.58,94.81418571428577
1435.62,82.73924952380956
1437.66,67.94685428571428
1439.7,33.815327619047636
1441.74,13.008583809523842
1443.77,35.428565714285746
1445.81,42.45351142857145
1447.84,56.31876380952384
1449.87,54.973900000000036
1451.9,63.98777142857149
1453.93,88.92880952380959
1455.96,103.27047619047624
1457.98,119.24821904761913
1460.01,144.19271428571437
1462.03,168.00628571428584
1464.05,192.3054285714287
1466.07,258.08695238095254
1468.09,310.4438095238097
1470.11,411.5160476190479
1472.13,487.77742857142886
1474.14,558.8927142857146
1476.16,567.8590952380955
1478.17,550.7218095238098
1480.18,471.2405714285716
1482.19,396.2698571428574
1484.2,321.4743333333335
1486.21,264.56661904761916
1488.21,214.11571428571438
1490.22,178.50076190476202
1492.22,118.67194285714292
1494.22,82.91308580952386
1496.22,55.5558093809524
1498.22,34.074847333333366
1500.22,33.75419680952384
1502.22,35.49715161904763
1504.21,28.159389380952394
1506.21,19.072967238095234
1508.2,2.7604561904762104
1510.19,23.744570952380982
1512.18,41.02427523809526
1514.17,35.31298285714288
1516.16,32.51466095238096
1518.14,31.3904885714286
1520.13,30.08268476190479
1522.11,49.54308000000003
1524.09,44.86644190476191
1526.07,40.576208571428594
1528.05,34.14821895238097
1530.03,31.72503680952382
1532.01,27.68742504761907
1533.98,30.8447312857143
1535.96,23.33973742857146
1537.93,45.220028238095274
1539.9,60.533197047619076
1541.87,49.660271428571455
1543.84,61.93477619047623
1545.81,61.11869047619051
1547.78,60.497952380952434
1549.74,72.54904285714291
1551.7,86.17697142857149
1553.67,106.90600476190485
1555.63,133.4983238095239
1557.59,148.9069000000001
1559.55,156.89411428571435
1561.5,162.4603333333334
1563.46,150.51119047619056
1565.41,159.9518095238096
1567.37,151.49695238095245
1569.32,149.9570476190477
1571.27,145.14238095238105
1573.22,139.81542857142864
1575.17,124.92947619047627
1577.11,135.19941904761913
1579.06,117.95946666666674
1581.0,132.7818000000001
1582.95,126.76285238095244
1584.89,125.33195238095247
1586.83,129.48981428571435
1588.77,146.9042476190477
1590.7,133.24289047619055
1592.64,138.93539047619055
1594.58,119.29233095238095
1596.51,113.31446666666687
1598.44,139.83598095238156
