Raman Shift,Processed Intensity
331.095,73.43585809523807
333.909,31.143489523809457
336.721,-1.7014047619048256
339.531,-20.815138095238094
342.339,-11.580984761904755
345.145,11.880096666666699
347.949,28.805359047619053
350.751,14.861498571428559
353.55,-3.9504895238095346
356.348,-19.342861904761897
359.144,-8.741116190476166
361.937,11.47801476190477
364.729,11.700624761904788
367.518,53.409551904762
370.306,127.85053428571442
373.091,220.22277190476208
375.874,302.29853619047634
378.656,296.7554761904763
381.435,244.65378095238106
384.212,180.00744571428575
386.988,96.02204904761909
389.761,41.47592571428573
392.532,18.530108476190485
395.301,4.536925142857159
398.068,0.37446219047617824
400.833,-16.887498476190494
403.596,-30.034788285714292
406.358,-22.51833485714285
409.117,-7.692320095238093
411.874,13.662135238095226
414.629,-6.758363333333365
417.382,-35.350832380952404
420.133,-50.17749523809524
422.882,-15.203480952380904
425.629,47.130990476190554
428.374,108.43486666666675
431.117,171.69985714285727
433.858,200.34742857142868
436.597,228.75258095238107
439.334,206.33970000000008
442.069,186.24825714285723
444.802,141.28553809523817
447.533,120.87916190476197
450.262,111.60065238095248
452.989,165.97462857142867
455.714,184.00348571428583
458.438,192.54734285714295
461.159,174.4197333333334
463.878,131.29184761904767
466.595,100.21687619047626
469.31,109.0106095238096
472.024,122.39453809523815
474.735,110.28092380952386
477.444,80.10671904761908
480.152,72.16640952380959
482.857,88.61223333333342
485.561,124.59704761904771
488.262,148.55967619047627
490.962,175.7013257142858
493.659,125.31885904761909
496.355,102.99523238095243
499.048,83.64712190476195
501.74,75.4296514285715
504.43,67.64067809523817
507.118,134.2926304761906
509.804,148.7314666666668
512.488,212.1604190476192
515.17,252.30685714285727
517.85,291.61228571428586
520.528,260.4705714285715
523.204,270.56109523809533
525.878,225.03980952380965
528.551,208.77666666666676
531.221,192.92733333333348
533.89,179.31366666666673
536.556,161.23361904761913
539.221,166.22338095238104
541.883,154.67580952380962
544.544,152.364761904762
547.203,138.63509523809532
549.86,134.45033333333345
552.515,193.48771428571445
555.168,211.47257142857157
557.819,218.22419047619059
560.469,227.32409523809537
563.116,208.3533809523811
565.761,207.98776190476204
568.405,228.0450000000001
571.047,217.15290476190486
573.687,202.36638095238106
576.324,187.88328571428582
578.96,180.66319047619058
581.594,163.045761904762
584.227,154.98909523809533
586.857,150.16547619047628
589.485,161.91252380952392
592.112,172.23476190476202
594.737,211.23128571428583
597.359,201.19138095238108
599.98,199.8795238095239
602.599,206.77409523809538
605.216,226.7815714285716
607.831,237.99819047619064
610.445,267.80552380952395
613.056,256.87042857142876
615.666,246.00176190476205
618.274,249.05552380952395
620.88,272.2686190476192
623.484,286.1624761904764
626.086,319.16304761904786
628.686,374.2193809523812
631.284,416.3756666666669
633.881,505.2943333333337
636.476,570.542285714286
639.068,574.4475714285718
641.659,528.2428571428574
644.249,469.5887619047621
646.836,382.859904761905
649.421,328.8113333333335
652.005,254.912161904762
654.587,175.3452333333334
657.166,126.3412000000001
659.745,95.46339523809529
662.321,66.32244761904765
664.895,58.67189047619052
667.468,66.83660000000005
670.038,56.141033333333375
672.607,43.48130238095239
675.174,36.61042380952382
677.739,31.7576166666667
680.303,26.24753333333335
682.864,24.166516666666663
685.424,15.363038095238094
687.982,5.876161904761932
690.538,25.126085714285743
693.092,42.48549523809524
695.645,12.8511238095238
698.195,-3.7372666666666587
700.744,7.9031904761905025
703.291,21.52700000000003
705.836,52.841390476190504
708.38,48.45850476190476
710.921,16.609861904761914
713.461,8.908166666666688
715.999,18.966366666666698
718.535,46.0644476190477
721.069,97.3873714285715
723.602,118.16775714285718
726.133,107.11483333333337
728.662,85.22375238095242
731.189,48.72803809523812
733.714,34.76627142857147
736.238,38.81048095238099
738.759,60.809000000000054
741.279,72.52004285714291
743.798,73.36864285714289
746.314,59.589628571428605
748.829,62.51311428571433
751.342,68.42194761904767
753.853,78.78960952380957
756.362,83.66119523809527
758.869,84.65340952380957
761.375,79.00219047619053
763.879,77.61025714285718
766.381,79.52349523809528
768.882,74.26411904761909
771.38,72.83063333333338
773.877,81.03129047619052
776.372,69.00789523809527
778.866,74.71167142857149
781.357,88.71339047619054
783.847,93.6792952380953
786.335,117.7992095238096
788.821,137.5966476190477
791.306,109.54754761904768
793.789,118.27061904761914
796.27,145.81373809523822
798.749,170.5582380952382
801.227,232.88550000000018
803.702,301.51042857142875
806.176,316.71938095238113
808.649,329.13171428571445
811.119,343.3672380952383
813.588,318.66523809523824
816.055,305.2174285714287
818.521,289.2631904761906
820.984,238.23223809523816
823.446,196.26857142857153
825.906,167.85009523809535
828.365,160.35957142857157
830.821,178.3222380952382
833.276,176.35890476190485
835.729,155.37619047619057
838.181,152.5190000000001
840.631,160.69433333333347
843.079,173.42809523809535
845.525,187.43645714285722
847.97,155.57871904761913
850.412,126.61943809523817
852.854,121.75115714285721
855.293,112.64312380952386
857.731,108.4882714285715
860.167,110.95588095238101
862.601,103.71519047619054
865.034,108.48330476190483
867.465,111.59604285714292
869.894,103.2464857142858
872.321,101.3422333333334
874.747,105.93379523809531
877.171,118.5955476190477
879.594,109.13974761904768
882.014,115.56915238095247
884.433,139.17230000000012
886.851,170.85693333333347
889.266,190.34034761904772
891.68,197.5302761904763
894.092,159.7630952380953
896.503,159.6604285714287
898.912,161.84433333333342
901.319,182.4131904761906
903.724,198.0842380952382
906.128,196.28880952380962
908.53,177.3157142857144
910.931,189.35809523809533
913.329,168.32357142857154
915.726,181.69128571428584
918.122,196.22604761904773
920.516,173.26390476190485
922.908,163.85500952380963
925.298,138.3833190476191
927.687,109.89897142857153
930.074,127.35709047619056
932.459,127.33178571428579
934.843,113.73028095238102
937.225,128.88833809523817
939.605,122.90353333333341
941.984,140.39741428571438
944.361,152.13422857142865
946.736,128.4494190476191
949.11,104.15455238095244
951.482,96.9186952380953
953.853,97.88670476190485
956.222,110.72724761904767
958.589,121.34668571428578
960.954,104.84227619047626
963.318,110.92960000000008
965.68,134.13427619047627
968.041,128.69617619047622
970.4,108.04503333333338
972.757,76.3249904761905
975.113,49.34686190476196
977.467,56.063862857142915
979.819,72.9055723809524
982.17,45.396825714285725
984.519,24.82410857142859
986.866,23.18791619047624
989.212,60.63182476190484
991.556,107.82328190476198
993.899,134.5720190476191
996.24,150.44981904761914
998.579,156.171361904762
1000.92,149.07010000000008
1003.25,147.00352380952387
1005.59,121.3052666666667
1007.92,85.784580952381
1010.25,98.0604095238096
1012.58,109.37103809523816
1014.91,118.28749047619057
1017.24,125.238280952381
1019.56,129.4613714285715
1021.88,90.57532380952387
1024.2,103.96078095238104
1026.52,127.33172380952391
1028.84,131.7347238095239
1031.16,154.360261904762
1033.48,186.20776190476198
1035.79,186.8953333333335
1038.1,210.66052380952397
1040.41,244.31223809523826
1042.72,246.70642857142872
1045.03,259.7000476190477
1047.33,240.48238095238105
1049.64,215.2430952380953
1051.94,181.74304761904773
1054.24,178.64785714285728
1056.54,168.24238095238104
1058.84,171.00161904761916
1061.13,175.01971428571437
1063.43,167.91490476190486
1065.72,175.97152380952394
1068.01,189.61690476190486
1070.3,195.6594761904763
1072.59,188.3357142857144
1074.87,181.93033333333344
1077.16,168.29933333333344
1079.44,180.67947619047632
1081.72,201.35514285714302
1084.0,254.65819047619067
1086.28,313.2539523809526
1088.56,411.04585714285747
1090.84,527.5563333333337
1093.11,630.4028571428576
1095.38,651.7745238095241
1097.65,601.8129523809528
1099.92,507.08800000000025
1102.19,407.5981428571431
1104.46,347.3895714285717
1106.72,330.2222857142859
1108.98,310.95238095238113
1111.24,338.7211904761907
1113.5,371.90814285714305
1115.76,416.22595238095266
1118.02,468.1020476190479
1120.28,492.6771428571431
1122.53,443.3313333333336
1124.78,393.44371428571446
1127.03,361.82228571428595
1129.28,320.1800952380955
1131.53,290.9442857142859
1133.77,277.256142857143
1136.02,226.68576190476205
1138.26,201.04100000000014
1140.5,209.32033333333345
1142.74,197.3797142857144
1144.98,216.12266666666682
1147.22,262.7382380952383
1149.45,288.36795238095254
1151.69,301.58195238095254
1153.92,275.66447619047636
1156.15,242.80461904761916
1158.38,216.7631904761906
1160.61,192.72928571428582
1162.83,170.36861904761912
1165.06,148.10836190476198
1167.28,120.85222857142863
1169.5,95.21813333333338
1171.72,80.82404761904766
1173.94,63.76433333333338
1176.16,57.27607619047624
1178.37,70.83411428571434
1180.58,79.39020000000004
1182.8,85.99105238095242
1185.01,82.49292380952384
1187.22,60.799800000000026
1189.42,39.291876190476216
1191.63,36.8730285714286
1193.84,26.16176190476193
1196.04,44.633638095238126
1198.24,63.6214285714286
1200.44,38.886528571428585
1202.64,42.42873333333337
1204.84,46.43802857142859
1207.03,42.29515238095244
1209.23,64.4286228571429
1211.42,72.6480204761905
1213.61,44.04878095238097
1215.8,27.821888571428577
1217.99,15.538987619047637
1220.18,18.295897142857168
1222.36,34.379031428571466
1224.55,54.74149000000004
1226.73,76.90801619047625
1228.91,81.1652571428572
1231.09,94.08593333333339
1233.27,91.29012380952385
1235.44,91.92192380952389
1237.62,95.6970333333334
1239.79,97.75994285714292
1241.96,104.25485714285723
1244.13,125.61232380952391
1246.3,170.548242857143
1248.47,224.58821904761922
1250.64,265.01985714285735
1252.8,302.9407142857145
1254.96,368.2570000000002
1257.13,421.3520476190479
1259.29,478.2758095238098
1261.44,490.45904761904785
1263.6,477.80880952380977
1265.76,434.8514285714288
1267.91,409.6841904761907
1270.06,357.2144285714287
1272.22,306.77800000000013
1274.37,259.1870476190478
1276.51,244.5870952380954
1278.66,211.07595238095246
1280.81,193.94219047619055
1282.95,172.47409523809534
1285.09,183.81709523809536
1287.23,205.73595238095254
1289.37,243.1379047619049
1291.51,238.35900000000012
1293.65,218.25952380952393
1295.78,198.46152380952395
1297.92,189.06276190476203
1300.05,187.2091904761906
1302.18,214.18909523809538
1304.31,223.0526666666668
1306.44,209.61261904761918
1308.57,208.39538095238106
1310.69,197.26095238095252
1312.82,186.16438095238107
1314.94,181.06114285714295
1317.06,205.19195238095253
1319.18,229.7023333333335
1321.3,253.83285714285734
1323.41,287.53900000000016
1325.53,306.3943809523811
1327.64,323.92585714285735
1329.75,361.7072380952383
1331.87,370.50261904761925
1333.98,370.7434761904764
1336.08,351.4320000000002
1338.19,322.4279047619049
1340.3,293.0190476190478
1342.4,255.68400000000014
1344.5,204.9484761904763
1346.6,181.67214285714297
1348.7,168.1425047619049
1350.8,151.79037619047625
1352.9,118.90316666666672
1354.99,110.10211904761911
1357.09,100.8169476190477
1359.18,114.0974142857144
1361.27,140.51659523809533
1363.36,131.5519952380953
1365.45,119.68115238095245
1367.54,110.5244714285715
1369.62,122.08305714285724
1371.7,134.21557619047627
1373.79,148.1610285714287
1375.87,184.20580952380965
1377.95,227.96980952380966
1380.03,231.54914285714295
1382.1,233.27750476190485
1384.18,173.77457619047624
1386.25,118.89754285714294
1388.33,94.26570952380958
1390.4,72.68873333333337
1392.47,79.16682380952386
1394.54,73.65167142857146
1396.6,67.85745333333338
1398.67,58.4025342857143
1400.74,41.52450666666669
1402.8,45.12729904761909
1404.86,59.01965714285716
1406.92,31.628930000000025
1408.98,41.668216190476215
1411.04,34.99326142857146
1413.09,51.507505714285784
1415.15,86.06628619047625
1417.2,109.19166476190483
1419.25,106.97692857142864
1421.3,138.42026666666675
1423.35,131.28154761904767
1425.4,142.46366666666674
1427.45,130.58314285714292
1429.49,127.58995238095244
1431.54,110.24345238095245
1433.58,112.82709523809528
1435.62,102.57637619047625
1437.66,85.20287619047622
1439.7,77.7512714285715
1441.74,88.5998428571429
1443.77,73.46010952380956
1445.81,61.75790000000004
1447.84,71.01421428571432
1449.87,65.08302380952387
1451.9,78.10401428571434
1453.93,98.07407619047625
1455.96,108.79999047619054
1457.98,137.1356857142858
1460.01,167.74467619047633
1462.03,210.05262857142873
1464.05,237.3896190476192
1466.07,289.7524761904764
1468.09,337.13823809523836
1470.11,412.63890476190505
1472.13,450.9653809523812
1474.14,499.44823809523837
1476.16,515.3227619047623
1478.17,534.0618571428574
1480.18,473.8530952380954
1482.19,406.4554285714288
1484.2,314.5800476190478
1486.21,234.74789523809534
1488.21,163.57546666666676
1490.22,135.8215047619048
1492.22,107.48375238095247
1494.22,97.74986666666675
1496.22,118.80775238095245
1498.22,117.36921619047622
1500.22,86.62235714285715
1502.22,53.37438285714286
1504.21,22.432732380952384
1506.21,8.176110476190505
1508.2,19.411993333333356
1510.19,37.23376666666669
1512.18,27.734850476190474
1514.17,15.151633333333344
1516.16,19.482574285714307
1518.14,23.34526476190478
1520.13,26.88122952380955
1522.11,46.51787809523811
1524.09,49.63508000000004
1526.07,41.56517952380955
1528.05,40.54547523809525
1530.03,36.57519952380956
1532.01,33.653743809523846
1533.98,47.732948095238136
1535.96,71.52670285714291
1537.93,70.36798095238099
1539.9,69.30418571428577
1541.87,72.4780428571429
1543.84,88.79415714285722
1545.81,104.20501428571436
1547.78,103.5202428571429
1549.74,111.07348095238103
1551.7,132.5793142857144
1553.67,138.13305714285724
1555.63,158.87789523809533
1557.59,165.48111428571434
1559.55,140.94342857142865
1561.5,150.1704285714287
1563.46,152.5913333333334
1565.41,162.39704761904773
1567.37,164.2075238095239
1569.32,159.16614285714297
1571.27,160.60742857142867
1573.22,175.5324761904763
1575.17,171.79952380952392
1577.11,177.64766666666677
1579.06,162.9830000000001
1581.0,154.04433333333344
1582.95,151.1185714285715
1584.89,153.92147619047628
1586.83,154.1685714285715
1588.77,146.575380952381
1590.7,126.90519047619054
1592.64,126.01638095238101
1594.58,124.26735714285738
1596.51,154.63592857142902
1598.44,236.62359523809616
