Raman Shift,Processed Intensity
331.095,102.70963571428523
333.909,-1.1746809523811663
336.721,-22.780880952381054
339.531,4.842119047619089
342.339,32.62131428571433
345.145,73.86506666666669
347.949,59.0017380952381
350.751,40.88903809523811
353.55,4.33792380952381
356.348,-6.649242857142847
359.144,6.121247619047653
361.937,26.74898095238098
364.729,55.14386666666674
367.518,103.64565238095247
370.306,166.54778571428585
373.091,248.90639523809543
375.874,336.7312476190478
378.656,337.0336095238097
381.435,274.0634190476191
384.212,151.97710476190483
386.988,61.36115714285718
389.761,17.183942857142892
392.532,-3.5844999999999945
395.301,18.02750761904764
398.068,28.611726666666666
400.833,7.1902771428571475
403.596,15.024906666666666
406.358,-1.5258752380952672
409.117,-26.387623333333327
411.874,-30.865188571428597
414.629,-32.642757619047636
417.382,-45.54573952380954
420.133,-11.77884809523808
422.882,19.16898333333338
425.629,61.62015238095243
428.374,107.42191380952389
431.117,148.18526476190485
433.858,167.6174095238096
436.597,187.90359047619057
439.334,162.0394571428572
442.069,138.355561904762
444.802,109.18314285714291
447.533,111.9024000000001
450.262,138.13266666666678
452.989,182.39932380952393
455.714,188.79983809523821
458.438,206.86140952380958
461.159,174.06458095238102
463.878,149.9854952380953
466.595,113.24915238095242
469.31,98.57621428571433
472.024,63.92629047619052
474.735,50.30728095238099
477.444,67.0137190476191
480.152,79.76881428571433
482.857,78.86794761904767
485.561,105.89278095238102
488.262,123.56800952380961
490.962,140.57164761904772
493.659,160.96282857142867
496.355,161.03890476190486
499.048,124.33565714285719
501.74,103.38926666666673
504.43,103.30743809523817
507.118,104.67460000000007
509.804,124.17032380952391
512.488,164.6648476190477
515.17,194.314142857143
517.85,222.17895238095252
520.528,227.46309523809532
523.204,215.6559523809525
525.878,199.43761904761914
528.551,193.5355238095239
531.221,183.9624285714287
533.89,190.77886666666674
536.556,155.14046190476193
539.221,137.01201904761913
541.883,115.40649047619053
544.544,99.05011428571436
547.203,100.2404142857144
549.86,152.60810476190485
552.515,170.02166666666676
555.168,174.39690476190484
557.819,182.69723809523822
560.469,189.31352380952393
563.116,212.2086190476192
565.761,229.391761904762
568.405,219.44361904761914
571.047,170.04000000000008
573.687,145.37933333333342
576.324,143.46957142857153
578.96,165.93719047619055
581.594,171.26547619047628
584.227,152.69883333333343
586.857,143.10047619047626
589.485,131.33292857142865
592.112,150.06780952380964
594.737,161.2615952380953
597.359,191.72804761904774
599.98,196.899142857143
602.599,246.25376190476203
605.216,244.2703333333335
607.831,272.2836666666668
610.445,236.81861904761917
613.056,195.58990476190485
615.666,161.12161904761916
618.274,183.12733333333347
620.88,205.3678095238097
623.484,278.2700476190478
626.086,331.2128095238098
628.686,379.5740000000003
631.284,434.15990476190507
633.881,482.5855714285717
636.476,521.4656190476194
639.068,544.1284761904765
641.659,516.1400952380955
644.249,457.58952380952405
646.836,395.6611904761906
649.421,315.8718857142859
652.005,229.2620542857144
654.587,147.49079000000003
657.166,66.9784704761905
659.745,23.240500476190523
662.321,23.220780000000033
664.895,31.053009047619064
667.468,27.870887619047632
670.038,27.855638095238138
672.607,64.18782857142865
675.174,103.9530571428572
677.739,144.1892895238096
680.303,127.64826809523812
682.864,98.74856000000004
685.424,53.62313666666668
687.982,23.785498095238104
690.538,-0.012229999999990637
693.092,0.982153333333328
695.645,-10.431753333333317
698.195,22.022226666666683
700.744,30.572784761904764
703.291,8.734563809523799
705.836,-8.977640952380963
708.38,-19.048685714285703
710.921,-4.248909523809477
713.461,57.746947619047674
715.999,90.93089047619051
718.535,110.4384190476191
721.069,118.88108571428577
723.602,98.82326666666671
726.133,91.82980000000005
728.662,80.94167619047623
731.189,52.628690476190535
733.714,82.21853333333341
736.238,120.70519047619055
738.759,134.74972285714293
741.279,120.96611095238099
743.798,82.39675523809525
746.314,44.17974619047623
748.829,40.263121904761945
751.342,45.35672523809528
753.853,75.02788952380958
756.362,85.08216666666674
758.869,112.4208333333334
761.375,138.89767619047626
763.879,132.7476428571429
766.381,102.9201428571429
768.882,120.41235714285723
771.38,138.7930476190477
773.877,165.86972857142865
776.372,156.54499047619052
778.866,133.62655238095243
781.357,107.06486666666675
783.847,121.28702857142868
786.335,132.00613333333342
788.821,153.50670476190487
791.306,159.83561904761916
793.789,181.754142857143
796.27,229.7376190476192
798.749,264.8807619047621
801.227,301.51704761904784
803.702,325.2177142857145
806.176,352.2211904761907
808.649,354.48009523809543
811.119,353.5662380952383
813.588,340.8611428571431
816.055,334.74671428571446
818.521,320.03357142857163
820.984,326.72271428571446
823.446,286.57728571428584
825.906,250.88409523809537
828.365,223.07376190476202
830.821,228.14752380952393
833.276,227.7264285714287
835.729,245.52676190476203
838.181,213.69347619047633
840.631,196.41914285714296
843.079,181.89709523809537
845.525,204.41500000000013
847.97,208.02298095238106
850.412,191.2951952380953
852.854,157.61548571428582
855.293,141.31994761904772
857.731,143.07862857142868
860.167,149.89414761904771
862.601,166.5796000000001
865.034,184.51924857142868
867.465,146.14505571428577
869.894,134.7458257142858
872.321,118.23017761904768
874.747,104.55401619047628
877.171,121.14991285714297
879.594,157.6406295238096
882.014,141.64909523809533
884.433,143.6555714285715
886.851,162.18780952380965
889.266,184.24980952380963
891.68,200.41709523809536
894.092,194.59861904761914
896.503,203.9412380952382
898.912,185.97333333333341
901.319,191.50852380952395
903.724,193.31300000000013
906.128,208.39128571428586
908.53,207.55738095238107
910.931,227.05361904761918
913.329,204.50352380952393
915.726,194.3400000000001
918.122,179.42461904761916
920.516,166.66628571428583
922.908,153.78361904761914
925.298,139.35271428571434
927.687,117.56833333333343
930.074,140.62545714285724
932.459,130.29024285714294
934.843,128.70967619047627
937.225,131.79280476190482
939.605,126.11534285714295
941.984,123.15767142857152
944.361,137.1142190476191
946.736,106.7033952380953
949.11,96.31020476190481
951.482,74.41490952380957
953.853,65.49746190476196
956.222,70.03814761904769
958.589,92.75439523809531
960.954,116.93589523809533
963.318,142.776761904762
965.68,151.994761904762
968.041,159.11683809523817
970.4,133.86090000000004
972.757,98.75358190476193
975.113,54.32197000000001
977.467,25.759597142857164
979.819,15.116906190476225
982.17,42.30113428571431
984.519,40.17221666666669
986.866,47.446851428571456
989.212,51.55604380952386
991.556,61.835260000000055
993.899,93.04818952380961
996.24,132.72079904761912
998.579,130.52122857142865
1000.92,142.64149523809533
1003.25,121.08325714285718
1005.59,88.466680952381
1007.92,91.22114285714292
1010.25,92.5858333333334
1012.58,91.32297619047625
1014.91,100.1949285714286
1017.24,76.10680000000005
1019.56,61.725295238095285
1021.88,59.0979047619048
1024.2,58.367195238095285
1026.52,72.389880952381
1028.84,85.64156666666673
1031.16,106.74034285714293
1033.48,136.1140904761906
1035.79,160.1426380952382
1038.1,185.91985714285727
1040.41,202.30157142857155
1042.72,186.47690476190485
1045.03,173.5866666666668
1047.33,156.39138095238104
1049.64,138.69880952380962
1051.94,123.98300000000009
1054.24,135.1940476190477
1056.54,123.23480952380962
1058.84,143.95990476190488
1061.13,147.08109523809532
1063.43,134.02471428571437
1065.72,137.93085714285726
1068.01,157.32061904761915
1070.3,167.85804761904774
1072.59,177.01661904761912
1074.87,159.17395238095247
1077.16,152.08919047619057
1079.44,172.2829047619049
1081.72,174.03814285714301
1084.0,231.4467619047621
1086.28,296.4104761904764
1088.56,369.6400952380955
1090.84,463.7990000000003
1093.11,539.3600476190479
1095.38,548.5582380952385
1097.65,535.8663333333336
1099.92,476.8047619047622
1102.19,391.7510000000002
1104.46,349.6537142857145
1106.72,312.70023809523826
1108.98,318.0775714285717
1111.24,325.73457142857166
1113.5,361.5252857142859
1115.76,402.7793809523812
1118.02,443.11238095238116
1120.28,444.14033333333356
1122.53,421.81204761904775
1124.78,390.0766666666669
1127.03,380.7404761904764
1129.28,376.6572380952383
1131.53,335.9665714285716
1133.77,290.85585714285725
1136.02,213.17914285714295
1138.26,168.3619047619049
1140.5,172.68676190476208
1142.74,220.0559047619049
1144.98,252.84719047619063
1147.22,280.3434761904763
1149.45,268.5899047619049
1151.69,258.58376190476207
1153.92,251.56066666666683
1156.15,250.042142857143
1158.38,230.83514285714298
1160.61,199.60428571428577
1162.83,159.1090952380953
1165.06,144.3955238095239
1167.28,133.46130476190484
1169.5,120.97161428571437
1171.72,121.68651428571438
1173.94,120.98571904761911
1176.16,124.72475238095245
1178.37,120.759780952381
1180.58,95.99420952380954
1182.8,61.85585238095243
1185.01,33.72465714285717
1187.22,43.695276190476235
1189.42,36.38636190476192
1191.63,41.654714285714306
1193.84,23.97641428571429
1196.04,31.16107142857146
1198.24,45.73275238095242
1200.44,56.83478095238095
1202.64,36.03919523809526
1204.84,27.06118095238096
1207.03,29.425419047619094
1209.23,51.2761247619048
1211.42,63.709910476190494
1213.61,48.1092304761905
1215.8,35.42816571428573
1217.99,25.620930476190516
1220.18,50.97501047619052
1222.36,72.15930571428575
1224.55,60.461638095238115
1226.73,62.64611428571432
1228.91,58.57222380952385
1231.09,64.48041904761911
1233.27,73.13511428571434
1235.44,104.01478095238102
1237.62,105.74119047619054
1239.79,116.88853333333341
1241.96,119.0306476190477
1244.13,138.88454285714295
1246.3,148.31008571428583
1248.47,203.3574190476192
1250.64,242.9820476190478
1252.8,282.71057142857165
1254.96,327.2122380952383
1257.13,382.966285714286
1259.29,428.7854761904765
1261.44,483.10095238095266
1263.6,518.7255238095241
1265.76,513.6620000000003
1267.91,475.34161904761925
1270.06,416.24404761904776
1272.22,351.99123809523826
1274.37,297.8717619047621
1276.51,265.6982857142858
1278.66,218.3312857142858
1280.81,187.58304761904773
1282.95,167.83790476190487
1285.09,177.0032380952382
1287.23,186.03466666666677
1289.37,209.93500000000012
1291.51,218.7074761904763
1293.65,198.26009523809532
1295.78,184.8814761904763
1297.92,175.43157142857152
1300.05,160.0564761904763
1302.18,189.5686190476192
1304.31,197.63714285714295
1306.44,182.5036666666668
1308.57,188.50395238095246
1310.69,180.83128571428585
1312.82,177.1080000000001
1314.94,190.19380952380962
1317.06,204.18661904761922
1319.18,224.13690476190493
1321.3,245.61847619047634
1323.41,266.7293809523811
1325.53,271.18647619047636
1327.64,281.56357142857166
1329.75,338.38704761904785
1331.87,358.99261904761926
1333.98,376.5253809523811
1336.08,343.892761904762
1338.19,290.09680952380967
1340.3,267.8538095238097
1342.4,262.6422380952382
1344.5,230.55938095238108
1346.6,231.94038095238108
1348.7,196.6444761904763
1350.8,162.86366666666675
1352.9,146.02819047619056
1354.99,147.663761904762
1357.09,144.39103809523817
1359.18,139.97356190476197
1361.27,145.12683809523818
1363.36,125.42358095238103
1365.45,128.43645714285725
1367.54,153.4998000000001
1369.62,163.9480380952382
1371.7,173.6869523809525
1373.79,195.28866666666676
1375.87,210.42071428571444
1377.95,223.65514285714298
1380.03,218.42080952380962
1382.1,212.38474285714295
1384.18,195.5473476190477
1386.25,157.4801857142858
1388.33,113.7072285714286
1390.4,79.70457619047625
1392.47,71.42427619047625
1394.54,75.53272857142862
1396.6,68.21993333333336
1398.67,63.485300000000024
1400.74,43.80431428571433
1402.8,58.176090476190524
1404.86,80.40917619047622
1406.92,57.64526666666668
1408.98,53.264276190476224
1411.04,51.455209523809565
1413.09,64.78792857142864
1415.15,104.9276000000001
1417.2,136.77745714285723
1419.25,137.526461904762
1421.3,165.93480952380963
1423.35,153.19087142857154
1425.4,146.7687238095239
1427.45,128.90448571428576
1429.49,92.02477142857147
1431.54,74.31809523809531
1433.58,85.63926666666673
1435.62,86.4144714285715
1437.66,109.40315238095243
1439.7,115.88878571428577
1441.74,97.05939523809529
1443.77,91.91249047619053
1445.81,75.49319523809528
1447.84,64.79884285714292
1449.87,66.25531428571432
1451.9,79.33608571428576
1453.93,66.41950952380958
1455.96,99.26474285714292
1457.98,110.29765238095244
1460.01,128.32498095238105
1462.03,166.20074285714298
1464.05,218.96998095238112
1466.07,257.772523809524
1468.09,323.74857142857167
1470.11,395.32366666666695
1472.13,449.49514285714315
1474.14,515.6406190476193
1476.16,533.7577142857145
1478.17,543.7955714285717
1480.18,487.560904761905
1482.19,429.622142857143
1484.2,336.6430952380954
1486.21,241.1923238095239
1488.21,142.02913333333342
1490.22,111.29336190476197
1492.22,81.22043809523818
1494.22,97.3789714285715
1496.22,107.38507619047625
1498.22,91.18863333333337
1500.22,61.59644504761907
1502.22,33.79611671428572
1504.21,5.737668190476205
1506.21,10.132646619047634
1508.2,19.9310243809524
1510.19,25.416021000000015
1512.18,16.775733619047628
1514.17,33.817169047619075
1516.16,39.15722238095241
1518.14,37.174619047619075
1520.13,44.1053204761905
1522.11,55.85199380952385
1524.09,47.746002857142905
1526.07,67.59482523809527
1528.05,45.063470476190474
1530.03,19.340728571428592
1532.01,19.66311904761908
1533.98,36.219666666666704
1535.96,51.485290476190514
1537.93,59.41119523809526
1539.9,58.996319809523854
1541.87,46.192163142857176
1543.84,49.95026914285718
1545.81,63.3176330476191
1547.78,83.72225009523817
1549.74,97.83021076190484
1551.7,125.16531028571434
1553.67,120.53680952380961
1555.63,127.1350000000001
1557.59,153.10261904761916
1559.55,160.5350476190477
1561.5,188.90836190476202
1563.46,176.17557619047625
1565.41,170.43215238095246
1567.37,159.44051904761912
1569.32,159.67734285714297
1571.27,154.47676666666678
1573.22,173.98231428571435
1575.17,156.67085714285724
1577.11,157.73361904761913
1579.06,141.3620952380953
1581.0,126.9382857142858
1582.95,116.89190476190484
1584.89,127.22419047619057
1586.83,133.98347619047627
1588.77,149.55209523809532
1590.7,146.64576190476197
1592.64,140.50376190476197
1594.58,130.62773809523821
1596.51,130.3998809523812
1598.44,148.8215238095243
