Raman Shift,Processed Intensity
331.095,39.62695714285699
333.909,-16.084628571428738
336.721,-13.233132142857293
339.531,18.79937142857146
342.339,41.55906904761907
345.145,32.854502857142855
347.949,15.685752857142857
350.751,-11.18420857142858
353.55,-26.324848095238103
356.348,-13.685556190476168
359.144,16.64251714285718
361.937,45.378802857142915
364.729,78.52976190476195
367.518,106.3407476190477
370.306,129.34444761904774
373.091,223.5981476190478
375.874,311.9702666666668
378.656,335.80677142857155
381.435,294.7883047619049
384.212,205.92981428571431
386.988,83.24807142857148
389.761,26.189404761904772
392.532,-19.13139523809525
395.301,-30.931266666666666
398.068,-30.37812380952382
400.833,-20.257338095238104
403.596,-21.97168666666668
406.358,-13.44615523809525
409.117,-20.65180285714286
411.874,-14.367570952380959
414.629,1.9148161904762002
417.382,0.7528061904761891
420.133,6.419603809523836
422.882,38.71370142857147
425.629,50.95865333333339
428.374,92.62246666666677
431.117,143.93602857142866
433.858,168.7032000000001
436.597,192.15761428571437
439.334,186.77197142857148
442.069,147.87705714285724
444.802,132.3766857142858
447.533,109.36586666666675
450.262,126.41683809523822
452.989,173.91217142857158
455.714,220.092542857143
458.438,230.24693333333343
461.159,185.2368571428572
463.878,127.06727619047625
466.595,74.1247285714286
469.31,36.79641904761908
472.024,49.517928571428605
474.735,61.72548095238099
477.444,44.76058095238099
480.152,71.20323333333339
482.857,107.53875714285721
485.561,117.96730000000007
488.262,122.02247619047625
490.962,133.38162857142862
493.659,86.62669047619052
496.355,73.34015238095245
499.048,93.15230000000005
501.74,93.16979523809529
504.43,86.21373333333341
507.118,124.48669047619055
509.804,133.23864761904773
512.488,167.9103952380954
515.17,206.08580000000012
517.85,219.39600000000013
520.528,187.3290000000001
523.204,181.18295238095249
525.878,164.97000000000008
528.551,152.1304761904763
531.221,159.15290476190486
533.89,175.191761904762
536.556,154.83019047619058
539.221,142.98461904761913
541.883,135.04714285714294
544.544,114.83833333333341
547.203,114.46428571428581
549.86,142.31638095238108
552.515,144.11938095238102
555.168,152.69271428571437
557.819,172.66495238095249
560.469,181.71219047619059
563.116,199.6526666666668
565.761,227.9711904761906
568.405,192.056761904762
571.047,170.0600476190477
573.687,151.89325714285724
576.324,115.84887619047626
578.96,131.88575238095248
581.594,149.581361904762
584.227,125.79813333333341
586.857,134.30297142857154
589.485,146.00544761904771
592.112,162.95671428571444
594.737,212.25590476190487
597.359,218.09666666666678
599.98,212.0524761904763
602.599,228.9351904761906
605.216,209.50795238095247
607.831,230.3429047619049
610.445,251.63123809523822
613.056,218.75380952380962
615.666,223.4238571428573
618.274,231.54504761904775
620.88,229.21080952380973
623.484,266.6093333333335
626.086,315.88090476190496
628.686,378.3078571428574
631.284,450.7434285714289
633.881,529.6114761904765
636.476,568.9076190476193
639.068,558.2930000000002
641.659,500.5717142857145
644.249,461.02280952380977
646.836,365.73519047619067
649.421,315.79673333333346
652.005,239.5813857142858
654.587,170.0337952380953
657.166,115.47931904761911
659.745,99.09976666666671
662.321,69.17254190476196
664.895,50.97438714285716
667.468,39.734526666666696
670.038,41.15807476190479
672.607,41.52151714285718
675.174,54.053587142857175
677.739,51.2686942857143
680.303,35.63363333333337
682.864,64.66298571428577
685.424,69.9186742857143
687.982,53.62960523809526
690.538,31.21521047619045
693.092,-13.857243333333345
695.645,-20.120244761904736
698.195,9.036863809523814
700.744,20.12948714285715
703.291,10.19733285714284
705.836,0.1850804761904694
708.38,-9.200353809523799
710.921,-6.823200952380942
713.461,16.21451142857146
715.999,44.049169047619074
718.535,50.579414285714336
721.069,87.13256428571435
723.602,115.70315714285721
726.133,97.619180952381
728.662,80.58990000000001
731.189,65.27715809523812
733.714,32.390691428571465
736.238,35.30697809523814
738.759,57.11728952380956
741.279,65.00821142857147
743.798,68.35712000000005
746.314,91.39853428571433
748.829,100.4151952380953
751.342,94.68967142857149
753.853,101.17162380952388
756.362,109.81081428571433
758.869,112.84296190476198
761.375,124.36100476190482
763.879,136.07731428571435
766.381,131.0373714285715
768.882,123.71603809523816
771.38,117.30237619047624
773.877,83.84278571428575
776.372,65.47917619047624
778.866,70.21049047619053
781.357,69.46424285714289
783.847,68.14475238095243
786.335,79.82313333333337
788.821,74.68965238095247
791.306,117.74402857142869
793.789,160.51012857142868
796.27,191.940542857143
798.749,227.70233333333348
801.227,248.03433333333345
803.702,259.31780952380973
806.176,291.07714285714303
808.649,290.5038571428573
811.119,302.3134285714288
813.588,310.6020000000002
816.055,295.0377142857144
818.521,282.8595714285716
820.984,267.49790476190486
823.446,231.47814285714298
825.906,208.23089523809537
828.365,173.42425238095248
830.821,139.96512380952387
833.276,122.56950952380959
835.729,121.28731428571437
838.181,135.35834761904772
840.631,150.4521333333334
843.079,144.23738095238105
845.525,131.7643333333334
847.97,127.51161904761912
850.412,119.43428571428579
852.854,118.24904761904769
855.293,112.00642857142863
857.731,108.70910476190483
860.167,103.07434285714292
862.601,102.86687619047626
865.034,115.56574285714291
867.465,104.8407952380953
869.894,98.31413333333339
872.321,110.08401428571435
874.747,104.62973809523815
877.171,84.04967142857149
879.594,99.96590000000006
882.014,97.5246571428572
884.433,108.77690000000007
886.851,140.39263809523817
889.266,150.70842857142867
891.68,166.34661904761916
894.092,170.69123809523822
896.503,200.45980952380967
898.912,198.9417142857144
901.319,191.42604761904772
903.724,162.0112857142858
906.128,178.70072380952388
908.53,136.11662857142866
910.931,172.50025714285727
913.329,180.5697523809525
915.726,193.89944761904772
918.122,192.3971523809525
920.516,204.63762857142865
922.908,153.10023809523818
925.298,137.4072857142858
927.687,128.22880952380962
930.074,139.23418095238102
932.459,143.14065238095247
934.843,133.61797619047624
937.225,125.76442380952388
939.605,104.9161952380953
941.984,109.0762714285715
944.361,113.34233809523815
946.736,115.28851428571434
949.11,111.63167619047627
951.482,116.37474285714292
953.853,106.42480952380959
956.222,97.498780952381
958.589,79.40832380952386
960.954,69.060280952381
963.318,93.31410476190484
965.68,121.40980476190484
968.041,132.9209590476191
970.4,105.23037809523812
972.757,68.9588561904762
975.113,39.5842647619048
977.467,40.72735619047623
979.819,49.722595238095266
982.17,44.381061904761914
984.519,22.18008190476192
986.866,13.311206666666697
989.212,35.632700952381
991.556,68.81178857142864
993.899,104.13504095238102
996.24,137.8887904761906
998.579,144.31155714285723
1000.92,146.26070476190483
1003.25,135.83193809523817
1005.59,101.78697142857149
1007.92,87.36424285714291
1010.25,101.84916190476197
1012.58,95.14632380952388
1014.91,99.82656190476197
1017.24,121.22314285714292
1019.56,125.19251428571437
1021.88,120.16293809523818
1024.2,121.70484761904768
1026.52,125.29389047619054
1028.84,102.30995238095247
1031.16,135.56160476190487
1033.48,163.52399047619056
1035.79,161.243742857143
1038.1,180.6242285714287
1040.41,219.61665714285726
1042.72,224.21985714285728
1045.03,243.47985714285724
1047.33,226.25238095238103
1049.64,187.53585714285725
1051.94,168.56676190476202
1054.24,170.86728571428583
1056.54,177.38823809523822
1058.84,189.93740000000008
1061.13,163.08428095238105
1063.43,153.25551428571438
1065.72,151.25895714285724
1068.01,172.61646666666678
1070.3,197.2780904761906
1072.59,216.67054285714295
1074.87,200.8392380952382
1077.16,207.35361904761916
1079.44,216.97390476190492
1081.72,237.31671428571445
1084.0,278.80861904761923
1086.28,326.8281428571431
1088.56,403.3728571428574
1090.84,498.250666666667
1093.11,592.6971428571431
1095.38,634.8528571428574
1097.65,599.6208095238098
1099.92,511.4266190476193
1102.19,425.22061904761927
1104.46,355.8104285714288
1106.72,302.24080952380973
1108.98,310.2719523809526
1111.24,317.90147619047644
1113.5,382.4605714285717
1115.76,438.6611904761907
1118.02,473.93000000000023
1120.28,474.97871428571455
1122.53,461.32928571428596
1124.78,402.2651904761907
1127.03,394.26052380952405
1129.28,331.6937619047621
1131.53,280.9921904761907
1133.77,259.01052380952393
1136.02,213.413761904762
1138.26,195.8666190476192
1140.5,232.12885714285724
1142.74,235.1506666666668
1144.98,252.3595714285716
1147.22,273.7533333333335
1149.45,267.1400000000002
1151.69,280.47052380952397
1153.92,302.07647619047634
1156.15,294.0990952380954
1158.38,268.2992857142859
1160.61,242.86568571428577
1162.83,191.41613809523818
1165.06,138.33049047619056
1167.28,130.797861904762
1169.5,122.81725238095247
1171.72,124.76876666666675
1173.94,135.27037142857148
1176.16,109.79746190476195
1178.37,77.92070952380956
1180.58,59.92524285714288
1182.8,50.572238095238134
1185.01,44.861414285714304
1187.22,51.887523809523834
1189.42,44.31700952380955
1191.63,56.62591904761908
1193.84,36.38560000000001
1196.04,38.02468571428574
1198.24,41.59093809523813
1200.44,31.13232857142858
1202.64,24.26837619047621
1204.84,29.142542857142868
1207.03,34.231976190476246
1209.23,64.91840476190482
1211.42,82.44097142857146
1213.61,66.80094761904765
1215.8,65.76155238095241
1217.99,54.943319047619084
1220.18,61.15750952380957
1222.36,73.7865904761905
1224.55,57.022866666666694
1226.73,45.10631428571432
1228.91,54.80079523809528
1231.09,58.06076190476194
1233.27,51.6502285714286
1235.44,65.04769523809529
1237.62,71.58886190476196
1239.79,90.8473238095239
1241.96,125.54002857142866
1244.13,164.19316190476204
1246.3,190.8093809523811
1248.47,232.0580952380954
1250.64,249.0848571428573
1252.8,279.03509523809544
1254.96,327.67376190476216
1257.13,381.47980952380976
1259.29,437.83728571428605
1261.44,502.4635714285717
1263.6,513.5518095238099
1265.76,493.9146190476193
1267.91,447.7930952380955
1270.06,370.571523809524
1272.22,306.9673333333335
1274.37,282.6027619047621
1276.51,253.90961904761917
1278.66,222.1767142857144
1280.81,197.4072380952382
1282.95,175.6995238095239
1285.09,174.1045238095239
1287.23,181.48233333333343
1289.37,182.69366666666676
1291.51,192.69414285714296
1293.65,196.82033333333345
1295.78,206.83709523809534
1297.92,205.46204761904772
1300.05,175.1744761904763
1302.18,175.7871904761906
1304.31,187.20814285714297
1306.44,195.8690000000001
1308.57,205.77266666666677
1310.69,197.20790476190484
1312.82,173.03504761904773
1314.94,177.59033333333346
1317.06,185.30504761904774
1319.18,210.61080952380968
1321.3,216.557761904762
1323.41,216.387142857143
1325.53,224.4825714285716
1327.64,242.22747619047638
1329.75,298.2910000000002
1331.87,352.81895238095257
1333.98,368.5753333333335
1336.08,341.51509523809534
1338.19,295.6881904761906
1340.3,243.90604761904774
1342.4,228.0278761904763
1344.5,186.7228190476191
1346.6,153.0878095238096
1348.7,101.93419523809527
1350.8,83.12121619047625
1352.9,47.84061857142861
1354.99,71.57013238095244
1357.09,96.12090047619054
1359.18,99.54173714285719
1361.27,104.16719476190484
1363.36,113.80804952380956
1365.45,87.84618095238102
1367.54,99.47293809523816
1369.62,125.02233333333342
1371.7,138.59002857142866
1373.79,148.9864571428572
1375.87,164.78333333333345
1377.95,180.83804761904773
1380.03,190.9128285714287
1382.1,179.76930476190486
1384.18,167.16901904761914
1386.25,115.25520000000007
1388.33,92.55103809523816
1390.4,79.48464285714292
1392.47,86.91285714285719
1394.54,71.31094285714288
1396.6,51.05882857142859
1398.67,37.7272066666667
1400.74,33.17191619047621
1402.8,15.725184761904778
1404.86,24.814207619047632
1406.92,7.199389523809528
1408.98,26.783925714285772
1411.04,58.18512571428576
1413.09,92.40110476190483
1415.15,90.71567619047623
1417.2,98.26972380952387
1419.25,93.63240000000008
1421.3,118.08738095238101
1423.35,124.53681904761912
1425.4,136.16882857142863
1427.45,104.98094285714289
1429.49,78.49445238095242
1431.54,68.37322857142861
1433.58,57.56710952380956
1435.62,68.45400000000005
1437.66,73.12640476190478
1439.7,60.819490476190516
1441.74,51.054095238095265
1443.77,45.922390476190515
1445.81,56.9929333333334
1447.84,82.64339047619052
1449.87,90.58492857142862
1451.9,102.24300476190481
1453.93,99.2810571428572
1455.96,85.12459047619056
1457.98,104.96090476190484
1460.01,126.97714285714298
1462.03,160.6937571428573
1464.05,229.72673333333347
1466.07,294.0730000000002
1468.09,351.3006190476193
1470.11,424.78757142857165
1472.13,459.4350952380955
1474.14,506.04961904761933
1476.16,549.6282380952384
1478.17,534.2630476190479
1480.18,477.1412380952383
1482.19,409.3554761904764
1484.2,324.09309523809543
1486.21,274.63695238095255
1488.21,221.07942857142865
1490.22,166.03679047619056
1492.22,116.98231428571435
1494.22,98.58012857142865
1496.22,82.54212380952384
1498.22,75.91318571428576
1500.22,51.02433809523812
1502.22,47.016309523809554
1504.21,51.64860952380957
1506.21,64.72868571428573
1508.2,36.683085714285724
1510.19,27.3194523809524
1512.18,31.874080952380986
1514.17,37.250090476190515
1516.16,56.636390476190506
1518.14,72.03153809523812
1520.13,58.1485047619048
1522.11,66.31942380952387
1524.09,71.87649523809526
1526.07,69.19965238095241
1528.05,67.38313809523811
1530.03,46.66418571428574
1532.01,42.28010000000005
1533.98,57.65872857142861
1535.96,55.98986190476195
1537.93,60.463366666666715
1539.9,77.64987619047625
1541.87,73.69187619047625
1543.84,100.8270476190477
1545.81,127.48361428571437
1547.78,133.56570476190487
1549.74,158.1682238095239
1551.7,175.10015238095247
1553.67,179.7899523809525
1555.63,174.18985714285725
1557.59,182.3474285714287
1559.55,180.88157142857156
1561.5,205.792142857143
1563.46,217.8886190476192
1565.41,216.6468095238096
1567.37,185.20980952380964
1569.32,189.72038095238108
1571.27,169.2266666666668
1573.22,174.061761904762
1575.17,179.70204761904773
1577.11,178.09990476190487
1579.06,167.87485714285725
1581.0,175.26533333333342
1582.95,171.55757142857152
1584.89,176.89442857142865
1586.83,178.70452380952395
1588.77,183.0360476190477
1590.7,176.31795238095248
1592.64,179.26528571428582
1594.58,185.8784523809525
1596.51,199.3243809523812
1598.44,221.60340476190524
