Raman Shift,Processed Intensity
331.095,121.38646190476146
333.909,21.020049999999742
336.721,4.470285714285609
339.531,35.52141904761911
342.339,67.24320000000003
345.145,77.25331428571432
347.949,70.50354761904764
350.751,40.51762380952382
353.55,27.391433333333378
356.348,53.126100000000044
359.144,58.15195714285719
361.937,83.8527047619048
364.729,94.99363809523817
367.518,109.4836666666668
370.306,196.85184761904782
373.091,298.1519142857145
375.874,367.8197142857145
378.656,354.2920952380953
381.435,300.9595476190477
384.212,191.9276452380953
386.988,83.16051904761908
389.761,25.052397619047653
392.532,13.23683333333335
395.301,11.205907142857187
398.068,39.12015714285715
400.833,37.85565714285714
403.596,3.6711571428571226
406.358,-32.98247619047622
409.117,-50.74790000000002
411.874,-59.789874285714326
414.629,-56.84275285714287
417.382,-24.40101428571428
420.133,-8.433608095238093
422.882,5.568448571428606
425.629,51.35395571428576
428.374,67.19696095238102
431.117,143.23065809523823
433.858,193.1133580952382
436.597,204.74280952380965
439.334,170.5419333333334
442.069,146.93486666666675
444.802,105.01406666666676
447.533,129.30181904761915
450.262,151.1787904761906
452.989,204.40712380952394
455.714,226.84564761904772
458.438,217.5923095238096
461.159,161.93686190476197
463.878,115.31230000000008
466.595,77.15292380952388
469.31,84.75052857142866
472.024,115.01716190476198
474.735,116.77010000000007
477.444,109.1129095238096
480.152,119.29310000000007
482.857,130.74895238095246
485.561,142.3957857142858
488.262,150.2920476190477
490.962,142.87766666666676
493.659,127.30695238095244
496.355,104.11614285714293
499.048,131.26995238095247
501.74,123.68609523809529
504.43,109.52023809523817
507.118,119.16704761904771
509.804,136.877761904762
512.488,174.14214285714303
515.17,213.16461904761917
517.85,232.76857142857156
520.528,220.5389523809525
523.204,217.72819047619058
525.878,208.39752380952393
528.551,237.22723809523825
531.221,238.8502857142859
533.89,262.75604761904776
536.556,254.0532380952382
539.221,215.51723809523818
541.883,155.35138095238102
544.544,119.28271428571435
547.203,121.46704761904772
549.86,136.20190476190487
552.515,171.26147619047632
555.168,196.03828571428585
557.819,209.54314285714298
560.469,209.26338095238108
563.116,214.16209523809536
565.761,197.34442857142867
568.405,186.7727142857144
571.047,184.31342857142866
573.687,179.83233333333342
576.324,161.33785714285722
578.96,159.64757142857152
581.594,184.05409523809539
584.227,181.0885238095239
586.857,194.75680952380964
589.485,194.6842380952382
592.112,183.35190476190488
594.737,195.90776190476203
597.359,224.21280952380965
599.98,221.12790476190492
602.599,237.65604761904777
605.216,233.27633333333347
607.831,250.32338095238111
610.445,238.98933333333346
613.056,207.22738095238105
615.666,176.18009523809533
618.274,158.7048571428573
620.88,189.99104761904783
623.484,247.94142857142873
626.086,313.8877619047621
628.686,376.25576190476215
631.284,411.23233333333354
633.881,459.90947619047654
636.476,525.4255714285717
639.068,537.2994285714288
641.659,539.1451428571431
644.249,483.242523809524
646.836,399.5373333333335
649.421,328.49947619047634
652.005,261.168942857143
654.587,184.63353047619057
657.166,106.12346857142863
659.745,38.678203809523836
662.321,25.38419114285717
664.895,17.423242809523835
667.468,14.643032285714295
670.038,27.98686909523812
672.607,40.635616095238134
675.174,64.24625328571433
677.739,76.6660787619048
680.303,73.02804285714289
682.864,52.56026761904766
685.424,39.25280095238097
687.982,33.19082752380954
690.538,24.12628204761905
693.092,14.5254202857143
695.645,7.283227952380956
698.195,13.628095523809527
700.744,1.9790877619047569
703.291,-7.673112476190484
705.836,-16.48043333333333
708.38,3.024480952380964
710.921,11.452190476190484
713.461,3.270599999999993
715.999,13.805128571428584
718.535,9.191019047619058
721.069,27.944842857142902
723.602,62.345380952380985
726.133,67.62413809523811
728.662,59.0129047619048
731.189,52.886661904761915
733.714,45.049119047619094
736.238,57.25692380952384
738.759,69.83825714285719
741.279,80.21683809523816
743.798,81.00710000000002
746.314,73.7284952380953
748.829,86.23395238095243
751.342,87.56736190476195
753.853,73.67746190476194
756.362,80.89428571428576
758.869,62.02417142857147
761.375,58.25470952380957
763.879,81.53553809523814
766.381,103.0547571428572
768.882,89.23870952380958
771.38,96.41876190476195
773.877,83.64073809523813
776.372,63.52207142857148
778.866,82.10891904761911
781.357,89.82876666666671
783.847,59.156785714285746
786.335,71.23507619047625
788.821,99.01526666666675
791.306,106.63988095238105
793.789,137.77546666666677
796.27,169.32665238095248
798.749,193.0077333333335
801.227,249.96193809523828
803.702,284.713342857143
806.176,299.8340952380954
808.649,306.6106190476192
811.119,317.18671428571446
813.588,327.46795238095257
816.055,332.2177619047621
818.521,303.913523809524
820.984,280.03285714285727
823.446,247.43471428571442
825.906,213.26357142857154
828.365,190.90200000000013
830.821,186.54280952380964
833.276,171.61623809523817
835.729,136.1245714285715
838.181,137.73719047619056
840.631,161.45619047619059
843.079,174.14128571428583
845.525,200.22342857142866
847.97,202.0386000000001
850.412,160.20874285714294
852.854,136.11777142857153
855.293,140.95931428571436
857.731,108.30766190476197
860.167,105.59400000000005
862.601,113.39318571428578
865.034,128.7562476190477
867.465,131.63866666666678
869.894,147.94870476190482
872.321,131.832461904762
874.747,114.48364761904769
877.171,113.81049047619058
879.594,136.72156190476198
882.014,135.5060476190477
884.433,141.26257142857153
886.851,162.80438095238105
889.266,168.23033333333345
891.68,191.21057142857154
894.092,185.27242857142863
896.503,182.7531904761906
898.912,165.1800476190477
901.319,169.17609523809534
903.724,189.69733333333346
906.128,209.31876190476203
908.53,186.85338095238106
910.931,205.30473333333344
913.329,163.72409047619055
915.726,133.44860952380964
918.122,151.8626238095239
920.516,137.303180952381
922.908,130.8214238095239
925.298,131.325280952381
927.687,123.67547619047629
930.074,144.92316666666676
932.459,169.11885714285722
934.843,166.98043333333342
937.225,159.5586047619048
939.605,113.61841904761913
941.984,118.35338571428579
944.361,126.95725238095244
946.736,109.67066666666673
949.11,119.83005238095245
951.482,119.1525190476191
953.853,110.11676666666673
956.222,118.29680952380959
958.589,105.1238190476191
960.954,103.17149047619054
963.318,103.72786190476197
965.68,112.70016666666675
968.041,132.18539523809528
970.4,112.70940952380957
972.757,84.41691904761909
975.113,79.59523333333335
977.467,63.62701428571434
979.819,47.4661785714286
982.17,48.066304761904775
984.519,29.857211904761925
986.866,31.60189523809528
989.212,48.872664285714336
991.556,73.86105714285719
993.899,87.85331904761912
996.24,138.08796190476198
998.579,165.27992857142868
1000.92,161.47718571428578
1003.25,127.58469523809529
1005.59,95.22191904761911
1007.92,59.62660000000007
1010.25,92.46517619047626
1012.58,116.16610000000006
1014.91,97.25273809523813
1017.24,73.29606666666672
1019.56,78.86709047619053
1021.88,89.10760000000009
1024.2,115.30247619047627
1026.52,139.21281904761912
1028.84,132.17065238095248
1031.16,146.50807619047632
1033.48,161.89087142857153
1035.79,209.60280000000012
1038.1,219.73776190476204
1040.41,225.6753809523811
1042.72,201.55661904761917
1045.03,210.66533333333345
1047.33,209.33319047619062
1049.64,216.6530000000001
1051.94,190.05142857142866
1054.24,171.14561904761914
1056.54,140.55238095238107
1058.84,162.31747619047633
1061.13,190.8667142857144
1063.43,187.3409523809525
1065.72,193.54695238095252
1068.01,203.76804761904776
1070.3,205.76376190476205
1072.59,215.96023809523822
1074.87,221.87833333333344
1077.16,215.84942857142875
1079.44,231.34647619047632
1081.72,241.60500000000016
1084.0,270.4798571428573
1086.28,331.49180952380976
1088.56,415.35233333333366
1090.84,519.2493809523812
1093.11,598.9897142857146
1095.38,608.7133333333336
1097.65,556.894047619048
1099.92,492.3860476190479
1102.19,425.7578095238097
1104.46,379.102285714286
1106.72,366.5594761904764
1108.98,347.9837619047621
1111.24,337.8011904761907
1113.5,361.72338095238115
1115.76,384.27147619047645
1118.02,442.1575714285717
1120.28,506.56909523809554
1122.53,492.8849523809526
1124.78,437.5312380952383
1127.03,380.88638095238116
1129.28,302.09095238095256
1131.53,261.9046666666668
1133.77,246.18233333333347
1136.02,216.20780952380966
1138.26,194.3121904761906
1140.5,217.49347619047634
1142.74,223.36876190476207
1144.98,229.9365714285716
1147.22,257.19485714285736
1149.45,293.38009523809546
1151.69,310.58604761904786
1153.92,322.5733333333335
1156.15,301.53085714285726
1158.38,260.69557142857155
1160.61,228.58980952380963
1162.83,193.64147619047628
1165.06,153.18309523809532
1167.28,132.1184095238096
1169.5,119.01821428571435
1171.72,109.6436971428572
1173.94,84.9945304761905
1176.16,71.30893714285719
1178.37,66.96747428571433
1180.58,81.82711809523816
1182.8,82.0786447619048
1185.01,82.34138761904764
1187.22,58.71106666666668
1189.42,25.855119047619056
1191.63,16.91704285714288
1193.84,18.421685714285726
1196.04,31.560719047619095
1198.24,54.62121428571433
1200.44,57.652347619047625
1202.64,36.798695238095256
1204.84,30.06216190476192
1207.03,28.92103904761909
1209.23,40.472818571428604
1211.42,47.43416238095239
1213.61,21.093310476190474
1215.8,9.119546190476203
1217.99,12.229898095238125
1220.18,32.85577571428574
1222.36,53.80964142857147
1224.55,50.80872380952383
1226.73,58.80862380952385
1228.91,56.812228571428605
1231.09,64.77509047619053
1233.27,74.31942380952385
1235.44,73.25798571428575
1237.62,70.40340000000006
1239.79,108.75913809523817
1241.96,125.42349047619058
1244.13,133.20960476190487
1246.3,167.02560952380963
1248.47,178.35057142857156
1250.64,206.66414285714302
1252.8,254.9220476190478
1254.96,300.889523809524
1257.13,347.71290476190495
1259.29,419.20504761904795
1261.44,470.46419047619077
1263.6,499.82714285714314
1265.76,484.2499523809526
1267.91,434.30738095238115
1270.06,352.19295238095253
1272.22,298.4814285714287
1274.37,237.08090476190492
1276.51,204.75642857142867
1278.66,180.36866666666674
1280.81,153.20661904761914
1282.95,125.8922857142858
1285.09,141.42885714285723
1287.23,142.86728571428583
1289.37,163.21042857142868
1291.51,192.08057142857152
1293.65,186.00461904761914
1295.78,181.080761904762
1297.92,169.54990476190486
1300.05,155.03419047619056
1302.18,167.25052380952394
1304.31,172.77342857142867
1306.44,170.27238095238104
1308.57,168.8455238095239
1310.69,158.5427142857144
1312.82,156.65247619047628
1314.94,163.84385714285722
1317.06,169.97642857142873
1319.18,196.3859523809525
1321.3,221.0273809523811
1323.41,234.14080952380968
1325.53,263.39542857142874
1327.64,262.93600000000015
1329.75,294.71704761904783
1331.87,311.7880476190478
1333.98,317.38919047619066
1336.08,288.28395238095254
1338.19,251.28352380952396
1340.3,208.81800000000015
1342.4,192.3653904761906
1344.5,163.0698952380953
1346.6,144.40912380952386
1348.7,113.19372380952385
1350.8,75.47229523809528
1352.9,54.7697428571429
1354.99,57.32532380952386
1357.09,62.61576190476196
1359.18,93.54664761904769
1361.27,101.73752857142863
1363.36,90.99840000000005
1365.45,92.90083333333341
1367.54,108.87409523809532
1369.62,127.58470952380962
1371.7,158.31850476190488
1373.79,167.1703238095239
1375.87,177.61595238095248
1377.95,188.03604761904774
1380.03,188.00161904761916
1382.1,171.89276190476198
1384.18,136.18519047619054
1386.25,124.78252380952388
1388.33,129.20713333333342
1390.4,127.17235238095243
1392.47,107.4383428571429
1394.54,80.19400952380954
1396.6,38.05699523809527
1398.67,29.4063047619048
1400.74,50.2396847619048
1402.8,55.36457285714288
1404.86,51.397650476190506
1406.92,47.003046190476205
1408.98,33.89242190476194
1411.04,37.396368095238145
1413.09,68.65483238095243
1415.15,63.76011904761909
1417.2,81.04224285714292
1419.25,100.45060952380959
1421.3,122.55347619047629
1423.35,140.82340000000008
1425.4,152.54259047619053
1427.45,112.85061428571434
1429.49,87.41022857142863
1431.54,94.36122380952388
1433.58,100.17602380952387
1435.62,100.85063809523815
1437.66,98.19084761904764
1439.7,46.57406666666667
1441.74,30.37733238095242
1443.77,25.97812761904764
1445.81,30.420117142857183
1447.84,53.93783904761909
1449.87,78.71787428571433
1451.9,88.66148952380959
1453.93,121.95530380952388
1455.96,114.59573809523816
1457.98,106.19829523809528
1460.01,100.14037619047626
1462.03,128.56120000000013
1464.05,186.4573857142859
1466.07,274.5872666666669
1468.09,361.75685714285737
1470.11,446.5343809523812
1472.13,488.48790476190504
1474.14,533.5667619047622
1476.16,545.910285714286
1478.17,544.7536190476193
1480.18,497.42704761904787
1482.19,431.0226666666669
1484.2,356.58519047619063
1486.21,273.0643333333335
1488.21,200.64752380952393
1490.22,170.09442857142864
1492.22,142.92613333333344
1494.22,122.13987619047624
1496.22,113.35229047619052
1498.22,93.56110857142862
1500.22,63.28796333333337
1502.22,48.57857428571432
1504.21,24.0021080952381
1506.21,18.318693333333364
1508.2,34.81222523809529
1510.19,59.57629904761908
1512.18,63.60938571428575
1514.17,69.14816190476192
1516.16,66.19137619047623
1518.14,46.4521666666667
1520.13,58.26288571428575
1522.11,46.432295238095264
1524.09,48.4833571428572
1526.07,66.65376666666671
1528.05,78.80027619047623
1530.03,68.16086190476196
1532.01,79.44962857142862
1533.98,78.19043333333339
1535.96,86.145220952381
1537.93,66.21920904761906
1539.9,48.93661333333337
1541.87,45.20289571428575
1543.84,57.542394285714344
1545.81,75.86064238095244
1547.78,94.15867333333338
1549.74,105.72309047619055
1551.7,131.1741476190477
1553.67,162.79848571428582
1555.63,188.69249523809535
1557.59,193.85795238095247
1559.55,195.48666666666676
1561.5,198.4372857142858
1563.46,192.42585714285727
1565.41,190.16819047619057
1567.37,184.14204761904773
1569.32,168.87338095238107
1571.27,171.74485714285726
1573.22,162.23457142857154
1575.17,153.0588095238096
1577.11,149.60074285714296
1579.06,132.10029047619054
1581.0,125.41677142857152
1582.95,142.600280952381
1584.89,137.2717238095239
1586.83,145.2430714285715
1588.77,147.4689047619048
1590.7,124.18965714285721
1592.64,120.88393333333343
1594.58,121.6017047619049
1596.51,118.74980476190495
1598.44,106.33040000000022
