Raman Shift,Processed Intensity
331.095,-25.837849523809517
333.909,2.726034761904838
336.721,18.020642619047678
339.531,22.662272380952395
342.339,15.243112857142851
345.145,22.665282857142877
347.949,3.879643333333334
350.751,7.218894285714278
353.55,-20.173702857142864
356.348,-2.772968571428553
359.144,10.804511904761936
361.937,42.228957142857176
364.729,55.69572809523815
367.518,92.82971238095247
370.306,164.68543809523825
373.091,259.3664857142859
375.874,333.02516190476206
378.656,351.43462857142873
381.435,291.22605238095247
384.212,202.46051142857152
386.988,115.05748952380955
389.761,32.271410476190496
392.532,14.691420952380993
395.301,34.81332095238098
398.068,33.943391428571445
400.833,18.62790857142855
403.596,2.2717733333333077
406.358,-54.7659028571429
409.117,-65.55315523809524
411.874,-42.01334380952381
414.629,-15.925263809523809
417.382,-13.161200952380943
420.133,17.5984542857143
422.882,36.38952095238102
425.629,85.24921904761915
428.374,165.4542666666668
431.117,226.711542857143
433.858,223.44309523809537
436.597,223.50123809523825
439.334,204.88257142857154
442.069,171.1082476190477
444.802,147.74854285714292
447.533,105.99393333333339
450.262,101.22581904761915
452.989,139.4466761904763
455.714,182.99249523809533
458.438,174.3429714285715
461.159,137.8839285714286
463.878,89.95410476190482
466.595,83.08344761904769
469.31,68.23163333333339
472.024,93.21529523809528
474.735,90.90030952380958
477.444,96.5334714285715
480.152,103.31464285714291
482.857,132.2064095238096
485.561,123.12393809523817
488.262,126.31582857142865
490.962,138.7461952380953
493.659,110.04534285714291
496.355,92.7488238095239
499.048,120.82178095238103
501.74,132.46679047619057
504.43,143.07756190476198
507.118,170.00013333333342
509.804,149.10438095238106
512.488,190.21304761904776
515.17,216.95823809523824
517.85,235.63890476190488
520.528,214.93476190476198
523.204,187.19190476190488
525.878,142.4709523809525
528.551,161.35657142857156
531.221,203.90895238095254
533.89,231.80738095238107
536.556,233.6830000000001
539.221,216.7862380952382
541.883,176.51000000000008
544.544,154.29461904761916
547.203,165.7229523809525
549.86,151.90114285714296
552.515,144.2209523809525
555.168,142.93085714285726
557.819,192.94580952380966
560.469,231.79919047619063
563.116,272.11928571428587
565.761,265.01047619047625
568.405,243.29066666666682
571.047,195.20580952380965
573.687,206.76317142857152
576.324,180.58886190476198
578.96,155.59396190476198
581.594,146.7373761904763
584.227,169.11996190476202
586.857,159.0323523809525
589.485,139.71687619047628
592.112,135.74910000000008
594.737,131.37039047619058
597.359,173.86962380952394
599.98,225.43965714285727
602.599,240.98684761904772
605.216,229.703142857143
607.831,232.92233333333348
610.445,214.1684761904763
613.056,204.63176190476202
615.666,182.50176190476202
618.274,179.4434285714287
620.88,207.0266666666668
623.484,255.81976190476212
626.086,306.91504761904787
628.686,382.5946190476193
631.284,416.9496190476193
633.881,487.92752380952413
636.476,521.6187619047622
639.068,548.7793333333336
641.659,535.5460952380955
644.249,486.3410952380954
646.836,400.77638095238115
649.421,335.891923809524
652.005,241.06108571428584
654.587,164.751961904762
657.166,128.2416733333334
659.745,75.37891380952387
662.321,63.773513333333376
664.895,63.22571952380956
667.468,68.86910380952386
670.038,72.88453285714291
672.607,93.83359714285719
675.174,81.70667619047623
677.739,77.77959047619052
680.303,84.13773047619053
682.864,79.67604619047623
685.424,60.718105238095255
687.982,18.301850952380946
690.538,-6.867902380952373
693.092,-14.990997619047604
695.645,15.113917619047658
698.195,43.6761228571429
700.744,76.78224285714289
703.291,76.80495238095243
705.836,61.26009047619048
708.38,18.997152380952375
710.921,-14.419757142857149
713.461,-9.711833333333301
715.999,6.447642857142888
718.535,41.10005714285719
721.069,90.0969571428572
723.602,103.71842380952387
726.133,100.05455238095246
728.662,116.81492666666671
731.189,72.18543857142859
733.714,53.4954390476191
736.238,78.9317090476191
738.759,82.25228190476196
741.279,76.88248142857148
743.798,78.29560761904763
746.314,47.9650428571429
748.829,55.698176190476254
751.342,90.82581428571436
753.853,93.82226190476196
756.362,98.0668190476191
758.869,87.74834761904766
761.375,90.10369523809531
763.879,93.41739523809528
766.381,107.02174285714291
768.882,98.77323809523816
771.38,101.19517619047623
773.877,72.47755238095242
776.372,64.71555714285718
778.866,63.00400952380958
781.357,65.39091428571435
783.847,89.25727619047626
786.335,115.84144285714294
788.821,118.09647619047627
791.306,105.92749523809529
793.789,120.33510476190484
796.27,127.60574761904772
798.749,163.54988571428584
801.227,208.88272857142871
803.702,236.27237142857157
806.176,244.19609523809538
808.649,271.17900000000014
811.119,279.7938571428573
813.588,295.66119047619065
816.055,276.92533333333347
818.521,226.54061904761915
820.984,185.69928571428582
823.446,166.64128571428583
825.906,155.32101904761916
828.365,146.0737571428572
830.821,134.9966095238096
833.276,112.80638571428578
835.729,128.1718761904763
838.181,138.09538095238105
840.631,143.76942857142865
843.079,119.24438095238101
845.525,107.5225666666667
847.97,71.60682380952386
850.412,80.78543333333337
852.854,74.15616190476196
855.293,69.34061428571432
857.731,67.10363809523815
860.167,73.16223333333338
862.601,78.8527190476191
865.034,103.84430952380959
867.465,104.94957142857149
869.894,93.21902857142862
872.321,75.89372857142861
874.747,70.83389047619053
877.171,82.13787142857149
879.594,89.23691904761911
882.014,111.99121904761913
884.433,144.35630476190485
886.851,166.57328571428582
889.266,179.74085714285724
891.68,173.90928571428577
894.092,133.74847619047625
896.503,133.92795238095246
898.912,137.87961904761914
901.319,154.3682380952382
903.724,162.15895238095248
906.128,179.6830000000001
908.53,174.27719047619058
910.931,184.18242857142866
913.329,177.544761904762
915.726,171.6525238095239
918.122,153.98486666666673
920.516,135.49723809523815
922.908,98.2878666666667
925.298,87.45487619047626
927.687,94.76280952380961
930.074,110.21425714285722
932.459,111.76439047619053
934.843,104.51120000000006
937.225,83.21922857142863
939.605,76.60549047619052
941.984,76.19610952380958
944.361,68.13646190476193
946.736,53.571861904761946
949.11,60.83786190476195
951.482,78.6985952380953
953.853,101.48980476190482
956.222,104.02313333333338
958.589,75.25299047619049
960.954,64.18149523809527
963.318,55.61985238095243
965.68,82.71253333333343
968.041,111.60449047619052
970.4,101.72583333333338
972.757,67.1733666666667
975.113,56.2343904761905
977.467,35.814933333333364
979.819,25.535176190476204
982.17,33.68214761904764
984.519,25.828319047619065
986.866,35.546095238095276
989.212,44.264971428571464
991.556,71.89046666666673
993.899,87.32822380952389
996.24,148.81677142857154
998.579,152.40435238095245
1000.92,154.80544761904767
1003.25,116.25868571428576
1005.59,83.0023428571429
1007.92,69.08443809523817
1010.25,94.64752000000004
1012.58,69.26294142857147
1014.91,56.882630476190506
1017.24,49.74455857142861
1019.56,64.4196952380953
1021.88,69.52656809523813
1024.2,76.25478761904765
1026.52,82.36561142857147
1028.84,75.61979142857149
1031.16,95.20682666666676
1033.48,122.4111933333334
1035.79,125.6125238095239
1038.1,157.04746190476203
1040.41,205.90534285714298
1042.72,206.2319047619049
1045.03,220.88276190476202
1047.33,220.2367142857144
1049.64,179.81573809523817
1051.94,166.7132857142858
1054.24,164.35588095238103
1056.54,140.0272380952382
1058.84,175.82030952380964
1061.13,211.25633333333343
1063.43,184.47633333333343
1065.72,178.81114285714295
1068.01,169.4962380952382
1070.3,155.33909523809535
1072.59,175.62247619047628
1074.87,181.86766666666676
1077.16,171.45347619047635
1079.44,190.90080952380964
1081.72,211.01661904761923
1084.0,263.369523809524
1086.28,329.71871428571455
1088.56,424.68023809523834
1090.84,530.4422857142861
1093.11,629.430904761905
1095.38,637.4048571428575
1097.65,585.5044285714288
1099.92,480.63157142857165
1102.19,383.3071904761907
1104.46,336.5765714285717
1106.72,321.2467619047621
1108.98,304.36214285714306
1111.24,309.3966666666669
1113.5,322.2521904761907
1115.76,361.45004761904784
1118.02,425.4638095238098
1120.28,469.5770000000003
1122.53,472.7869523809527
1124.78,451.0437142857145
1127.03,404.82133333333354
1129.28,347.8791904761906
1131.53,300.21500000000015
1133.77,261.6840476190477
1136.02,210.56995238095251
1138.26,185.96561904761916
1140.5,181.58361904761915
1142.74,184.04095238095252
1144.98,196.95504761904778
1147.22,223.4195714285716
1149.45,243.2903809523811
1151.69,256.756142857143
1153.92,261.53004761904776
1156.15,258.18204761904775
1158.38,226.4728666666668
1160.61,180.59191428571438
1162.83,143.96719047619055
1165.06,103.7882571428572
1167.28,89.00698095238103
1169.5,95.00364761904768
1171.72,107.34915238095245
1173.94,95.71026190476196
1176.16,97.753580952381
1178.37,82.71724761904765
1180.58,74.74433523809527
1182.8,56.69234000000002
1185.01,46.275989523809535
1187.22,26.924755238095248
1189.42,24.782332380952393
1191.63,4.230782857142853
1193.84,0.3665400000000001
1196.04,1.8577571428571513
1198.24,5.134644285714294
1200.44,5.913296666666678
1202.64,23.767187142857146
1204.84,13.412787619047627
1207.03,14.900026190476211
1209.23,20.850464761904774
1211.42,35.980963809523836
1213.61,33.67520904761907
1215.8,41.269350476190496
1217.99,41.38532761904763
1220.18,35.121335238095256
1222.36,22.147053333333357
1224.55,34.17986285714288
1226.73,42.55620000000004
1228.91,58.23160000000004
1231.09,74.11402400000004
1233.27,64.11141495238097
1235.44,39.036498000000016
1237.62,6.273415523809529
1239.79,9.492048476190522
1241.96,57.457473047619125
1244.13,97.17278923809532
1246.3,151.45046285714295
1248.47,187.53191428571438
1250.64,184.08657142857157
1252.8,221.49866666666685
1254.96,314.8662380952383
1257.13,369.2397142857145
1259.29,450.5268571428574
1261.44,498.34947619047637
1263.6,500.42457142857177
1265.76,467.42176190476215
1267.91,415.39109523809543
1270.06,338.71614285714304
1272.22,286.73333333333346
1274.37,227.49252380952393
1276.51,213.1391904761906
1278.66,186.29480952380965
1280.81,163.91414285714296
1282.95,171.57100000000008
1285.09,179.55352380952388
1287.23,172.14961904761915
1289.37,183.45668571428578
1291.51,163.62004285714295
1293.65,136.5466095238096
1295.78,120.61938571428578
1297.92,100.69775238095247
1300.05,102.35504285714295
1302.18,127.21230476190485
1304.31,145.12847619047628
1306.44,177.34338095238104
1308.57,187.3825714285715
1310.69,174.10538095238104
1312.82,158.7514761904763
1314.94,140.84642857142867
1317.06,166.82000000000016
1319.18,217.43604761904777
1321.3,226.79109523809535
1323.41,233.07704761904776
1325.53,267.4860952380954
1327.64,264.59095238095256
1329.75,299.7258571428573
1331.87,326.9876666666668
1333.98,313.5676190476192
1336.08,294.18119047619064
1338.19,268.9726666666668
1340.3,216.80000000000013
1342.4,196.14005714285724
1344.5,162.66062857142865
1346.6,130.83859047619052
1348.7,111.3416571428572
1350.8,95.26554285714293
1352.9,102.84905714285722
1354.99,124.94962857142863
1357.09,128.23476190476197
1359.18,129.8478095238096
1361.27,130.31283809523816
1363.36,117.67771904761909
1365.45,113.84762857142863
1367.54,100.58428095238101
1369.62,99.22162857142865
1371.7,130.14048095238107
1373.79,186.8170761904763
1375.87,208.3943809523811
1377.95,233.77676190476205
1380.03,214.20214285714295
1382.1,173.33711428571436
1384.18,137.27611428571436
1386.25,132.0191714285715
1388.33,101.75611428571435
1390.4,109.9625333333334
1392.47,99.49515238095243
1394.54,93.40085238095244
1396.6,79.86921238095242
1398.67,57.94722666666668
1400.74,31.82432952380956
1402.8,47.59491619047623
1404.86,57.11501428571434
1406.92,50.14543285714288
1408.98,57.25625333333336
1411.04,49.11298428571433
1413.09,70.04782190476197
1415.15,98.53537285714293
1417.2,139.57398952380962
1419.25,162.6862000000001
1421.3,171.2984380952382
1423.35,185.59999047619058
1425.4,169.82713809523815
1427.45,128.35875238095244
1429.49,100.52615238095244
1431.54,79.32757142857147
1433.58,65.99871428571436
1435.62,75.0616428571429
1437.66,76.46626190476195
1439.7,81.63891428571432
1441.74,58.91061428571431
1443.77,59.421695238095296
1445.81,63.836433333333375
1447.84,80.48557619047627
1449.87,103.08085238095244
1451.9,120.42891428571434
1453.93,114.76533333333339
1455.96,102.37296666666671
1457.98,95.96323809523818
1460.01,145.6760904761906
1462.03,196.9374000000002
1464.05,238.50584285714302
1466.07,286.47391428571444
1468.09,324.5530476190479
1470.11,401.5971428571431
1472.13,477.55566666666704
1474.14,517.0922380952384
1476.16,518.4417619047622
1478.17,495.6489523809526
1480.18,465.3778571428574
1482.19,443.3395714285716
1484.2,383.6263333333335
1486.21,300.997142857143
1488.21,226.83014285714296
1490.22,185.0747238095239
1492.22,146.20465238095247
1494.22,122.88361428571434
1496.22,107.44215714285721
1498.22,97.49684761904768
1500.22,83.4260428571429
1502.22,88.22703142857145
1504.21,56.897614761904784
1506.21,33.34012476190479
1508.2,29.02855190476194
1510.19,48.05594380952384
1512.18,49.801181428571454
1514.17,64.92896476190478
1516.16,43.62790000000002
1518.14,26.51527142857145
1520.13,17.065600000000018
1522.11,39.039300952380984
1524.09,34.958777142857166
1526.07,44.775116190476204
1528.05,26.344313333333336
1530.03,23.141535238095265
1532.01,32.16587714285719
1533.98,64.94037238095243
1535.96,67.4167666666667
1537.93,74.73712857142861
1539.9,77.9012952380953
1541.87,84.09933809523815
1543.84,106.09289047619055
1545.81,127.26270476190484
1547.78,134.13278095238104
1549.74,148.79805714285723
1551.7,153.83062857142866
1553.67,145.9925238095239
1555.63,146.28395238095246
1557.59,142.18147619047625
1559.55,135.01938095238103
1561.5,153.27400000000011
1563.46,152.75585714285725
1565.41,166.41819047619057
1567.37,165.16623809523819
1569.32,159.71533333333346
1571.27,137.4953333333334
1573.22,150.3640476190477
1575.17,147.0847142857144
1577.11,165.27766666666676
1579.06,171.75366666666676
1581.0,186.6570000000001
1582.95,176.65557142857153
1584.89,169.56009523809533
1586.83,156.2770476190477
1588.77,143.85538095238104
1590.7,137.96361904761915
1592.64,156.60323809523823
1594.58,170.65669047619056
1596.51,173.74476190476202
1598.44,156.36911904761928
