Raman Shift,Processed Intensity
331.095,-10.822488095238123
333.909,22.557590476190512
336.721,43.52544047619053
339.531,50.530795238095244
342.339,18.9278380952381
345.145,38.49991904761908
347.949,17.340533333333326
350.751,11.877528571428595
353.55,19.111114285714294
356.348,27.804380952380978
359.144,43.007238095238165
361.937,72.58024761904765
364.729,81.4321857142858
367.518,110.33078571428581
370.306,153.56852380952395
373.091,244.10555238095256
375.874,313.8081714285716
378.656,305.4488095238097
381.435,249.89641428571434
384.212,154.59315714285717
386.988,63.410804761904785
389.761,27.1272380952381
392.532,-19.144757142857156
395.301,-24.7668580952381
398.068,-16.384836666666665
400.833,-14.595211428571442
403.596,-20.611960476190497
406.358,-21.26632428571431
409.117,-28.19739785714286
411.874,-23.137851904761913
414.629,-19.294772619047635
417.382,-12.254573809523807
420.133,-11.935368809523789
422.882,36.88901761904769
425.629,97.68470476190484
428.374,151.6811380952382
431.117,202.20418571428584
433.858,221.390961904762
436.597,194.95085714285725
439.334,172.83285714285722
442.069,127.13019047619056
444.802,110.93738095238105
447.533,133.30195238095246
450.262,160.8919523809525
452.989,194.85223809523822
455.714,210.80489523809533
458.438,173.46825238095246
461.159,136.5616952380953
463.878,100.51942380952386
466.595,63.58606190476194
469.31,64.14970952380958
472.024,54.07530000000003
474.735,61.27637142857151
477.444,96.8570714285715
480.152,125.63636190476197
482.857,128.6722952380953
485.561,125.26086666666671
488.262,112.79409523809532
490.962,147.47390476190486
493.659,141.07383333333343
496.355,125.98671428571436
499.048,123.5582047619048
501.74,93.13403809523815
504.43,80.82186190476199
507.118,124.8247714285715
509.804,133.9655523809525
512.488,164.3520380952382
515.17,227.37808571428587
517.85,229.72328571428582
520.528,182.6384761904763
523.204,165.66019047619056
525.878,140.42042857142866
528.551,146.6462380952382
531.221,184.5882380952382
533.89,183.21104761904772
536.556,167.62219047619055
539.221,169.16675238095246
541.883,141.14203809523818
544.544,155.60750476190486
547.203,142.76448571428577
549.86,128.95712380952392
552.515,152.95818095238107
555.168,165.34918095238106
557.819,167.80661904761917
560.469,191.48319047619057
563.116,172.3878095238096
565.761,164.6719047619049
568.405,181.867761904762
571.047,195.7449523809525
573.687,193.7873333333334
576.324,176.8588095238096
578.96,155.82290476190482
581.594,130.9238571428572
584.227,126.02419047619057
586.857,163.84328571428583
589.485,151.05271428571436
592.112,165.65585714285726
594.737,196.60876190476202
597.359,213.43828571428583
599.98,221.67042857142874
602.599,253.9736666666668
605.216,233.63533333333345
607.831,225.32238095238108
610.445,237.6066666666668
613.056,220.3451904761906
615.666,225.20385714285732
618.274,239.94309523809537
620.88,246.79900000000018
623.484,279.2928571428574
626.086,336.7073809523812
628.686,382.8008095238098
631.284,468.569285714286
633.881,538.1988095238098
636.476,591.0175714285717
639.068,614.6396666666669
641.659,563.8208095238099
644.249,477.6971904761907
646.836,386.92895238095264
649.421,311.65189523809545
652.005,225.3345142857144
654.587,150.0167476190477
657.166,85.6426333333334
659.745,46.870438095238136
662.321,40.7870428571429
664.895,52.193235238095255
667.468,27.937066190476198
670.038,24.009508571428597
672.607,22.734786190476214
675.174,40.722541904761954
677.739,70.63041380952384
680.303,73.49682000000001
682.864,51.69359666666668
685.424,22.68787904761903
687.982,-21.767363333333336
690.538,-11.77637809523808
693.092,2.1285980952380994
695.645,7.891499523809535
698.195,13.027961428571423
700.744,10.863391904761906
703.291,0.8186609523809643
705.836,15.791116190476195
708.38,5.344989999999993
710.921,-5.812297142857152
713.461,-10.25879476190476
715.999,-3.048408571428561
718.535,8.622369523809546
721.069,35.22400619047622
723.602,64.03662761904766
726.133,70.34093333333337
728.662,68.79868095238099
731.189,59.119528571428596
733.714,57.53718095238099
736.238,66.47603333333338
738.759,77.97967142857145
741.279,53.377890476190494
743.798,35.66724285714288
746.314,40.22544761904767
748.829,57.763728571428615
751.342,60.04119523809526
753.853,56.864847619047666
756.362,73.70842857142864
758.869,93.90303809523817
761.375,117.018060952381
763.879,99.48021571428572
766.381,61.28787428571432
768.882,32.53486523809529
771.38,63.60074095238101
773.877,73.34148238095241
776.372,77.42270380952385
778.866,66.7009047619048
781.357,78.07984285714292
783.847,75.41620476190482
786.335,87.37627142857147
788.821,97.67396666666673
791.306,94.88078095238103
793.789,113.13955714285724
796.27,141.83126666666675
798.749,168.6704571428573
801.227,200.41961904761916
803.702,237.84076190476208
806.176,266.4110000000002
808.649,287.51204761904773
811.119,291.5732857142859
813.588,269.02414285714303
816.055,252.38985714285727
818.521,217.67147619047634
820.984,223.01328571428584
823.446,215.8929047619049
825.906,210.50204761904774
828.365,173.55642857142868
830.821,183.77223809523824
833.276,184.43702857142867
835.729,188.93363333333343
838.181,155.40685238095244
840.631,130.62084285714292
843.079,78.67263809523816
845.525,90.13582380952388
847.97,101.63182857142863
850.412,108.63890476190484
852.854,118.96931904761912
855.293,128.8636428571429
857.731,97.89556666666671
860.167,87.97253809523815
862.601,91.23993809523816
865.034,105.12882380952388
867.465,113.92798571428577
869.894,91.1161523809524
872.321,67.17244761904766
874.747,64.05210476190483
877.171,80.37686190476197
879.594,111.38771428571437
882.014,135.6589857142858
884.433,135.86062857142866
886.851,144.18614761904774
889.266,183.2096000000001
891.68,189.74371428571436
894.092,191.9817142857144
896.503,211.83161904761914
898.912,173.67771428571433
901.319,137.09447619047626
903.724,156.08466666666675
906.128,157.746761904762
908.53,140.7024761904763
910.931,184.14576190476203
913.329,170.79380952380959
915.726,154.50695238095247
918.122,165.3358380952382
920.516,145.80726666666672
922.908,119.20953333333343
925.298,131.59363809523816
927.687,141.05754285714295
930.074,132.31858571428577
932.459,136.90375238095245
934.843,108.00607619047622
937.225,101.67575238095243
939.605,87.10621904761909
941.984,64.3477047619048
944.361,77.40282380952388
946.736,89.41738095238101
949.11,102.48900000000009
951.482,122.28681904761909
953.853,100.81339523809527
956.222,75.8806095238096
958.589,109.014480952381
960.954,104.64592857142863
963.318,110.96758095238098
965.68,97.3148380952381
968.041,71.26130952380957
970.4,73.8564231428572
972.757,65.34023433333336
975.113,56.09539723809527
977.467,57.885573761904794
979.819,65.56946390476195
982.17,65.62494385714288
984.519,59.196118380952385
986.866,23.522428571428588
989.212,25.65275238095243
991.556,49.8262571428572
993.899,77.71058571428576
996.24,106.68758095238103
998.579,108.47230000000005
1000.92,92.92250476190482
1003.25,98.99127142857148
1005.59,86.39319523809527
1007.92,51.319152380952424
1010.25,77.29320476190482
1012.58,73.45836190476196
1014.91,80.19560476190483
1017.24,96.55262380952385
1019.56,91.52919047619051
1021.88,70.50609047619054
1024.2,78.76884761904766
1026.52,94.55506666666676
1028.84,110.72155238095245
1031.16,141.07690952380963
1033.48,151.90662857142866
1035.79,169.54319047619057
1038.1,181.74790476190486
1040.41,207.6149523809525
1042.72,192.6198095238096
1045.03,190.18961904761915
1047.33,172.18119047619058
1049.64,168.069142857143
1051.94,164.90038095238106
1054.24,180.9589523809525
1056.54,171.62476190476198
1058.84,182.51533333333344
1061.13,176.67700000000008
1063.43,166.9175714285715
1065.72,153.95061904761917
1068.01,152.2503333333334
1070.3,145.10090476190484
1072.59,145.5008095238096
1074.87,146.7339523809525
1077.16,167.27500000000012
1079.44,174.21757142857152
1081.72,177.27404761904774
1084.0,221.49019047619066
1086.28,278.9118571428574
1088.56,374.9657619047622
1090.84,510.5075238095242
1093.11,596.344428571429
1095.38,609.3318571428575
1097.65,573.7059047619051
1099.92,471.5124761904764
1102.19,373.511523809524
1104.46,335.7964285714288
1106.72,313.6030000000002
1108.98,292.3580476190478
1111.24,288.154523809524
1113.5,292.4670952380954
1115.76,353.5318095238098
1118.02,420.15604761904785
1120.28,457.48076190476223
1122.53,466.98047619047645
1124.78,432.7956666666669
1127.03,375.11500000000024
1129.28,316.41280952380964
1131.53,258.16347619047633
1133.77,211.69838095238106
1136.02,193.06338095238107
1138.26,190.0659047619049
1140.5,177.84714285714296
1142.74,152.7384761904763
1144.98,162.02414285714298
1147.22,197.70209523809538
1149.45,225.3898571428573
1151.69,244.03800000000012
1153.92,244.88319047619063
1156.15,220.73319047619057
1158.38,210.25304761904775
1160.61,200.1555142857144
1162.83,164.8678714285715
1165.06,124.8648428571429
1167.28,86.66895714285718
1169.5,51.32655238095243
1171.72,55.93134761904767
1173.94,67.72043809523815
1176.16,97.02584761904768
1178.37,112.65608571428574
1180.58,96.80056761904765
1182.8,62.267865238095254
1185.01,28.342825714285727
1187.22,18.358067142857173
1189.42,22.169748571428585
1191.63,18.443996666666685
1193.84,23.84684952380953
1196.04,23.33013142857144
1198.24,19.655330000000017
1200.44,15.01253714285714
1202.64,10.830107142857154
1204.84,2.9650285714285864
1207.03,27.321988095238147
1209.23,64.6629571428572
1211.42,92.75000952380958
1213.61,87.29770000000003
1215.8,82.30645238095241
1217.99,46.6338904761905
1220.18,36.1377285714286
1222.36,42.15200476190479
1224.55,31.29651904761906
1226.73,29.42932857142859
1228.91,30.932385714285733
1231.09,47.18767619047624
1233.27,56.24407619047623
1235.44,84.43622380952385
1237.62,78.76545714285719
1239.79,90.47121904761913
1241.96,114.22199047619058
1244.13,140.16211428571438
1246.3,149.67441428571442
1248.47,196.09377142857156
1250.64,231.4222857142859
1252.8,275.9950952380955
1254.96,363.62400000000025
1257.13,411.26323809523836
1259.29,459.91509523809555
1261.44,513.2006190476193
1263.6,519.4560476190479
1265.76,482.68361904761935
1267.91,448.7427142857145
1270.06,385.2545714285716
1272.22,333.93619047619063
1274.37,300.2183809523811
1276.51,255.43757142857157
1278.66,199.88209523809536
1280.81,155.74495238095244
1282.95,136.5049523809525
1285.09,148.3554761904763
1287.23,173.39438095238106
1289.37,202.3390000000001
1291.51,213.09680952380964
1293.65,192.8608571428572
1295.78,175.15800000000007
1297.92,153.94338095238103
1300.05,136.5534285714287
1302.18,159.56223809523823
1304.31,179.54400000000012
1306.44,182.73976190476202
1308.57,198.58133333333342
1310.69,203.4525238095239
1312.82,201.07019047619062
1314.94,204.29428571428582
1317.06,195.22276190476202
1319.18,187.81123809523825
1321.3,216.8718095238097
1323.41,244.5503809523811
1325.53,277.70652380952396
1327.64,293.7240476190478
1329.75,342.7959523809526
1331.87,348.54438095238123
1333.98,372.1619523809526
1336.08,343.31819047619064
1338.19,312.206142857143
1340.3,271.87576190476204
1342.4,248.13914285714296
1344.5,208.9986190476192
1346.6,183.02785714285721
1348.7,126.70542857142866
1350.8,99.4620476190477
1352.9,95.96661904761913
1354.99,111.7928000000001
1357.09,136.41853809523818
1359.18,148.6077428571429
1361.27,119.98141428571435
1363.36,104.3506952380953
1365.45,111.00320476190485
1367.54,123.17856190476198
1369.62,139.0212857142858
1371.7,159.0562857142858
1373.79,158.8566666666668
1375.87,184.7567142857144
1377.95,212.61500000000012
1380.03,201.62289523809534
1382.1,180.3052190476191
1384.18,136.23405714285718
1386.25,87.5532333333334
1388.33,75.97740952380958
1390.4,73.69780952380958
1392.47,71.09560771428575
1394.54,52.36148604761906
1396.6,38.06704447619049
1398.67,7.355102523809532
1400.74,16.654093047619078
1402.8,27.582797000000024
1404.86,49.09316771428575
1406.92,39.47042095238097
1408.98,46.428240952380975
1411.04,45.061110952380986
1413.09,59.225354285714324
1415.15,66.34861761904766
1417.2,83.71552952380955
1419.25,84.56324285714291
1421.3,95.79514761904767
1423.35,102.88610000000006
1425.4,103.5966190476191
1427.45,88.21096190476194
1429.49,72.48947619047624
1431.54,91.00215238095245
1433.58,101.08041428571434
1435.62,87.91298571428575
1437.66,92.06948028571432
1439.7,57.40512719047621
1441.74,43.34649723809528
1443.77,47.129673761904776
1445.81,32.704916285714305
1447.84,20.355753380952414
1449.87,40.8895326666667
1451.9,57.68505476190483
1453.93,80.21602857142862
1455.96,100.38484285714291
1457.98,108.9035333333334
1460.01,112.29324761904769
1462.03,125.07554761904771
1464.05,161.00990476190486
1466.07,208.28409523809543
1468.09,288.84780952380976
1470.11,375.17476190476214
1472.13,440.88123809523836
1474.14,498.77423809523833
1476.16,493.089285714286
1478.17,469.25204761904786
1480.18,405.6883333333335
1482.19,332.49100000000016
1484.2,259.51447619047633
1486.21,213.13680952380963
1488.21,154.4508095238096
1490.22,143.2628952380953
1492.22,121.33231904761912
1494.22,114.32321428571436
1496.22,95.04225047619052
1498.22,60.15332190476193
1500.22,41.84441047619051
1502.22,36.874644761904776
1504.21,27.24141619047621
1506.21,25.8944680952381
1508.2,18.783566666666673
1510.19,12.7632823809524
1512.18,20.0215542857143
1514.17,22.508241428571445
1516.16,35.078020000000016
1518.14,30.776047619047635
1520.13,35.02851428571431
1522.11,50.11880000000002
1524.09,29.520814285714287
1526.07,18.27999523809525
1528.05,6.441838095238096
1530.03,11.90899523809528
1532.01,33.96524285714289
1533.98,61.79920952380956
1535.96,65.02812380952385
1537.93,67.60270476190479
1539.9,64.37845238095244
1541.87,71.11573809523813
1543.84,70.95592857142861
1545.81,81.04055238095243
1547.78,81.36820000000006
1549.74,91.60440476190483
1551.7,131.89075714285727
1553.67,158.74999047619056
1555.63,182.2286761904763
1557.59,201.0877238095239
1559.55,182.7549523809525
1561.5,177.22957142857155
1563.46,181.22490476190487
1565.41,183.54985714285726
1567.37,193.63247619047632
1569.32,206.90052380952395
1571.27,200.449142857143
1573.22,193.46800000000007
1575.17,183.81414285714294
1577.11,187.4394761904763
1579.06,184.39157142857152
1581.0,188.95542857142868
1582.95,177.08352380952388
1584.89,165.9184285714287
1586.83,158.60338095238106
1588.77,153.2810000000001
1590.7,146.66566666666677
1592.64,159.94766666666678
1594.58,176.41304761904772
1596.51,200.53840476190493
1598.44,232.65740476190507
