Raman Shift,Processed Intensity
331.095,20.341435714285552
333.909,3.8839761904761474
336.721,11.321540476190442
339.531,26.939261904761917
342.339,8.379142857142856
345.145,26.06926190476193
347.949,27.67680952380951
350.751,7.298466666666678
353.55,7.17467142857144
356.348,34.92780952380954
359.144,11.990823809523832
361.937,26.940514285714304
364.729,16.735814285714305
367.518,40.098542857142945
370.306,104.180642857143
373.091,208.03960000000015
375.874,270.59160000000014
378.656,297.8490761904763
381.435,245.68282857142864
384.212,166.7744428571429
386.988,78.52155714285718
389.761,35.79882380952384
392.532,8.863690476190495
395.301,15.26043047619049
398.068,13.391880476190472
400.833,-1.528038095238104
403.596,-7.617239047619045
406.358,-9.27790857142859
409.117,-20.24394666666668
411.874,-40.9619866666667
414.629,-43.591377619047634
417.382,-24.766094285714267
420.133,-1.4518523809523631
422.882,28.38707619047623
425.629,72.93086666666672
428.374,97.02772380952389
431.117,143.48004285714296
433.858,180.09087619047628
436.597,189.1411904761906
439.334,159.2463571428572
442.069,127.26083809523816
444.802,94.3739333333334
447.533,74.34762857142864
450.262,116.08716190476201
452.989,183.35624761904774
455.714,215.30042380952395
458.438,211.92312857142866
461.159,177.84807142857147
463.878,91.69950476190479
466.595,65.00727142857147
469.31,45.20650476190481
472.024,49.399857142857186
474.735,72.73805238095245
477.444,106.80137619047625
480.152,102.45597619047625
482.857,126.33042380952388
485.561,127.0539476190477
488.262,135.11328571428584
490.962,156.85270000000008
493.659,154.3311857142858
496.355,127.1791952380953
499.048,114.50373809523815
501.74,83.79326190476196
504.43,86.4885095238096
507.118,100.69743333333341
509.804,104.62318095238102
512.488,124.42127619047629
515.17,170.05703809523823
517.85,196.30509523809536
520.528,211.4640000000001
523.204,212.73733333333345
525.878,170.3759523809525
528.551,161.39261904761918
531.221,185.7999523809525
533.89,194.9436095238096
536.556,167.21710952380963
539.221,146.49007619047626
541.883,115.77408095238104
544.544,109.31921904761914
547.203,128.2795857142858
549.86,141.0477047619048
552.515,144.3962857142858
555.168,127.90761904761912
557.819,151.92528571428582
560.469,177.31614285714298
563.116,192.66123809523822
565.761,190.25585714285725
568.405,187.10847619047627
571.047,164.89428571428584
573.687,168.2405238095239
576.324,168.63050476190486
578.96,146.59529047619057
581.594,102.90341428571433
584.227,84.41785238095245
586.857,118.04917619047627
589.485,129.51667142857153
592.112,161.30114761904773
594.737,191.9304761904763
597.359,192.26547619047628
599.98,204.78495238095252
602.599,242.82509523809534
605.216,223.72085714285726
607.831,214.42609523809537
610.445,211.70323809523822
613.056,202.98123809523824
615.666,192.9258571428573
618.274,220.20323809523825
620.88,243.2880476190478
623.484,283.03538095238116
626.086,350.0140952380955
628.686,414.64980952380984
631.284,457.7003333333336
633.881,496.59019047619074
636.476,527.9807619047622
639.068,541.009666666667
641.659,536.6234285714289
644.249,496.3396190476193
646.836,427.34195238095253
649.421,342.2424190476192
652.005,238.84249047619056
654.587,170.4678095238096
657.166,130.20469619047626
659.745,87.28240809523815
662.321,65.83465904761908
664.895,54.5663823809524
667.468,38.5631590476191
670.038,47.8152747619048
672.607,76.83625809523815
675.174,73.711180952381
677.739,74.4297047619048
680.303,74.55284285714289
682.864,81.35585714285718
685.424,55.63780952380954
687.982,34.95968571428572
690.538,12.739728571428584
693.092,8.443866666666693
695.645,27.061976190476223
698.195,42.536495238095235
700.744,17.476738095238083
703.291,-11.793463809523821
705.836,-30.807113809523823
708.38,-29.573146666666652
710.921,-4.195429047619021
713.461,40.698634285714334
715.999,73.33920523809529
718.535,105.57593619047626
721.069,129.92493809523816
723.602,128.90311428571434
726.133,100.21799523809528
728.662,84.62494285714291
731.189,70.8320333333334
733.714,91.54787619047627
736.238,109.05220952380958
738.759,101.00653809523814
741.279,105.83419619047626
743.798,82.33993666666669
746.314,63.09047809523814
748.829,63.93876333333337
751.342,53.023573333333374
753.853,49.29339857142864
756.362,94.41123428571436
758.869,108.56431428571436
761.375,121.60694761904769
763.879,117.01239047619053
766.381,127.6350476190477
768.882,122.32995238095246
771.38,137.71376190476198
773.877,135.7846428571429
776.372,125.87428571428578
778.866,120.60030952380961
781.357,131.9613333333334
783.847,123.81369047619056
786.335,127.8230476190477
788.821,143.70304761904774
791.306,163.50085714285726
793.789,187.45461904761916
796.27,230.32580952380968
798.749,254.2573809523811
801.227,284.96404761904785
803.702,306.25590476190496
806.176,339.5146666666669
808.649,347.8363809523812
811.119,377.1741428571431
813.588,380.7670000000002
816.055,372.33066666666684
818.521,330.8669523809525
820.984,318.99619047619063
823.446,268.19666666666683
825.906,227.7081904761906
828.365,195.91366666666678
830.821,191.67233333333346
833.276,206.03438095238104
835.729,222.23990476190488
838.181,225.10128571428584
840.631,202.2874761904763
843.079,171.65857142857152
845.525,166.07466666666676
847.97,157.4912857142858
850.412,137.5780000000001
852.854,148.71885714285722
855.293,151.1550476190477
857.731,148.98514285714293
860.167,148.83190476190484
862.601,150.79395238095248
865.034,158.8271904761906
867.465,153.6970476190477
869.894,166.83590476190486
872.321,156.9620000000001
874.747,156.60300000000012
877.171,167.62000000000012
879.594,194.77861904761915
882.014,184.5589523809525
884.433,191.58414285714298
886.851,213.14419047619063
889.266,230.95742857142872
891.68,228.7899047619049
894.092,219.4076666666668
896.503,201.57657142857155
898.912,180.30104761904775
901.319,199.06166666666678
903.724,206.14828571428586
906.128,226.7079047619049
908.53,209.60204761904774
910.931,201.88223809523816
913.329,171.36261904761915
915.726,160.57119047619057
918.122,154.8930000000001
920.516,162.99895238095246
922.908,148.70276190476199
925.298,155.91314285714296
927.687,171.39649523809535
930.074,176.537761904762
932.459,153.19809047619054
934.843,131.42918095238102
937.225,104.90155714285721
939.605,102.8571714285715
941.984,125.25226190476197
944.361,138.5668857142858
946.736,131.8525238095239
949.11,138.16052380952388
951.482,127.68500000000006
953.853,113.57216666666673
956.222,104.77763809523816
958.589,91.97163809523813
960.954,86.25268571428578
963.318,88.90983809523816
965.68,93.8034571428572
968.041,88.65062857142863
970.4,95.83526190476195
972.757,61.598295238095254
975.113,50.70416190476193
977.467,39.06033809523811
979.819,30.57400285714288
982.17,19.91415523809525
984.519,13.55920095238095
986.866,15.70175428571432
989.212,30.819805714285746
991.556,49.86742666666672
993.899,83.4653933333334
996.24,112.5675095238096
998.579,109.31768571428577
1000.92,113.57419523809529
1003.25,108.00443809523814
1005.59,74.6092285714286
1007.92,71.77024761904767
1010.25,79.20211428571432
1012.58,79.38104285714292
1014.91,60.640404761904804
1017.24,86.45615714285721
1019.56,90.73272857142864
1021.88,109.08860476190483
1024.2,111.61839047619053
1026.52,128.79764761904767
1028.84,109.14884285714292
1031.16,121.24226666666675
1033.48,137.26739523809533
1035.79,155.7938476190477
1038.1,160.2964285714287
1040.41,205.20223809523822
1042.72,214.318761904762
1045.03,215.64400000000012
1047.33,217.55719047619058
1049.64,200.48438095238106
1051.94,159.80414285714295
1054.24,160.038142857143
1056.54,133.6602857142858
1058.84,136.2390000000001
1061.13,139.43857142857152
1063.43,128.16119047619057
1065.72,126.02295238095246
1068.01,134.8783333333334
1070.3,151.91480952380962
1072.59,173.74809523809535
1074.87,188.8039523809525
1077.16,194.6981904761906
1079.44,222.42776190476204
1081.72,243.27519047619063
1084.0,277.18971428571444
1086.28,321.21552380952403
1088.56,390.4448571428574
1090.84,500.3026190476194
1093.11,592.4522857142861
1095.38,614.4142857142859
1097.65,558.7567619047621
1099.92,474.00028571428595
1102.19,399.4748571428574
1104.46,358.5577619047621
1106.72,327.8648571428573
1108.98,331.58323809523836
1111.24,350.37638095238117
1113.5,405.19342857142885
1115.76,461.12609523809544
1118.02,467.69509523809546
1120.28,438.32600000000025
1122.53,410.39652380952407
1124.78,367.9990476190479
1127.03,343.60652380952405
1129.28,324.358523809524
1131.53,280.10971428571446
1133.77,232.38085714285728
1136.02,202.93090476190488
1138.26,176.85300000000012
1140.5,180.57271428571443
1142.74,215.13528571428583
1144.98,218.9194285714287
1147.22,266.541523809524
1149.45,292.47547619047634
1151.69,307.576523809524
1153.92,312.6043809523811
1156.15,266.98609523809534
1158.38,219.33861904761918
1160.61,204.32733333333343
1162.83,178.95033333333345
1165.06,160.39700000000008
1167.28,173.42786666666677
1169.5,148.9942238095239
1171.72,144.57135238095248
1173.94,124.25387142857149
1176.16,112.7075333333334
1178.37,85.31318095238102
1180.58,86.68919047619052
1182.8,78.69278571428576
1185.01,62.943223809523836
1187.22,62.10724761904766
1189.42,36.233004761904766
1191.63,26.273466666666693
1193.84,30.1342285714286
1196.04,58.00683238095243
1198.24,60.083008571428614
1200.44,66.64991714285715
1202.64,34.37582000000002
1204.84,10.881531428571451
1207.03,32.59747047619052
1209.23,55.24002761904764
1211.42,61.76374285714288
1213.61,53.980371428571445
1215.8,42.60650000000001
1217.99,17.454014285714308
1220.18,25.715780952380964
1222.36,18.156242857142875
1224.55,20.968400000000024
1226.73,40.631023809523846
1228.91,42.19431428571431
1231.09,70.04186666666673
1233.27,87.08107619047624
1235.44,81.12416666666671
1237.62,77.64987619047625
1239.79,90.66120000000005
1241.96,85.87501428571437
1244.13,118.05594285714295
1246.3,158.20685714285725
1248.47,199.759142857143
1250.64,233.52495238095253
1252.8,267.3643333333335
1254.96,318.94690476190493
1257.13,358.18028571428596
1259.29,408.87676190476213
1261.44,471.03909523809557
1263.6,480.6702380952384
1265.76,485.8683333333337
1267.91,456.4933809523812
1270.06,377.11980952380975
1272.22,308.5120000000001
1274.37,254.86323809523824
1276.51,205.51019047619062
1278.66,211.45552380952392
1280.81,193.1304285714287
1282.95,196.91904761904775
1285.09,198.01442857142868
1287.23,185.13342857142868
1289.37,185.23161904761918
1291.51,182.45414285714293
1293.65,152.66109523809533
1295.78,145.66495238095246
1297.92,117.46809523809533
1300.05,117.54923809523821
1302.18,161.29219047619057
1304.31,182.22347619047628
1306.44,200.82180952380963
1308.57,196.99457142857153
1310.69,171.410761904762
1312.82,168.16804761904774
1314.94,167.84033333333343
1317.06,158.71600000000012
1319.18,186.94004761904773
1321.3,199.75276190476208
1323.41,241.8230952380954
1325.53,290.82000000000016
1327.64,305.74547619047644
1329.75,311.2210476190478
1331.87,308.0106190476192
1333.98,304.7827142857145
1336.08,290.6824285714287
1338.19,284.7114285714287
1340.3,251.918942857143
1342.4,201.73577619047626
1344.5,152.78250476190485
1346.6,139.96561428571437
1348.7,93.4773714285715
1350.8,100.22391904761912
1352.9,82.34946190476194
1354.99,81.56971428571435
1357.09,79.50504761904767
1359.18,110.7281714285715
1361.27,103.76408095238102
1363.36,93.66165714285718
1365.45,65.89810476190482
1367.54,78.37879047619053
1369.62,102.96200476190486
1371.7,157.2675238095239
1373.79,188.43888571428582
1375.87,193.90500000000011
1377.95,212.0001904761906
1380.03,211.67690476190486
1382.1,205.0783714285715
1384.18,168.01449047619053
1386.25,135.34256190476196
1388.33,95.91958095238103
1390.4,97.07916190476195
1392.47,80.58290000000004
1394.54,64.95416952380954
1396.6,29.288019523809535
1398.67,19.250610476190495
1400.74,18.26992333333336
1402.8,31.392910476190497
1404.86,34.19019857142859
1406.92,24.613274761904766
1408.98,16.756343809523838
1411.04,32.094451904761954
1413.09,61.864424761904814
1415.15,83.35056238095243
1417.2,89.97991714285719
1419.25,95.27465238095245
1421.3,96.04260476190484
1423.35,139.09132857142868
1425.4,148.70474761904768
1427.45,137.26171428571436
1429.49,99.80773333333337
1431.54,80.00719047619052
1433.58,39.38159523809529
1435.62,62.69032542857147
1437.66,44.26436661904764
1439.7,44.95823800000004
1441.74,52.76934909523814
1443.77,62.93311895238099
1445.81,55.78011900000004
1447.84,79.83131114285719
1449.87,66.03625238095242
1451.9,65.01107619047623
1453.93,83.37186190476196
1455.96,85.06793809523816
1457.98,101.81069047619059
1460.01,150.69226190476203
1462.03,174.3762380952382
1464.05,219.62133333333352
1466.07,286.80528571428596
1468.09,329.5916666666669
1470.11,407.3106666666669
1472.13,451.2449523809526
1474.14,481.96276190476215
1476.16,513.079904761905
1478.17,528.0693809523813
1480.18,489.64252380952405
1482.19,436.9386190476192
1484.2,337.47876190476205
1486.21,288.0217047619049
1488.21,209.2311095238096
1490.22,180.81831428571437
1492.22,137.35175238095246
1494.22,92.63770476190483
1496.22,71.57829523809528
1498.22,68.93243333333335
1500.22,36.98314761904766
1502.22,40.203942857142884
1504.21,45.16351904761908
1506.21,37.145016666666685
1508.2,43.5268523809524
1510.19,38.0208642857143
1512.18,34.19613809523811
1514.17,27.431288095238124
1516.16,49.962247619047645
1518.14,43.35832380952384
1520.13,50.569871428571474
1522.11,64.64265714285717
1524.09,60.955804761904794
1526.07,72.26946190476195
1528.05,66.53445142857144
1530.03,33.892096666666674
1532.01,21.960060000000027
1533.98,27.451365238095264
1535.96,35.841050476190524
1537.93,77.60424428571432
1539.9,87.45428952380955
1541.87,71.34279047619052
1543.84,88.41170476190483
1545.81,106.7081095238096
1547.78,107.89821904761912
1549.74,136.45777619047627
1551.7,156.62470476190484
1553.67,155.20801904761916
1555.63,176.4932000000001
1557.59,168.09939047619054
1559.55,149.7885238095239
1561.5,160.84614285714298
1563.46,160.12990476190484
1565.41,166.0684761904763
1567.37,159.37642857142868
1569.32,151.19714285714295
1571.27,168.48357142857154
1573.22,180.47395238095248
1575.17,184.74066666666675
1577.11,181.76076190476198
1579.06,161.24871428571439
1581.0,158.25323809523817
1582.95,159.20371428571437
1584.89,160.00561904761915
1586.83,177.51723809523818
1588.77,175.31114285714295
1590.7,185.38814285714298
1592.64,174.36861904761915
1594.58,163.56300000000007
1596.51,178.04371428571454
1598.44,237.81176190476248
