Raman Shift,Processed Intensity
331.095,60.75552142857103
333.909,35.18827380952374
336.721,35.15365238095238
339.531,45.267823809523826
342.339,16.64671428571431
345.145,43.69223333333335
347.949,47.54550000000002
350.751,17.872080952380973
353.55,33.33841428571433
356.348,63.56424000000002
359.144,39.122666190476224
361.937,46.63528952380956
364.729,69.9155290476191
367.518,95.25400380952392
370.306,147.56140904761918
373.091,228.36892095238113
375.874,277.2090000000002
378.656,286.56719047619066
381.435,268.07416952380964
384.212,207.456740952381
386.988,92.8717628571429
389.761,34.715985238095236
392.532,-22.421878095238114
395.301,-46.666159523809526
398.068,-43.900769523809544
400.833,-48.00836142857145
403.596,-36.72677714285715
406.358,-11.17307904761906
409.117,-13.319674285714287
411.874,-8.51819047619049
414.629,-12.261385714285714
417.382,-11.992723809523786
420.133,22.988595238095293
422.882,70.67109047619054
425.629,118.2350714285715
428.374,148.8148476190477
431.117,188.9742380952382
433.858,198.4694285714287
436.597,210.34318095238103
439.334,189.68760952380958
442.069,134.92912380952384
444.802,83.54300952380959
447.533,76.57664761904769
450.262,92.65046666666677
452.989,154.33784761904772
455.714,191.40417142857152
458.438,185.47232380952389
461.159,143.35661428571436
463.878,106.44374285714292
466.595,86.21617333333339
469.31,61.633290000000045
472.024,73.94156571428576
474.735,70.67283380952384
477.444,69.97893238095244
480.152,99.10782809523818
482.857,134.87895904761913
485.561,136.30280476190487
488.262,164.00959047619057
490.962,168.4391714285715
493.659,142.8413095238096
496.355,113.41862857142863
499.048,80.9451571428572
501.74,76.14776190476198
504.43,85.65796666666674
507.118,127.39362857142866
509.804,121.79633333333342
512.488,151.59326666666678
515.17,171.08328571428584
517.85,212.0416666666668
520.528,207.67200000000008
523.204,199.84447619047629
525.878,158.23909523809533
528.551,180.1069047619049
531.221,221.0319047619049
533.89,260.69347619047636
536.556,242.15204761904772
539.221,204.9912380952382
541.883,146.74700000000007
544.544,123.95523809523817
547.203,104.15071428571436
549.86,144.15452380952394
552.515,175.54914285714298
555.168,193.91661904761918
557.819,212.83861904761915
560.469,193.56333333333342
563.116,156.3379523809525
565.761,165.076761904762
568.405,177.59781904761917
571.047,161.14739047619057
573.687,160.4952095238096
576.324,139.12483809523818
578.96,131.709761904762
581.594,100.97071904761911
584.227,118.15190476190485
586.857,124.40120476190485
589.485,151.05678095238108
592.112,199.40876666666682
594.737,232.50860952380964
597.359,231.93100000000013
599.98,246.86900000000014
602.599,232.70561904761917
605.216,208.44280952380964
607.831,207.27180952380962
610.445,202.28828571428585
613.056,193.20676190476203
615.666,190.26409523809536
618.274,192.5546666666668
620.88,199.0768095238097
623.484,259.97090476190493
626.086,314.75766666666686
628.686,376.3865238095241
631.284,443.2814761904765
633.881,510.7237619047622
636.476,542.8512857142861
639.068,553.087285714286
641.659,518.9494761904764
644.249,456.14571428571446
646.836,393.24019047619066
649.421,326.9395238095239
652.005,238.7598523809525
654.587,155.78827619047627
657.166,107.58773809523814
659.745,70.81589047619055
662.321,65.4159666666667
664.895,50.997366666666686
667.468,47.83631428571432
670.038,48.77990000000004
672.607,63.86566666666671
675.174,58.797714285714314
677.739,82.13694285714291
680.303,85.2541571428572
682.864,101.90097619047626
685.424,109.92404761904767
687.982,83.17023333333334
690.538,20.248405714285717
693.092,-10.08982047619048
695.645,-15.330269523809505
698.195,6.231615714285741
700.744,35.44360190476192
703.291,48.05846523809525
705.836,12.162629523809503
708.38,-20.25250476190476
710.921,-10.195199999999975
713.461,22.517252380952435
715.999,78.1628095238096
718.535,120.92467142857147
721.069,131.46242857142863
723.602,136.96008571428578
726.133,123.31608095238103
728.662,121.23880000000007
731.189,123.96042857142865
733.714,106.76137142857151
736.238,107.39803809523815
738.759,119.1037333333334
741.279,94.92152380952386
743.798,95.65649523809529
746.314,79.16171428571434
748.829,84.14755238095245
751.342,80.70553809523815
753.853,99.21310476190482
756.362,108.38159047619055
758.869,120.35080000000008
761.375,133.97550952380962
763.879,132.34820000000008
766.381,111.84765714285722
768.882,105.04307619047627
771.38,110.40918095238104
773.877,125.18220000000007
776.372,135.83730476190482
778.866,98.51594285714289
781.357,83.69326666666672
783.847,84.3684952380953
786.335,116.35081904761917
788.821,161.25857142857154
791.306,184.99658095238107
793.789,194.89809523809538
796.27,195.15366666666677
798.749,220.14466666666684
801.227,259.8713809523811
803.702,300.7630476190478
806.176,342.4871428571431
808.649,364.9020476190478
811.119,360.7228571428574
813.588,347.33209523809546
816.055,314.8262857142859
818.521,275.92119047619065
820.984,245.57071428571444
823.446,226.6343809523811
825.906,208.8281904761906
828.365,180.53500000000008
830.821,193.09057142857156
833.276,174.54452380952392
835.729,170.37561904761918
838.181,194.68185714285727
840.631,191.32285714285723
843.079,154.39642857142866
845.525,175.42966666666675
847.97,151.37774285714295
850.412,131.8150857142858
852.854,126.31611428571435
855.293,115.69346666666672
857.731,90.5220476190477
860.167,115.80533333333341
862.601,135.7846000000001
865.034,140.03481428571436
867.465,126.84522380952387
869.894,117.79104285714293
872.321,99.49478571428578
874.747,119.19850000000011
877.171,157.33404285714298
879.594,184.52469523809538
882.014,181.4884761904763
884.433,175.3722857142858
886.851,160.75109523809536
889.266,187.3909047619049
891.68,200.771761904762
894.092,198.42161904761915
896.503,174.58257142857153
898.912,148.44904761904772
901.319,140.31066666666678
903.724,163.02842857142866
906.128,176.7969523809525
908.53,171.3822380952382
910.931,184.12176190476202
913.329,201.06680952380964
915.726,201.69768571428585
918.122,182.54209047619057
920.516,153.74660952380958
922.908,104.60121904761913
925.298,87.34775238095246
927.687,116.13264761904769
930.074,134.4360571428572
932.459,126.02369047619054
934.843,126.13698095238101
937.225,110.5894190476191
939.605,89.09873809523815
941.984,94.76366666666672
944.361,77.7781904761905
946.736,48.2409047619048
949.11,51.39305714285718
951.482,70.80932380952387
953.853,90.30253809523816
956.222,112.68528095238099
958.589,94.86523809523811
960.954,75.46449047619053
963.318,78.81884761904767
965.68,74.16910952380957
968.041,92.56568380952386
970.4,90.77285123809526
972.757,55.840587904761925
975.113,31.77125200000001
977.467,30.233374000000012
979.819,11.086268190476211
982.17,19.855623619047623
984.519,18.162201714285718
986.866,13.769530952380968
989.212,17.536261904761936
991.556,44.9875747619048
993.899,61.50568000000005
996.24,92.18681428571435
998.579,94.55589047619053
1000.92,100.70900476190484
1003.25,102.12308571428576
1005.59,84.2749047619048
1007.92,65.9268428571429
1010.25,78.22197904761909
1012.58,51.779700476190506
1014.91,34.93341523809526
1017.24,41.25450904761907
1019.56,30.218991428571453
1021.88,29.9218385714286
1024.2,48.88640285714289
1026.52,74.58839523809529
1028.84,71.6937190476191
1031.16,100.43974285714293
1033.48,98.87308571428576
1035.79,122.94502857142868
1038.1,159.03548095238105
1040.41,216.19088571428583
1042.72,213.60052380952393
1045.03,215.97709523809533
1047.33,188.0332380952382
1049.64,164.95795238095246
1051.94,156.46390476190487
1054.24,167.59666666666675
1056.54,154.3068095238096
1058.84,151.44938095238103
1061.13,140.0700476190477
1063.43,120.16690476190485
1065.72,130.69014285714294
1068.01,142.7328095238096
1070.3,157.91133333333343
1072.59,169.55714285714294
1074.87,161.2390476190477
1077.16,196.00214285714304
1079.44,214.558142857143
1081.72,212.85728571428587
1084.0,242.89652380952398
1086.28,272.29280952380975
1088.56,347.0433333333337
1090.84,475.81180952380987
1093.11,582.9289523809528
1095.38,596.3445714285717
1097.65,554.0083333333336
1099.92,454.82238095238114
1102.19,382.2600000000002
1104.46,338.41357142857163
1106.72,343.470904761905
1108.98,341.85780952380975
1111.24,339.0478571428573
1113.5,369.1336190476193
1115.76,407.5407619047621
1118.02,434.74290476190504
1120.28,455.6418571428574
1122.53,459.3301904761907
1124.78,399.85276190476213
1127.03,359.15966666666685
1129.28,307.5340952380954
1131.53,248.35428571428588
1133.77,202.8082857142858
1136.02,178.60776190476201
1138.26,167.89323809523822
1140.5,191.42400000000015
1142.74,216.5311904761906
1144.98,222.21247619047634
1147.22,247.84704761904777
1149.45,262.05147619047636
1151.69,271.5384285714287
1153.92,274.44819047619063
1156.15,263.8741904761906
1158.38,216.29104761904773
1160.61,194.3635714285715
1162.83,159.18503809523818
1165.06,117.8018476190477
1167.28,108.59328571428578
1169.5,104.938980952381
1171.72,100.98051428571436
1173.94,100.1928571428572
1176.16,110.38442380952388
1178.37,88.36385238095244
1180.58,83.22560000000004
1182.8,48.11170000000001
1185.01,31.211857142857163
1187.22,17.573414285714307
1189.42,24.957847619047637
1191.63,14.603019047619066
1193.84,26.985052380952396
1196.04,24.48493333333336
1198.24,57.24558571428575
1200.44,54.88647142857145
1202.64,39.36033809523811
1204.84,32.57257619047621
1207.03,40.57142380952386
1209.23,43.26245238095244
1211.42,74.31314761904764
1213.61,66.81995238095242
1215.8,59.545885714285774
1217.99,62.96847142857147
1220.18,69.13664285714289
1222.36,68.09946095238098
1224.55,51.66798952380954
1226.73,49.60577428571433
1228.91,44.2478104761905
1231.09,55.97693142857149
1233.27,70.17577047619054
1235.44,77.7509752380953
1237.62,89.22820476190483
1239.79,117.13331904761912
1241.96,133.6112904761906
1244.13,172.95008095238106
1246.3,195.24678095238107
1248.47,211.50371428571447
1250.64,239.7703333333335
1252.8,270.85852380952406
1254.96,343.15185714285747
1257.13,422.7001428571431
1259.29,484.36295238095266
1261.44,536.6187619047621
1263.6,543.7554761904764
1265.76,516.7757619047621
1267.91,483.8727619047621
1270.06,418.1917142857145
1272.22,328.16376190476205
1274.37,280.2197619047621
1276.51,264.6478095238097
1278.66,244.97457142857158
1280.81,222.05971428571436
1282.95,186.28676190476202
1285.09,180.0868571428573
1287.23,187.8910000000001
1289.37,211.2732857142858
1291.51,212.04609523809535
1293.65,183.30723809523818
1295.78,166.01133333333348
1297.92,191.68490476190487
1300.05,200.71109523809537
1302.18,227.56900000000013
1304.31,243.83285714285728
1306.44,256.60014285714306
1308.57,281.3020000000002
1310.69,294.27419047619065
1312.82,283.0903809523811
1314.94,263.22938095238106
1317.06,245.17000000000016
1319.18,258.7235714285716
1321.3,279.9882857142859
1323.41,309.4898571428573
1325.53,332.0880000000002
1327.64,341.0227142857145
1329.75,383.34404761904784
1331.87,381.62542857142876
1333.98,389.6310000000002
1336.08,364.0292857142859
1338.19,333.2990000000002
1340.3,284.9176190476192
1342.4,267.3637142857144
1344.5,221.54371428571443
1346.6,208.8402380952382
1348.7,171.96942857142867
1350.8,156.3140476190477
1352.9,132.73242857142867
1354.99,134.89314285714295
1357.09,136.2734761904763
1359.18,136.3038095238096
1361.27,139.08057142857152
1363.36,148.03366666666676
1365.45,162.44957142857155
1367.54,173.85338095238106
1369.62,166.9602380952382
1371.7,171.15257142857155
1373.79,185.09733333333347
1375.87,236.65276190476206
1377.95,274.48590476190486
1380.03,276.597142857143
1382.1,236.27295238095246
1384.18,179.3708095238096
1386.25,142.74797142857156
1388.33,140.30945238095245
1390.4,130.9600714285715
1392.47,121.27099047619053
1394.54,101.05181428571431
1396.6,54.30203809523813
1398.67,47.35481428571432
1400.74,47.590457142857176
1402.8,55.4369428571429
1404.86,73.75065238095243
1406.92,75.43546190476192
1408.98,64.25225714285719
1411.04,61.961800000000025
1413.09,63.562819047619094
1415.15,48.76818571428575
1417.2,72.52886666666672
1419.25,77.50976190476197
1421.3,117.56628095238105
1423.35,134.55348095238102
1425.4,155.7551333333334
1427.45,124.55011428571434
1429.49,108.50783809523814
1431.54,85.53069047619053
1433.58,77.71166666666672
1435.62,74.52437809523815
1437.66,66.29978523809525
1439.7,50.130618095238134
1441.74,40.20479095238098
1443.77,59.5194990476191
1445.81,70.024670952381
1447.84,85.43186380952385
1449.87,78.54808571428576
1451.9,87.03710476190481
1453.93,86.32485714285721
1455.96,114.07511428571436
1457.98,130.95164761904772
1460.01,153.904142857143
1462.03,186.88238095238108
1464.05,239.45500000000018
1466.07,298.6197142857145
1468.09,351.04009523809543
1470.11,421.856285714286
1472.13,468.3036666666669
1474.14,509.80814285714325
1476.16,541.5578095238097
1478.17,532.3596190476194
1480.18,460.4490476190478
1482.19,404.0142857142859
1484.2,309.1004285714287
1486.21,256.1813809523811
1488.21,224.1120000000001
1490.22,193.41360952380958
1492.22,145.84628571428578
1494.22,119.31262857142865
1496.22,71.57277142857146
1498.22,45.86291904761908
1500.22,46.60981428571432
1502.22,33.049780952380964
1504.21,28.03841428571431
1506.21,28.002785714285718
1508.2,20.51301904761906
1510.19,21.42496666666669
1512.18,26.213707142857146
1514.17,19.497261904761928
1516.16,27.465183333333353
1518.14,35.40236190476193
1520.13,49.78432523809528
1522.11,54.03899476190477
1524.09,33.07062952380953
1526.07,21.83114238095239
1528.05,8.36784761904763
1530.03,10.966197619047644
1532.01,30.76890190476193
1533.98,40.20439333333335
1535.96,29.844092857142872
1537.93,30.402295238095252
1539.9,20.879169047619065
1541.87,22.46541904761908
1543.84,51.780207142857186
1545.81,71.91922380952384
1547.78,68.88289523809529
1549.74,91.48108571428578
1551.7,111.42875714285721
1553.67,117.4882857142858
1555.63,131.80305238095244
1557.59,144.70730476190485
1559.55,142.48731428571438
1561.5,141.3817714285715
1563.46,134.15366666666674
1565.41,118.94643809523816
1567.37,113.95179047619055
1569.32,143.93237142857154
1571.27,169.07956190476202
1573.22,177.25138095238106
1575.17,158.83014285714296
1577.11,143.53109523809533
1579.06,120.9268095238096
1581.0,129.9228095238096
1582.95,138.13938095238103
1584.89,140.38714285714292
1586.83,127.81033333333342
1588.77,128.6958095238096
1590.7,128.18725714285722
1592.64,126.09535238095245
1594.58,122.15930476190489
1596.51,125.3089333333336
1598.44,142.2121047619051
