Raman Shift,Processed Intensity
331.095,82.72106677823103
333.909,49.298876942616516
336.721,61.30820454393597
339.531,96.58239115322613
342.339,106.2881281502514
345.145,160.13975067553383
347.949,177.28019824902276
350.751,204.8524515792442
353.55,199.0947788962767
356.348,214.6740775228045
359.144,188.63826306424016
361.937,210.55913478930324
364.729,199.2466695820549
367.518,203.89188732248113
370.306,213.0668591242411
373.091,247.77233462001914
375.874,271.294893056428
378.656,283.1593324841351
381.435,276.79534466228597
384.212,222.48990424863314
386.988,125.67299132300195
389.761,57.82236152979567
392.532,25.03498288717219
395.301,25.55085354861785
398.068,70.086343374026
400.833,57.83420216746072
403.596,20.7016631530023
406.358,-14.308596406543074
409.117,-40.19368506711544
411.874,-61.37905830528507
414.629,-24.480414518002362
417.382,-15.589405213574537
420.133,26.20255206819911
422.882,86.56617235913109
425.629,167.3152477546605
428.374,288.1209278988986
431.117,471.4164766601489
433.858,633.5877430921405
436.597,785.2588704904842
439.334,915.7684816396063
442.069,966.550625964434
444.802,997.6585838249503
447.533,999.7172422393119
450.262,986.5421372736382
452.989,969.6632583365581
455.714,1002.1345667594619
458.438,992.676847710095
461.159,1022.3919906775782
463.878,998.3344128145568
466.595,916.7015298984143
469.31,859.3099415781994
472.024,817.2620928120227
474.735,787.6605543520841
477.444,818.5603984677796
480.152,812.2072889545329
482.857,818.2279520950083
485.561,828.582552382225
488.262,794.2789730045833
490.962,815.7061439499021
493.659,872.0149891571023
496.355,924.2136593821529
499.048,1030.7389555402165
501.74,1111.122990143027
504.43,1205.3265154029464
507.118,1327.2627275275
509.804,1459.9877376805675
512.488,1588.1291381816836
515.17,1693.314568705332
517.85,1808.7907586707265
520.528,1931.3282839172916
523.204,2044.8882281420524
525.878,2125.5745586227413
528.551,2186.1579305123214
531.221,2208.4566339906723
533.89,2245.3365890353075
536.556,2249.9018163825895
539.221,2215.446813250848
541.883,2172.1708338253907
544.544,2140.987407838762
547.203,2127.857668674802
549.86,2159.266538615564
552.515,2222.603675992991
555.168,2247.8777556739105
557.819,2333.5736066879226
560.469,2467.3188736647735
563.116,2627.931630652715
565.761,2830.991804460653
568.405,3055.8887884764854
571.047,3285.154770771164
573.687,3531.274252678947
576.324,3728.398329282407
578.96,3923.3923032307775
581.594,4025.8356795106843
584.227,4015.974541169248
586.857,3939.3405917038726
589.485,3778.3225784044153
592.112,3542.785334742955
594.737,3325.688822763569
597.359,3063.8976516625994
599.98,2827.2763106546104
602.599,2571.165354219316
605.216,2332.14330163421
607.831,2163.5504412690984
610.445,2049.536444404438
613.056,2076.8698838115884
615.666,2259.842990428298
618.274,2511.3192671770353
620.88,2863.2572932595326
623.484,3291.5202427370377
626.086,3703.5425459677126
628.686,4071.806074853555
631.284,4311.078232849224
633.881,4366.030997351815
636.476,4248.3361525668215
639.068,3938.712903326495
641.659,3527.8802508129625
644.249,3010.604606376568
646.836,2479.12835773518
649.421,2007.0746256496855
652.005,1534.3996396471075
654.587,1145.8213042199059
657.166,871.0572888348074
659.745,665.1107369892575
662.321,558.7940705059577
664.895,487.63374620837203
667.468,358.67977450098033
670.038,288.458095092406
672.607,230.3039050994862
675.174,190.98070143706082
677.739,200.25170416013725
680.303,163.35604171082196
682.864,106.67541235573026
685.424,60.9721741948274
687.982,34.627435170277295
690.538,15.40295259908953
693.092,67.63161035389612
695.645,93.12218550148373
698.195,111.34983096434189
700.744,109.69418402817655
703.291,107.34414151609326
705.836,83.2502540103942
708.38,108.55331055056422
710.921,102.53673285506648
713.461,181.34087430504542
715.999,258.8677951185141
718.535,325.54318038166866
721.069,350.03063903259954
723.602,310.5650504640412
726.133,227.2859111261273
728.662,171.7135382719939
731.189,83.32051179863083
733.714,43.91263989724803
736.238,55.1051627988968
738.759,43.27514699626636
741.279,51.08531270982621
743.798,16.341200411077352
746.314,-43.19927708565001
748.829,-54.34961050577476
751.342,-33.63751576435743
753.853,-38.25728501065669
756.362,-29.450716306716913
758.869,-37.93566661617797
761.375,-59.096514455175566
763.879,-55.841292911401524
766.381,-19.935017999730007
768.882,2.5241179022518736
771.38,22.67616421673347
773.877,30.28035167966891
776.372,6.667460722508622
778.866,39.692192401159446
781.357,86.92363790907393
783.847,140.7405107715217
786.335,181.85495476706774
788.821,234.31254232524907
791.306,307.6827491147278
793.789,466.2494286314368
796.27,642.9631915486411
798.749,852.7271184003198
801.227,1081.0634246455152
803.702,1243.5420304945624
806.176,1338.0186545448569
808.649,1351.3490978928126
811.119,1282.4368615791395
813.588,1171.1855259388913
816.055,1057.9273204277142
818.521,923.8993124957028
820.984,787.2434059850652
823.446,646.7682442897099
825.906,561.0920658957643
828.365,500.3093694459171
830.821,471.990912137082
833.276,460.6598985942687
835.729,440.5538840301556
838.181,397.3390583570581
840.631,355.2054826798362
843.079,310.4861353126271
845.525,282.94262446223956
847.97,242.19375805440723
850.412,206.95363736956097
852.854,189.65070305956306
855.293,170.09440021205592
857.731,168.18946246244332
860.167,156.1740056296867
862.601,125.52428801876658
865.034,124.6689945326575
867.465,158.37018745097885
869.894,175.86616197055037
872.321,194.9666826983189
874.747,181.91012490619778
877.171,136.9825205478046
879.594,126.66041379900616
882.014,118.8489546937044
884.433,103.40570704534139
886.851,124.1882658922068
889.266,170.05425589513425
891.68,199.7660916399591
894.092,200.13383317806938
896.503,225.4913749002917
898.912,237.02977726792506
901.319,212.65440806757397
903.724,228.17541699933008
906.128,238.9744007411423
908.53,195.05202039413098
910.931,219.98038083267102
913.329,230.14112434018944
915.726,214.77304805448193
918.122,219.49591188922477
920.516,242.73900836024586
922.908,253.31258955464455
925.298,274.93167505230576
927.687,263.54938365692897
930.074,251.35693179372538
932.459,245.8788700023556
934.843,273.6397480012906
937.225,327.4022083236041
939.605,339.6431751908649
941.984,335.64909100606246
944.361,331.2302004655953
946.736,312.14912038553894
949.11,290.54940952791867
951.482,275.71747176030976
953.853,238.36826873925247
956.222,272.8357944984241
958.589,297.6921214653871
960.954,278.8426369545259
963.318,256.6212796599748
965.68,189.88577614855058
968.041,145.35097259078248
970.4,174.01740458717632
972.757,153.02843842305356
975.113,128.43217422816042
977.467,106.46715866008117
979.819,44.22904996860598
982.17,5.813473536288257
984.519,30.649353609478112
986.866,20.975102172208153
989.212,54.45766556917306
991.556,70.24014255728525
993.899,78.27511874919355
996.24,85.61038200919847
998.579,99.34130451582541
1000.92,68.37274863392713
1003.25,77.4190680248771
1005.59,47.05172780439307
1007.92,40.12787708129508
1010.25,75.12368340104194
1012.58,88.4200481416342
1014.91,75.68356000475842
1017.24,93.72363898312506
1019.56,98.9687279468476
1021.88,110.2758175631534
1024.2,135.12092359705048
1026.52,125.83718325960945
1028.84,100.51961822291378
1031.16,104.0727547778647
1033.48,131.35348208722644
1035.79,153.07581520058056
1038.1,172.1442294978492
1040.41,196.74889989472058
1042.72,196.46094004806946
1045.03,210.9466891804318
1047.33,203.01533223780507
1049.64,181.66652004744992
1051.94,139.8522751899859
1054.24,130.04842168099367
1056.54,109.68315750977945
1058.84,111.37515098764334
1061.13,133.36211328663785
1063.43,145.26270431165267
1065.72,152.12415285821362
1068.01,170.23178153219487
1070.3,168.87091262190643
1072.59,145.46972635113798
1074.87,139.64688103697108
1077.16,127.0686570571088
1079.44,162.40133891244886
1081.72,183.02550205156695
1084.0,243.89315683805444
1086.28,279.956321089282
1088.56,313.07178309135134
1090.84,362.1915788997653
1093.11,414.7915648781918
1095.38,416.44284738009264
1097.65,423.19273623988784
1099.92,385.7076030260059
1102.19,320.8443107225203
1104.46,309.2692624583974
1106.72,295.8393549986481
1108.98,308.0305512831037
1111.24,335.7950243937621
1113.5,381.3230634268966
1115.76,413.5192650794511
1118.02,500.71682047353306
1120.28,537.5822781713791
1122.53,595.1631643331939
1124.78,651.0784600178267
1127.03,663.8519356263178
1129.28,606.9121520121053
1131.53,534.8305568293335
1133.77,443.5119618335416
1136.02,434.57549637282955
1138.26,517.4022275456941
1140.5,634.1827803588594
1142.74,757.8221007422499
1144.98,885.4156471353949
1147.22,945.7732011214589
1149.45,915.0379161565047
1151.69,817.0672710606668
1153.92,647.7664044617045
1156.15,481.08811590521464
1158.38,356.31858125056715
1160.61,268.31544901921734
1162.83,214.50784150491245
1165.06,185.51540350295363
1167.28,160.43401770612127
1169.5,104.26437724345851
1171.72,57.340558219056675
1173.94,48.66335415561116
1176.16,62.709800914155494
1178.37,70.71889208999528
1180.58,69.7868182181569
1182.8,29.2003012169439
1185.01,-7.801499739952305
1187.22,-10.788891875138688
1189.42,-20.18926674492377
1191.63,-9.23948091586044
1193.84,24.252238384201064
1196.04,53.192004430246925
1198.24,77.39074306864268
1200.44,116.89752437495144
1202.64,135.42813240699843
1204.84,171.74601591030296
1207.03,196.51942949971271
1209.23,209.41667007912702
1211.42,243.96321802313014
1213.61,276.54173550147425
1215.8,304.82063623214754
1217.99,383.3255123772924
1220.18,437.4867519153072
1222.36,444.3538226796263
1224.55,457.59527068321086
1226.73,454.4987184430415
1228.91,401.875625209369
1231.09,394.01366624258253
1233.27,386.67673113770434
1235.44,377.48587452982565
1237.62,396.4431239424057
1239.79,499.2171923974761
1241.96,621.0006195972683
1244.13,798.700246439183
1246.3,993.1753085783703
1248.47,1216.3802918950732
1250.64,1485.0792165334065
1252.8,1802.0837304639444
1254.96,2197.395964951073
1257.13,2645.4466281155833
1259.29,3053.095003259166
1261.44,3383.962280522239
1263.6,3538.5744123513036
1265.76,3480.4573499186736
1267.91,3248.0894223993455
1270.06,2909.282287676456
1272.22,2602.2285497133835
1274.37,2321.02556640205
1276.51,2041.4849716969434
1278.66,1800.466007272929
1280.81,1545.8279018021326
1282.95,1313.2870121355586
1285.09,1156.7025359133017
1287.23,1009.6955575080806
1289.37,926.8395225402032
1291.51,934.3745219163393
1293.65,964.7787187254435
1295.78,1044.1492989441958
1297.92,1154.0119935710172
1300.05,1281.6544102838998
1302.18,1422.0307936696613
1304.31,1632.7144045008317
1306.44,1805.992756155381
1308.57,1972.3438034174114
1310.69,2148.38832175403
1312.82,2365.1756199255565
1314.94,2558.85020497668
1317.06,2771.9851138942868
1319.18,2887.200959550995
1321.3,2914.023071886788
1323.41,2765.9291152811156
1325.53,2530.6348011631067
1327.64,2232.0462672884464
1329.75,1925.9743617781455
1331.87,1620.706070014468
1333.98,1398.14737010827
1336.08,1166.2994216996835
1338.19,972.6871357111672
1340.3,806.6448869577212
1342.4,664.7927029475582
1344.5,547.4172145875541
1346.6,477.70974974582896
1348.7,434.6234744333865
1350.8,430.7781530333723
1352.9,394.98395614937135
1354.99,370.8128875013399
1357.09,319.2178298691488
1359.18,268.1039719885189
1361.27,213.2811878279099
1363.36,183.6545111034966
1365.45,160.31937169891535
1367.54,155.56159398977024
1369.62,167.14310945385932
1371.7,193.20671690044855
1373.79,190.7046522233568
1375.87,190.7319200588081
1377.95,206.57391115756354
1380.03,214.13497213801202
1382.1,217.17649904878
1384.18,189.0312214075425
1386.25,145.79367671601813
1388.33,134.46306592735573
1390.4,125.56229938971182
1392.47,112.94751898030245
1394.54,59.71285833469574
1396.6,9.09520307611092
1398.67,-15.3829537172046
1400.74,19.324582050654044
1402.8,36.88294292565752
1404.86,63.19524505871914
1406.92,76.21211163976568
1408.98,109.88405729614442
1411.04,162.59006296722555
1413.09,251.89948411233263
1415.15,373.3339589186767
1417.2,531.7483641283325
1419.25,722.0451041985525
1421.3,876.2217337954066
1423.35,943.9423898112318
1425.4,915.9663662392231
1427.45,824.8624033337574
1429.49,683.2467862945068
1431.54,535.9738249029547
1433.58,436.2310950636611
1435.62,357.01563272648855
1437.66,316.46727066596395
1439.7,308.05911811778924
1441.74,285.0261356534452
1443.77,261.74609100717635
1445.81,302.5967053791692
1447.84,346.0508949768182
1449.87,372.67677446076004
1451.9,402.9948032480452
1453.93,413.23969372008787
1455.96,458.2175575258311
1457.98,536.8773375992232
1460.01,661.929859224294
1462.03,885.562119195481
1464.05,1205.9610987874726
1466.07,1602.3137672012513
1468.09,2090.9975612006106
1470.11,2654.0089599867642
1472.13,3262.011107692
1474.14,3916.0957215876215
1476.16,4399.021190768073
1478.17,4641.069722454123
1480.18,4597.5235359150765
1482.19,4278.855342105294
1484.2,3733.06168044354
1486.21,3131.662922259025
1488.21,2457.846131380286
1490.22,1876.3222104383585
1492.22,1391.2306662175656
1494.22,1010.9491369110733
1496.22,718.0933955669097
1498.22,536.9459249625747
1500.22,400.69401628915693
1502.22,291.09643926403896
1504.21,227.95963605311545
1506.21,174.61391519301787
1508.2,131.961074084767
1510.19,90.33154529693729
1512.18,60.389161916452395
1514.17,10.607351470805497
1516.16,6.411996516949785
1518.14,0.27667618257601134
1520.13,14.436955326435509
1522.11,10.033245127232476
1524.09,7.586997005854755
1526.07,-20.665960595260913
1528.05,-9.82303781371229
1530.03,-8.267260873472878
1532.01,9.04701493273842
1533.98,10.68934364787674
1535.96,4.086521459370488
1537.93,-16.286937634929473
1539.9,-9.765945208427638
1541.87,19.12420868873687
1543.84,40.9059485718285
1545.81,77.00655319474572
1547.78,101.7105333184827
1549.74,118.11200947958378
1551.7,146.06708975860374
1553.67,235.0986285009426
1555.63,298.9200326567325
1557.59,385.5304966921508
1559.55,460.2149994054985
1561.5,501.6871578861287
1563.46,542.8035100448114
1565.41,559.4682733345694
1567.37,513.3476272810358
1569.32,445.44113886995774
1571.27,360.36747364898065
1573.22,289.5072496865796
1575.17,250.9077962928941
1577.11,230.0926746453265
1579.06,223.49024603318503
1581.0,230.71938295946802
1582.95,237.6847040521743
1584.89,253.1956184994233
1586.83,247.87108477028414
1588.77,237.71103600227525
1590.7,215.90590062695446
1592.64,166.16993251932672
1594.58,113.16977924248795
1596.51,65.04828838751109
1598.44,31.972123437133632
