Raman Shift,Processed Intensity
331.095,120.33247871282765
333.909,80.84684694618682
336.721,61.01987911483229
339.531,65.51825389631631
342.339,125.38962637090754
345.145,180.8483543181992
347.949,198.60884356130828
350.751,215.90936950156538
353.55,233.988279605589
356.348,229.51257684473967
359.144,235.91126503934902
361.937,205.1372656315034
364.729,132.3340963626042
367.518,134.55016899854854
370.306,175.7388013406162
373.091,262.90108637923277
375.874,322.133523352506
378.656,320.72326785236146
381.435,279.6719533592732
384.212,209.1718937293581
386.988,108.41561901481145
389.761,49.50064937956449
392.532,12.143792824478624
395.301,2.3478238649113337
398.068,22.353876494011274
400.833,1.5462180983940925
403.596,-22.166785912751948
406.358,-49.209800456796984
409.117,-69.00717277154945
411.874,-58.506729765663295
414.629,-41.60834317012905
417.382,-36.97345577692795
420.133,-34.072710393220405
422.882,19.7664158613361
425.629,133.50244860192106
428.374,292.2370343725315
431.117,461.50063280798804
433.858,635.3001287832813
436.597,740.9759683724533
439.334,869.3926281407935
442.069,985.2243225322868
444.802,1045.3359493522944
447.533,1054.164035250234
450.262,1021.6214907260892
452.989,961.7642698987997
455.714,927.8389826555881
458.438,921.4733639441624
461.159,913.4381716363318
463.878,906.5043224868746
466.595,857.3476471400118
469.31,830.6441213263638
472.024,797.7841446789521
474.735,781.348724311089
477.444,754.3475631561932
480.152,777.4095292599745
482.857,769.2112203107263
485.561,803.9055281696096
488.262,842.5502034009523
490.962,879.2983245644327
493.659,905.5411484596648
496.355,930.3842937041018
499.048,977.3144005014406
501.74,1073.9134094576193
504.43,1156.906173730154
507.118,1311.0175949869945
509.804,1444.3059498415791
512.488,1552.5438353355003
515.17,1714.932447754511
517.85,1859.1968138254829
520.528,1941.252450484776
523.204,2040.681548456154
525.878,2090.6853463048774
528.551,2128.798409253718
531.221,2229.9838603799067
533.89,2289.919088002568
536.556,2322.7576435463443
539.221,2239.6054251192945
541.883,2156.1397182336636
544.544,2122.1806174790295
547.203,2152.929114862103
549.86,2196.7289976703482
552.515,2244.9716034784587
555.168,2258.0481942024508
557.819,2352.683282534721
560.469,2518.934625045758
563.116,2729.8122629049194
565.761,2938.992800696445
568.405,3116.4384471402395
571.047,3264.444627241227
573.687,3456.4971182482277
576.324,3642.367280850932
578.96,3838.5882427578213
581.594,3971.550129893153
584.227,4003.6429166415287
586.857,3923.7326094258274
589.485,3822.351715999399
592.112,3640.556381404942
594.737,3413.7835239333986
597.359,3103.8984472732886
599.98,2786.194833612461
602.599,2505.156641501729
605.216,2320.4580989566075
607.831,2161.1065537019003
610.445,2073.0615138924995
613.056,2062.615593596084
615.666,2225.2992677996135
618.274,2487.118960749177
620.88,2893.3189438136333
623.484,3338.143233348255
626.086,3782.8355837964677
628.686,4149.020433172538
631.284,4364.845753306187
633.881,4375.792566753831
636.476,4250.627320852723
639.068,3942.544737965535
641.659,3534.167808582122
644.249,3030.595403468878
646.836,2500.783219151444
649.421,1965.3056757783602
652.005,1536.784481651393
654.587,1116.2695787082416
657.166,803.4296118147658
659.745,584.5995409143688
662.321,469.2568246059336
664.895,366.06903229321097
667.468,346.8938372865705
670.038,284.4932956190378
672.607,236.67669629091233
675.174,175.0624591334331
677.739,121.74479457718553
680.303,72.43655389671221
682.864,60.80255564558547
685.424,60.07863871312202
687.982,36.405008794692094
690.538,0.44530561115652745
693.092,-30.56575214182567
695.645,-27.82233701107225
698.195,-29.995102001732448
700.744,3.8164648457591284
703.291,-2.820698169415209
705.836,29.80298404115365
708.38,79.01593420291601
710.921,137.43210942316682
713.461,198.28435460252877
715.999,243.56727965595383
718.535,278.4182319718311
721.069,316.9268402996586
723.602,303.6588443520168
726.133,225.27516250177177
728.662,157.57953090785531
731.189,65.13757121246954
733.714,24.03871538115436
736.238,23.086701971421007
738.759,2.751977163290576
741.279,-19.637808972066978
743.798,-51.421591917990554
746.314,-71.27153930082704
748.829,-72.3835070022551
751.342,-61.28654289064798
753.853,-66.12858820068413
756.362,-26.43837666038644
758.869,-41.268285999125965
761.375,-43.57528469370891
763.879,-42.41140252400419
766.381,-62.066582080935405
768.882,-89.16391122686127
771.38,-49.992950794052376
773.877,-37.224014664126116
776.372,1.1870649200222942
778.866,47.9989339470535
781.357,87.3037608490663
783.847,148.43199499918956
786.335,223.76188711394389
788.821,291.8623429889258
791.306,373.5881581868812
793.789,495.93715748767727
796.27,657.4311438620953
798.749,885.3539903027627
801.227,1110.4659221312754
803.702,1279.717799305316
806.176,1382.4892082495894
808.649,1386.6360774962677
811.119,1294.6335314207058
813.588,1194.8616011199883
816.055,1063.652840053389
818.521,926.5304158733102
820.984,853.5414403514633
823.446,742.1141088288555
825.906,637.8196015705339
828.365,567.086366072715
830.821,457.10487556038606
833.276,378.73238748490485
835.729,368.254844878747
838.181,342.9106824721589
840.631,357.0336804288813
843.079,344.5767704628238
845.525,321.01679433569143
847.97,268.30688140223447
850.412,259.40025472693196
852.854,241.44070386733756
855.293,242.00067670504905
857.731,219.0336569909523
860.167,241.82654189046025
862.601,181.8091623858927
865.034,174.55427986932682
867.465,119.58710654498009
869.894,102.62339726016353
872.321,126.28373181243069
874.747,189.56970201862077
877.171,179.95914640295132
879.594,209.83471821844887
882.014,183.1029296588531
884.433,174.81319607052274
886.851,180.96735635482037
889.266,178.37681241810787
891.68,174.23395433603537
894.092,206.25501408925675
896.503,241.0133954896305
898.912,252.0825279159335
901.319,257.4644343353043
903.724,264.58972789609606
906.128,279.36522756835484
908.53,282.888240450965
910.931,291.3037012216514
913.329,308.5660734917383
915.726,311.15363211328986
918.122,306.25893596243486
920.516,288.4554911988853
922.908,261.4596526206951
925.298,276.41633454282373
927.687,317.2323407233266
930.074,319.195408575255
932.459,318.9742057595058
934.843,347.18975534911306
937.225,356.1773371840054
939.605,380.0341035114884
941.984,361.8571708171994
944.361,340.02933070368954
946.736,324.07618934043194
949.11,317.5709259614496
951.482,310.8009561248532
953.853,291.5298330676169
956.222,270.23533953654214
958.589,263.29996057160906
960.954,284.1061181940813
963.318,295.03616799937663
965.68,297.4247767023153
968.041,245.51129968237274
970.4,211.05882519559827
972.757,139.30655191986307
975.113,110.82692840486925
977.467,86.28755442692227
979.819,51.3083204389327
982.17,21.08045178233806
984.519,12.128410041872485
986.866,-3.023443694901289
989.212,10.768197516763848
991.556,20.456062649073374
993.899,40.56420712770205
996.24,75.80706121761659
998.579,82.27990904530543
1000.92,75.50651047814563
1003.25,75.6771991942469
1005.59,67.93459979991394
1007.92,53.37363066139915
1010.25,51.565316260457166
1012.58,50.509170978476504
1014.91,45.061773356792855
1017.24,59.12724511891702
1019.56,72.75249209751792
1021.88,66.93673087569141
1024.2,70.53625352347308
1026.52,81.02633519149003
1028.84,108.12028456175312
1031.16,142.76944667940643
1033.48,146.5917772130465
1035.79,139.34803576266086
1038.1,121.60845535804856
1040.41,130.2765548143766
1042.72,144.82723680202525
1045.03,179.02107639262613
1047.33,181.38051436699607
1049.64,158.18986004689032
1051.94,130.78100841246987
1054.24,127.0572524578588
1056.54,90.58852411813223
1058.84,94.13520662487917
1061.13,114.98147067128093
1063.43,114.84003914861933
1065.72,123.23314235897806
1068.01,154.6353779898468
1070.3,143.14038061253495
1072.59,145.0798721329652
1074.87,167.9284265281799
1077.16,161.44632982094527
1079.44,159.77482100673387
1081.72,161.3408567902202
1084.0,178.52378108369248
1086.28,223.41723260069784
1088.56,298.1148619735054
1090.84,377.61509648960737
1093.11,431.29733339965424
1095.38,451.8267046539677
1097.65,439.63027021046764
1099.92,407.27797324737503
1102.19,353.53026204258094
1104.46,312.52856899587186
1106.72,279.4143610797282
1108.98,282.3767617186868
1111.24,305.74779171633145
1113.5,351.8595149441835
1115.76,424.234517363921
1118.02,493.6335289067483
1120.28,588.6744739241958
1122.53,663.737235924621
1124.78,705.725565166867
1127.03,694.2575576824843
1129.28,638.0942295360455
1131.53,534.1395196568919
1133.77,457.8212450518231
1136.02,417.23396077968664
1138.26,450.04372468786096
1140.5,565.0119097677925
1142.74,719.7094927010094
1144.98,839.9932471670418
1147.22,898.6724133418124
1149.45,882.3182245388807
1151.69,768.8829576602106
1153.92,641.3189836469337
1156.15,519.7216274539282
1158.38,380.0434565958226
1160.61,294.52285540729235
1162.83,248.4935516843061
1165.06,176.86080999203614
1167.28,154.19667259182143
1169.5,100.3113908443147
1171.72,64.2058089935831
1173.94,44.928509855977154
1176.16,60.19486527089475
1178.37,45.529896075366196
1180.58,49.744465411963574
1182.8,12.173376798614754
1185.01,-30.94367065871984
1187.22,-58.89065086290748
1189.42,-15.52282569780482
1191.63,-17.0286490639578
1193.84,9.68927484335154
1196.04,27.20466017130866
1198.24,15.90086336438253
1200.44,48.20897003033997
1202.64,93.98874171984335
1204.84,80.43337387733709
1207.03,110.54568236335126
1209.23,161.47143283394053
1211.42,217.49933678680281
1213.61,327.15628570261924
1215.8,383.1597280435508
1217.99,414.22718910887215
1220.18,447.40960041442077
1222.36,464.4722481196618
1224.55,456.60905478809036
1226.73,450.3949563857236
1228.91,389.5001840415034
1231.09,350.2616886648425
1233.27,326.9212322298422
1235.44,329.67300286903173
1237.62,387.09218234806804
1239.79,456.7539897309043
1241.96,577.7098679021046
1244.13,739.0589081843968
1246.3,945.6145130514624
1248.47,1204.904392174064
1250.64,1511.789606085215
1252.8,1806.6074193691566
1254.96,2212.599868136056
1257.13,2636.4375655919434
1259.29,3084.7911266562573
1261.44,3491.188306865129
1263.6,3647.7759031794044
1265.76,3582.938797649827
1267.91,3370.6332867964957
1270.06,3005.9585062264196
1272.22,2596.632617155832
1274.37,2274.7547072182138
1276.51,1934.7571674627925
1278.66,1665.2628312578113
1280.81,1444.4183036699783
1282.95,1255.13205274869
1285.09,1073.6934531912034
1287.23,956.4870681030384
1289.37,901.4212164726796
1291.51,887.4517787415002
1293.65,928.0583833260807
1295.78,994.101545521466
1297.92,1098.6321873568145
1300.05,1233.9868717367508
1302.18,1422.549703249394
1304.31,1620.4666099267693
1306.44,1798.5024821480774
1308.57,1989.2316448762958
1310.69,2201.514044180496
1312.82,2391.923814710547
1314.94,2578.1778471718094
1317.06,2763.8500700855616
1319.18,2825.561922025604
1321.3,2865.363300045336
1323.41,2755.3516033429464
1325.53,2510.1003007360987
1327.64,2209.039879089013
1329.75,1938.0292679300264
1331.87,1601.2605974024746
1333.98,1349.4496705012975
1336.08,1106.5502448334596
1338.19,901.5159334259779
1340.3,720.4430579149171
1342.4,587.427787448662
1344.5,457.13756330548813
1346.6,371.38252351112124
1348.7,316.06787983725144
1350.8,315.5748662286228
1352.9,292.4750205634523
1354.99,281.19684736622776
1357.09,237.0734329014549
1359.18,177.53291741026487
1361.27,85.8127768708282
1363.36,61.102676187339966
1365.45,42.163512855199315
1367.54,68.04169872142438
1369.62,90.78344787580136
1371.7,122.91097362771416
1373.79,123.51773310202498
1375.87,142.17319564447962
1377.95,134.58951598901876
1380.03,138.8120169489007
1382.1,141.02871972687444
1384.18,122.80844565392727
1386.25,122.71987030898345
1388.33,90.5220062100293
1390.4,41.68801883857077
1392.47,13.97666171171295
1394.54,5.9560924066158805
1396.6,-11.90088284362082
1398.67,-2.7882297804012524
1400.74,-3.328582321839349
1402.8,-10.62085431263722
1404.86,-24.430708708426664
1406.92,-11.761979488668658
1408.98,14.714762456100743
1411.04,101.32887892203598
1413.09,236.26680894615538
1415.15,373.61969104065884
1417.2,541.9547949510584
1419.25,715.8869534143028
1421.3,858.3166605835754
1423.35,949.9538847388039
1425.4,950.5085476638415
1427.45,855.3095754522124
1429.49,703.2572826462065
1431.54,553.6328992331073
1433.58,440.0509547842803
1435.62,373.7926149752093
1437.66,352.9485419150642
1439.7,339.37127828578787
1441.74,318.6276314811894
1443.77,290.5224863174676
1445.81,266.717855838971
1447.84,269.2090749811041
1449.87,314.0390894713323
1451.9,345.96512568256594
1453.93,412.7920271532048
1455.96,482.80082920243103
1457.98,574.2249525931088
1460.01,733.345444813745
1462.03,965.7290785033033
1464.05,1258.4664498760121
1466.07,1632.9338866699927
1468.09,2151.7458322863586
1470.11,2734.1834204045113
1472.13,3401.718287692664
1474.14,3986.1554341374112
1476.16,4482.72846432568
1478.17,4685.861495393341
1480.18,4689.312017354785
1482.19,4379.647086765805
1484.2,3895.1480918150887
1486.21,3234.3821840823393
1488.21,2584.583234105947
1490.22,1946.3661202839767
1492.22,1440.8695892037426
1494.22,1044.1848302570806
1496.22,773.4030978746678
1498.22,574.4728575698741
1500.22,428.5331224587967
1502.22,309.0563135898269
1504.21,222.65778693988977
1506.21,170.0005985059256
1508.2,123.03360272969894
1510.19,79.37240806547015
1512.18,47.48985635719009
1514.17,33.811264120454325
1516.16,30.809663824466043
1518.14,51.672473745420575
1520.13,55.87292972465775
1522.11,44.455802641099126
1524.09,7.180258740833324
1526.07,-7.33728003330225
1528.05,-29.337418569277816
1530.03,-19.917784679786564
1532.01,-3.9854068976483177
1533.98,-4.8757620195615345
1535.96,-12.209919955829719
1537.93,5.438787204806886
1539.9,23.068571823939237
1541.87,44.630138942982285
1543.84,52.78858744096351
1545.81,42.16150166850366
1547.78,79.22370974846808
1549.74,136.49775616231727
1551.7,175.26818386028162
1553.67,228.10534018105682
1555.63,286.57965896197766
1557.59,329.02356169680934
1559.55,419.5790729792552
1561.5,490.67400737503704
1563.46,510.831489627305
1565.41,505.0985224811002
1567.37,465.18884022209704
1569.32,381.86385745344614
1571.27,323.36123692023284
1573.22,271.63298114346617
1575.17,238.15495262548302
1577.11,199.30782262679304
1579.06,186.80563899053595
1581.0,168.93391777646275
1582.95,137.69249679968743
1584.89,119.17648440752782
1586.83,106.48101778016462
1588.77,101.55840218367393
1590.7,123.21810736592579
1592.64,123.69819252391108
1594.58,97.23673127105849
1596.51,64.76228422361055
1598.44,36.10818111078879
