Raman Shift,Processed Intensity
331.095,109.42572818215558
333.909,35.95907246793104
336.721,18.45497334589345
339.531,40.080108380908314
342.339,83.23927217230812
345.145,124.8849110616402
347.949,156.3504673641628
350.751,201.25515217182146
353.55,213.64681339428626
356.348,212.95432760955737
359.144,215.79713477167752
361.937,194.22334434703862
364.729,161.13831764116094
367.518,190.9713453635677
370.306,167.5804204307624
373.091,207.15701076921687
375.874,262.32130830883125
378.656,288.83652559547045
381.435,230.46604954631312
384.212,160.64011901476442
386.988,46.40821664104078
389.761,-15.03711072578426
392.532,-32.97928874860281
395.301,8.965152438820041
398.068,26.608492306765584
400.833,53.334682814868756
403.596,51.670783646493874
406.358,-3.236837976303832
409.117,-49.38440271590571
411.874,-68.19642406607181
414.629,-32.14474697349124
417.382,13.870503228941743
420.133,76.42567829804466
422.882,146.2402657712155
425.629,226.98640624303607
428.374,335.5746011180727
431.117,513.582277506514
433.858,708.587115024583
436.597,873.1194202139873
439.334,1011.0906914375564
442.069,1070.7936123463196
444.802,1077.7115691560994
447.533,1092.2805488764875
450.262,1072.9367518255376
452.989,1067.7356327158832
455.714,1099.7328465027658
458.438,1109.1270989939685
461.159,1057.9744260311827
463.878,1042.8548536237604
466.595,968.4438199872138
469.31,894.5121690103069
472.024,865.1642389602371
474.735,850.2188083306592
477.444,839.0186131182827
480.152,860.4779593375715
482.857,875.1303355354516
485.561,881.0807872107839
488.262,888.2440055195398
490.962,937.5824159799772
493.659,990.8680767016258
496.355,1032.3493385190277
499.048,1110.7984575064238
501.74,1210.3211122543516
504.43,1320.4516354319467
507.118,1450.7244358254543
509.804,1584.2930394243504
512.488,1736.025320983647
515.17,1847.932068919556
517.85,1995.833645443216
520.528,2126.7885514563472
523.204,2224.0458009707145
525.878,2302.1401526704344
528.551,2385.0349605219176
531.221,2372.598357717133
533.89,2393.9365834740197
536.556,2415.4415955511768
539.221,2401.267254191136
541.883,2365.853125111244
544.544,2339.54352058979
547.203,2304.825588171181
549.86,2321.2816850854024
552.515,2370.3988955246077
555.168,2431.1880717292647
557.819,2516.755256026667
560.469,2638.7302457265923
563.116,2828.5523008740893
565.761,3087.9463281927774
568.405,3308.7323983614324
571.047,3555.1590728144242
573.687,3747.284349589739
576.324,3929.6423234627455
578.96,4115.243179413268
581.594,4253.620805140301
584.227,4268.547070243381
586.857,4231.936581594431
589.485,4078.27524823342
592.112,3841.3821795973527
594.737,3575.266821844495
597.359,3305.2241894166978
599.98,3017.168191839812
602.599,2775.3935319526863
605.216,2531.14712794568
607.831,2343.8185830182224
610.445,2230.463988369708
613.056,2286.0440119046766
615.666,2394.0429393189333
618.274,2663.040096138074
620.88,3022.2812697559852
623.484,3480.3929886162177
626.086,3939.049182345742
628.686,4367.256889507739
631.284,4578.356251068693
633.881,4597.639551484515
636.476,4429.589307405702
639.068,4125.783023049171
641.659,3699.8455646177185
644.249,3193.449153767093
646.836,2672.265742025438
649.421,2126.871766165129
652.005,1622.3671892888851
654.587,1230.6612085825527
657.166,938.6627249726494
659.745,726.9946223077241
662.321,586.0889989206762
664.895,466.1395420482154
667.468,379.62533082174514
670.038,304.73940116303265
672.607,275.86492972747874
675.174,231.52760832359627
677.739,199.30039928486258
680.303,157.56543369872588
682.864,154.37114773085023
685.424,97.14656180650263
687.982,79.12984550622741
690.538,26.17783484246911
693.092,39.05174001239402
695.645,41.32190076975667
698.195,52.89159220078909
700.744,39.13988221174077
703.291,37.445445724110414
705.836,21.424670049993892
708.38,88.88405011051918
710.921,127.34401619404343
713.461,208.18181165840315
715.999,288.06008491887906
718.535,306.6888147694981
721.069,306.1110452281441
723.602,297.94100133404527
726.133,199.4117287547947
728.662,129.0417810124086
731.189,71.58762099510932
733.714,32.519831992910895
736.238,28.975519209402137
738.759,34.282147308569165
741.279,42.00519106662205
743.798,24.75769400059744
746.314,28.77173554623687
748.829,3.707998079776189
751.342,-30.106091846480012
753.853,-71.9620285641854
756.362,-78.19874906054565
758.869,-83.05972985075641
761.375,-75.21675982096804
763.879,-76.0556280530177
766.381,-87.05706069652342
768.882,-95.89195339357684
771.38,-47.84994701868345
773.877,1.6843659139080955
776.372,48.65998376991092
778.866,69.78803222719216
781.357,81.30363424231518
783.847,103.15635691137413
786.335,146.86733263263386
788.821,201.3863890434659
791.306,317.13966597832996
793.789,458.93437528390814
796.27,706.4826082532809
798.749,987.3537144886805
801.227,1164.4028712404383
803.702,1310.8187003649714
806.176,1399.3613614732485
808.649,1393.6006450792602
811.119,1377.0112086056383
813.588,1323.9249552464044
816.055,1168.3405556868652
818.521,1008.6377317282722
820.984,877.9105875315377
823.446,739.8247503847524
825.906,645.8554638516589
828.365,573.7637761582287
830.821,507.0251095315998
833.276,419.63878191998674
835.729,381.74705252209833
838.181,356.0636911260899
840.631,341.6358807818374
843.079,317.70135856845536
845.525,287.54555636181294
847.97,259.02540826869654
850.412,255.47411044192404
852.854,241.93921422878384
855.293,241.6588145575788
857.731,210.4901192765451
860.167,188.671351826114
862.601,177.29793962544454
865.034,196.7034643637362
867.465,205.3644218153363
869.894,205.18593403580553
872.321,198.07317584370503
874.747,202.5028013023816
877.171,189.80865591604106
879.594,207.65796501629166
882.014,227.19418881536012
884.433,223.89416317358246
886.851,210.56809750976345
889.266,216.5500489020028
891.68,210.98363428376797
894.092,227.67917121138817
896.503,248.54224720298953
898.912,297.0499081250464
901.319,281.5839894360779
903.724,271.52635219224703
906.128,268.44935714819167
908.53,254.4968150483419
910.931,248.2411273944267
913.329,290.8737605463152
915.726,275.5861960133311
918.122,288.18897598365857
920.516,290.6355107585159
922.908,268.83160047203637
925.298,287.5401949063912
927.687,325.57186759262413
930.074,367.022908959113
932.459,416.9896099562093
934.843,420.9015932999396
937.225,408.66466852521535
939.605,398.75606799143225
941.984,423.938730507115
944.361,430.02320400218787
946.736,444.72478629547777
949.11,416.2825706241251
951.482,382.2213483158548
953.853,353.25636860409213
956.222,363.00762225261315
958.589,330.95222041828583
960.954,320.42439256143234
963.318,308.4726272133321
965.68,316.6691936961115
968.041,278.1101400331022
970.4,252.03433847825545
972.757,202.49015009316463
975.113,143.00208932409305
977.467,109.99939334090732
979.819,82.57792470934191
982.17,19.643026444207862
984.519,13.814281824515547
986.866,24.711226589542548
989.212,55.810491678630115
991.556,48.255328317505246
993.899,43.617514056975324
996.24,44.27830643068137
998.579,54.047491850935785
1000.92,72.83005355217801
1003.25,108.57855382014804
1005.59,99.245516221054
1007.92,90.16437925932814
1010.25,72.95425955917881
1012.58,69.71042933184708
1014.91,62.14717479523961
1017.24,90.07398792689719
1019.56,82.82413916934274
1021.88,79.77848823066324
1024.2,89.46072345652692
1026.52,109.39450596409142
1028.84,114.43680425211505
1031.16,142.87313357296034
1033.48,109.94136673318371
1035.79,120.87935441793434
1038.1,124.06778361059014
1040.41,111.69684553620073
1042.72,130.57576074777944
1045.03,169.03754230783852
1047.33,172.5104256365844
1049.64,175.61310788392802
1051.94,160.58332063483113
1054.24,107.75402166226377
1056.54,122.07720572779363
1058.84,121.60009633454729
1061.13,144.5127660515991
1063.43,162.57670921931503
1065.72,161.83912894041032
1068.01,144.44246216624833
1070.3,160.57676192599047
1072.59,138.76541288907902
1074.87,164.2937040705865
1077.16,193.3516872508435
1079.44,168.3198925379338
1081.72,157.5788534539911
1084.0,182.89006059292933
1086.28,229.20548670674316
1088.56,334.858064172759
1090.84,431.0854957942224
1093.11,481.5540656008816
1095.38,496.02530679242227
1097.65,474.07028872953197
1099.92,421.06961821067216
1102.19,377.78486932028727
1104.46,325.7871561341567
1106.72,313.2190387580795
1108.98,329.6040484141736
1111.24,351.18002205098855
1113.5,382.66100838218745
1115.76,435.3801263061755
1118.02,508.099089992415
1120.28,615.5320196820107
1122.53,690.1073477263994
1124.78,691.2059151022231
1127.03,656.3990679262133
1129.28,611.0677063510216
1131.53,575.0689525086723
1133.77,528.8313898825759
1136.02,523.9264931557364
1138.26,525.640058058957
1140.5,610.7341074095134
1142.74,739.2087971498363
1144.98,865.0167033385765
1147.22,928.8247281892886
1149.45,959.2045775376937
1151.69,867.1565716422779
1153.92,751.9667893182263
1156.15,605.9689739761175
1158.38,444.7350110891848
1160.61,317.21778661296776
1162.83,257.7511882620888
1165.06,186.4310591679955
1167.28,155.54377058431373
1169.5,121.99479459219992
1171.72,87.64203871045311
1173.94,39.10537098181385
1176.16,41.48090696403324
1178.37,39.00767767331672
1180.58,31.972392765867426
1182.8,-3.9572248520044013
1185.01,-3.8752948899568764
1187.22,-9.352064111121308
1189.42,-14.243429271578862
1191.63,-0.024269982425721537
1193.84,27.449646028927873
1196.04,45.98927997707915
1198.24,70.07232002683259
1200.44,91.9384173966514
1202.64,86.68442246209315
1204.84,98.64533514497089
1207.03,162.34668387394004
1209.23,209.40928549746695
1211.42,216.31114805394373
1213.61,273.76842116084754
1215.8,331.68777497533347
1217.99,402.4044934405365
1220.18,460.96818657949825
1222.36,469.2856456462373
1224.55,438.50179351491215
1226.73,402.19015887851583
1228.91,368.019540923749
1231.09,354.46829305352503
1233.27,329.01479708565284
1235.44,341.28031840390804
1237.62,380.88614682338357
1239.79,459.92978507489624
1241.96,619.5087563370039
1244.13,827.2920308156458
1246.3,1049.1390713713995
1248.47,1279.0998315276897
1250.64,1557.605229669472
1252.8,1933.181432765732
1254.96,2387.0689019967353
1257.13,2863.03191457176
1259.29,3279.072847451587
1261.44,3582.432175356715
1263.6,3752.683706870809
1265.76,3727.782201496542
1267.91,3518.015748616188
1270.06,3179.9105274046015
1272.22,2782.46890007554
1274.37,2422.3598860803563
1276.51,2106.776302973377
1278.66,1832.6252406105996
1280.81,1582.5280591579149
1282.95,1365.2013394802875
1285.09,1180.1235478166468
1287.23,1034.3921766452504
1289.37,967.1523141204921
1291.51,956.3585468430265
1293.65,1005.1082912013339
1295.78,1086.2608389989946
1297.92,1197.342117367678
1300.05,1332.9732582039446
1302.18,1543.2991676060428
1304.31,1721.988523882149
1306.44,1934.662346987168
1308.57,2124.608282245261
1310.69,2318.3044078818775
1312.82,2526.752566365324
1314.94,2713.3355052721377
1317.06,2844.4835419619762
1319.18,2930.5317044429894
1321.3,2944.5292531895716
1323.41,2860.811107722007
1325.53,2647.8549874718383
1327.64,2393.2814097900737
1329.75,2078.9965450982686
1331.87,1769.5255482300704
1333.98,1495.3458897727778
1336.08,1252.2683064565035
1338.19,995.5320372576507
1340.3,828.7095833118951
1342.4,665.3257535414518
1344.5,540.7624245680627
1346.6,459.7347291973997
1348.7,435.3862925225235
1350.8,419.71780136068173
1352.9,405.68224035676894
1354.99,357.47060427726046
1357.09,311.74999125651993
1359.18,277.94931509072285
1361.27,240.54501753178056
1363.36,227.39439962888628
1365.45,223.30704830815603
1367.54,191.0448343808439
1369.62,173.03619626583986
1371.7,166.04280466455566
1373.79,156.11194152151666
1375.87,190.48125993733856
1377.95,235.8644964626551
1380.03,256.9276595825172
1382.1,234.7652182007996
1384.18,184.90009964840965
1386.25,170.85511626292646
1388.33,164.67677292061808
1390.4,153.17336028274485
1392.47,136.1054289942358
1394.54,72.47150197762721
1396.6,16.127120060320976
1398.67,17.26103045899663
1400.74,9.252327644961952
1402.8,15.860929166473852
1404.86,26.322815109661406
1406.92,31.683363736181946
1408.98,90.41640300035215
1411.04,182.99564301867986
1413.09,284.370870444141
1415.15,434.39652379284826
1417.2,606.3078878183369
1419.25,810.9591926477528
1421.3,989.9664748228033
1423.35,1077.7075811978561
1425.4,1052.798363314217
1427.45,943.5212527268036
1429.49,799.2538363308013
1431.54,653.3260031169038
1433.58,527.7818528313037
1435.62,431.6177951118725
1437.66,403.68731529101706
1439.7,369.36764496042315
1441.74,361.8930992024784
1443.77,336.2122233455052
1445.81,312.32113019517465
1447.84,324.31112298021844
1449.87,385.3686992505109
1451.9,414.10888810849747
1453.93,479.48001601204123
1455.96,563.8113297201235
1457.98,663.2891906671134
1460.01,822.0999360037026
1462.03,1033.6203586854595
1464.05,1324.9891399423345
1466.07,1742.440186510079
1468.09,2289.588348814033
1470.11,2922.7627582005325
1472.13,3548.9592117873754
1474.14,4120.744938266649
1476.16,4608.353839898056
1478.17,4895.686496406988
1480.18,4900.4530260254505
1482.19,4604.7921370091935
1484.2,4004.6997029643576
1486.21,3306.600195316963
1488.21,2632.013353877662
1490.22,2035.7446669302767
1492.22,1534.9806132250947
1494.22,1127.4315230198017
1496.22,788.6649153108688
1498.22,580.3435969697093
1500.22,458.08280949788605
1502.22,373.1168995918392
1504.21,307.0136087552305
1506.21,239.5788391017677
1508.2,157.61856201517185
1510.19,87.12929823771219
1512.18,78.01240748255032
1514.17,70.88361614132737
1516.16,33.78730689651684
1518.14,19.291760714722386
1520.13,7.584398839981532
1522.11,-9.004403784364968
1524.09,9.760590144295293
1526.07,10.638531804956983
1528.05,-5.135129807569228
1530.03,-3.6105496575069083
1532.01,-5.64729320487595
1533.98,-4.914333935151262
1535.96,-8.699575060988082
1537.93,-27.481276554398846
1539.9,-12.30900648269062
1541.87,19.291597252492465
1543.84,45.937871852220724
1545.81,81.96155425971165
1547.78,109.59925341881853
1549.74,158.56387491346277
1551.7,221.23509322611744
1553.67,268.8498239962905
1555.63,320.74031532662275
1557.59,367.47700099374833
1559.55,431.0589727067768
1561.5,494.29492855624585
1563.46,532.1365024154602
1565.41,538.868736198976
1567.37,509.25293307345555
1569.32,460.09808209710764
1571.27,410.9275209543498
1573.22,317.9313129761931
1575.17,272.63290987490655
1577.11,243.93676685964374
1579.06,222.0807196568312
1581.0,236.2074091495997
1582.95,238.60237268388755
1584.89,201.93213537454176
1586.83,206.91087283998968
1588.77,180.2527882226259
1590.7,159.71972730443213
1592.64,147.16879362260124
1594.58,115.33805882325805
1596.51,78.10846349136818
1598.44,39.48000369493593
