Raman Shift,Processed Intensity
331.095,115.99067861406911
333.909,59.81793057393497
336.721,28.83305424095397
339.531,20.869394538640336
342.339,30.21270052323962
345.145,72.26780364054957
347.949,128.51101026842116
350.751,134.03773235452172
353.55,179.75297519694686
356.348,187.70468236771194
359.144,163.70279492193185
361.937,152.08116774987957
364.729,130.4594859290446
367.518,129.50518107619155
370.306,196.36201436609008
373.091,256.74532621691833
375.874,295.8468097851819
378.656,276.14404636541985
381.435,240.63861221844854
384.212,134.99894730439792
386.988,38.94131925381134
389.761,-5.341593613607984
392.532,23.962166444031936
395.301,-0.8113899142645096
398.068,22.4359071685667
400.833,19.27868350477729
403.596,-27.89863484500438
406.358,-44.425620135724785
409.117,-33.06011575785851
411.874,-54.79775010744106
414.629,-44.252883827432925
417.382,16.53186799005107
420.133,46.990393308910825
422.882,99.22355013867036
425.629,184.1896352028134
428.374,316.46628117852833
431.117,474.44092536503285
433.858,665.1203259709519
436.597,840.8448403064549
439.334,983.4788934515846
442.069,1054.839542162682
444.802,1064.0774197311844
447.533,1051.2005379852917
450.262,1024.3599940535137
452.989,1029.2785342710768
455.714,1043.060070467302
458.438,1044.142053395814
461.159,979.2954652123972
463.878,946.5295738575846
466.595,912.5204969630786
469.31,888.1826229010176
472.024,835.8114604046764
474.735,854.750297712967
477.444,851.0568617149625
480.152,869.0271199515287
482.857,869.6238445217368
485.561,892.8575569416626
488.262,865.215092050792
490.962,893.8500666803329
493.659,968.7733483215411
496.355,1046.6625714130673
499.048,1120.8621298188027
501.74,1246.8117407342756
504.43,1349.7607228787715
507.118,1436.0537032588863
509.804,1561.3210858368398
512.488,1698.6219011511662
515.17,1815.681894032653
517.85,1934.3220875107522
520.528,2071.1730610056966
523.204,2196.008276139675
525.878,2325.0297835003853
528.551,2410.1539294045774
531.221,2427.2018245663803
533.89,2402.6612413370326
536.556,2375.4485109446246
539.221,2357.384706448114
541.883,2355.7670637865795
544.544,2355.559450447521
547.203,2375.2971198494483
549.86,2387.8962276292314
552.515,2448.9395384056465
555.168,2486.104989685769
557.819,2581.3085414856596
560.469,2710.180359284376
563.116,2903.0648065018027
565.761,3155.1632941193348
568.405,3423.1533207767525
571.047,3677.759893821492
573.687,3917.993617024574
576.324,4080.2935402013095
578.96,4225.955723117708
581.594,4326.228466063558
584.227,4311.3599213778725
586.857,4303.407609736243
589.485,4194.000317390598
592.112,3970.099993408916
594.737,3740.4779326292633
597.359,3436.476672899506
599.98,3100.8195113646543
602.599,2796.800973135161
605.216,2541.1915656695123
607.831,2346.2853902996726
610.445,2288.0429918517684
613.056,2344.424684457248
615.666,2503.009591649751
618.274,2795.995638842942
620.88,3197.2471648559585
623.484,3665.533009629343
626.086,4135.716982893332
628.686,4510.662618550452
631.284,4700.3284052485815
633.881,4766.24396933497
636.476,4630.843400667395
639.068,4373.179530806281
641.659,3937.0191635877563
644.249,3394.7954485538635
646.836,2770.941206763719
649.421,2170.2222566046607
652.005,1633.1183586510233
654.587,1256.82320814196
657.166,911.1015703164198
659.745,720.0035586052409
662.321,557.4360556804172
664.895,445.0674678376763
667.468,357.42295556954423
670.038,300.59871175744547
672.607,218.78576367332744
675.174,210.36520355271387
677.739,174.336752501094
680.303,159.3187529717461
682.864,126.5005421959354
685.424,98.8805398988411
687.982,60.12338363450499
690.538,59.70277840649851
693.092,46.139584383821784
695.645,63.5732441679429
698.195,42.80940672449378
700.744,50.08184189358644
703.291,15.290551962424615
705.836,23.90655445200082
708.38,72.59095590560491
710.921,165.57593212063512
713.461,241.80761575137876
715.999,298.517562860417
718.535,302.36564804146565
721.069,305.24962620888255
723.602,273.2099324824135
726.133,225.85829159574587
728.662,189.9015654002992
731.189,117.66560036901501
733.714,60.47621795728219
736.238,15.754490678157708
738.759,-34.602255725385476
741.279,-44.93467172127475
743.798,-38.72608784141039
746.314,-41.031032196952765
748.829,-74.47518201125695
751.342,-106.6838912510525
753.853,-67.09167560733431
756.362,-29.894563994945656
758.869,-26.335797327688397
761.375,-17.467726172111725
763.879,-58.627997712765136
766.381,-86.86812683029575
768.882,-52.28683116246248
771.38,-18.172897284409828
773.877,-22.290915219249655
776.372,16.88059961352974
778.866,41.387272754008336
781.357,62.89407723690965
783.847,95.6853039740754
786.335,160.47406058336264
788.821,216.21177709977746
791.306,345.6120074986279
793.789,522.6742312186775
796.27,733.350511828156
798.749,955.0216795002952
801.227,1167.3544658698052
803.702,1340.7776865084115
806.176,1463.0060424480157
808.649,1487.0401121800464
811.119,1428.928248416717
813.588,1316.8141891379955
816.055,1161.3180019719107
818.521,1005.2979809557983
820.984,893.7077813928049
823.446,769.7868880417191
825.906,669.3463214020458
828.365,600.7686297133582
830.821,549.7221666689506
833.276,489.6848929390003
835.729,484.8967491223175
838.181,433.1691715552347
840.631,399.50413193001486
843.079,350.33222453231247
845.525,314.1317058595855
847.97,253.7618199537801
850.412,228.93898087688967
852.854,185.42724090079037
855.293,179.99066345898382
857.731,172.86950562214588
860.167,186.82782914509926
862.601,165.62968294236043
865.034,159.94385699225722
867.465,137.29625528866882
869.894,121.97464974515151
872.321,100.9334340990672
874.747,98.46028257761009
877.171,92.12852284955807
879.594,111.79712802463473
882.014,116.22975627192409
884.433,126.18999014411338
886.851,133.82229018745966
889.266,146.98532950413528
891.68,192.4424711717138
894.092,220.9093885198081
896.503,225.05406635907684
898.912,239.21108792452105
901.319,236.66735039021523
903.724,251.0430184792699
906.128,258.29152569284724
908.53,230.08052792012086
910.931,208.4585713339552
913.329,211.85509361992808
915.726,209.17566330058344
918.122,214.84960001206036
920.516,213.9252138283382
922.908,218.83171125214903
925.298,229.95062501541952
927.687,277.0443867368517
930.074,307.7325186271264
932.459,305.20592043221404
934.843,309.8935373290583
937.225,327.70045639269574
939.605,330.579336396715
941.984,352.9113614232265
944.361,349.79195637760404
946.736,338.3641215508378
949.11,321.77081480094057
951.482,319.01209563910925
953.853,316.37369788731576
956.222,291.4746499549401
958.589,272.4101332106434
960.954,269.0848165447178
963.318,239.92714331239085
965.68,216.69885637236894
968.041,188.3521421729988
970.4,132.077251028903
972.757,77.8263078738064
975.113,84.83712301336254
977.467,62.204621925599895
979.819,41.309417918516374
982.17,26.43686097814316
984.519,1.7770389975676153
986.866,-4.813316232143734
989.212,26.998696016590657
991.556,20.450718244765085
993.899,15.732754694111463
996.24,11.177648457290616
998.579,4.975368111880925
1000.92,14.506341973430608
1003.25,31.389078062790304
1005.59,34.57540312106903
1007.92,52.15998733888364
1010.25,41.61844051418848
1012.58,43.42636059104916
1014.91,54.58314410317962
1017.24,81.99293947461456
1019.56,92.13131460610703
1021.88,77.75954350914071
1024.2,53.2103215113716
1026.52,56.76871855730633
1028.84,59.434084889936
1031.16,100.53909958951135
1033.48,129.3212000646995
1035.79,140.35115440088248
1038.1,152.15210989892512
1040.41,171.15197494727408
1042.72,164.01675327501016
1045.03,162.9838782048946
1047.33,146.052689763555
1049.64,121.93681655358569
1051.94,90.77846238754546
1054.24,87.48174054101128
1056.54,110.95076991039468
1058.84,108.56586640885598
1061.13,98.5644962669744
1063.43,81.8508007619871
1065.72,75.09083523273694
1068.01,108.76018904700959
1070.3,141.00112937838958
1072.59,123.00355450693814
1074.87,113.8145185484359
1077.16,110.14775618362455
1079.44,116.95511214935004
1081.72,178.99797072970887
1084.0,200.65678048527707
1086.28,235.1691504109258
1088.56,284.5822318079058
1090.84,349.6098620607004
1093.11,400.1087560329265
1095.38,463.7451736537082
1097.65,431.899682742147
1099.92,398.8576361175051
1102.19,337.28536299510915
1104.46,280.5635032393925
1106.72,281.0727225693131
1108.98,305.47942776377613
1111.24,328.0214818670552
1113.5,383.74630034659594
1115.76,447.2251377270013
1118.02,539.9340408906846
1120.28,636.7776595213809
1122.53,687.9940089286138
1124.78,732.2973281102563
1127.03,675.7828425769967
1129.28,575.8315271768065
1131.53,539.3482022527351
1133.77,476.9043917054746
1136.02,482.2621334368773
1138.26,565.8025516982293
1140.5,629.8115722956645
1142.74,719.6703997003469
1144.98,841.569803682451
1147.22,906.6053583261119
1149.45,920.6822048538838
1151.69,854.5626715940671
1153.92,709.5805606146987
1156.15,551.5935295956419
1158.38,385.9354737006661
1160.61,249.9403360209626
1162.83,178.894489447227
1165.06,131.65578520840882
1167.28,96.93926807712751
1169.5,89.6505106227105
1171.72,62.07609032137998
1173.94,19.597876190243824
1176.16,41.121601135574565
1178.37,47.55305334870627
1180.58,49.89331532097685
1182.8,71.81019333485756
1185.01,51.63821838365675
1187.22,2.997694710270025
1189.42,-5.110061177881107
1191.63,-14.540814827239046
1193.84,-22.05503165915661
1196.04,11.53926658534192
1198.24,44.91031054594396
1200.44,90.86924675629962
1202.64,144.65584995211657
1204.84,193.22423537924806
1207.03,189.2428568160717
1209.23,188.47545697681153
1211.42,256.8286845815401
1213.61,330.54256856902566
1215.8,394.6667065953161
1217.99,475.393596389446
1220.18,504.96339568058465
1222.36,501.7591583156559
1224.55,497.92587990076345
1226.73,447.4181148711864
1228.91,409.4285459423281
1231.09,395.67369641780124
1233.27,392.63202344989986
1235.44,389.4010589191025
1237.62,424.64978840882577
1239.79,509.6186492277898
1241.96,645.119528432389
1244.13,824.6786179919268
1246.3,1077.0602223347955
1248.47,1345.695327799414
1250.64,1628.7292197042193
1252.8,1988.1643375128883
1254.96,2419.288844285274
1257.13,2895.009958033104
1259.29,3411.663473551868
1261.44,3798.48995091937
1263.6,3971.3013801847683
1265.76,3924.671655581421
1267.91,3702.317525930208
1270.06,3361.146211709522
1272.22,2984.01730783954
1274.37,2580.742781704608
1276.51,2226.6583997470407
1278.66,1902.052296918056
1280.81,1617.2602127953946
1282.95,1407.5702515104408
1285.09,1231.794308342021
1287.23,1119.22044869115
1289.37,1041.6605251510182
1291.51,1046.6406517198402
1293.65,1060.829773251793
1295.78,1108.658711098435
1297.92,1208.1296849406003
1300.05,1383.959167953623
1302.18,1617.7207419725673
1304.31,1866.8450955145981
1306.44,2071.905736087063
1308.57,2283.0475596384376
1310.69,2485.5106581045084
1312.82,2691.2017460021675
1314.94,2909.408444166075
1317.06,3045.6088015805385
1319.18,3113.280817211415
1321.3,3077.7119618379847
1323.41,2951.9515570277035
1325.53,2739.906011253802
1327.64,2463.576913155734
1329.75,2147.1086486091613
1331.87,1842.1217320816431
1333.98,1513.474709416907
1336.08,1256.7879653810169
1338.19,1038.967531208557
1340.3,861.7765111964163
1342.4,729.739842630921
1344.5,629.0490557149633
1346.6,526.7051287332201
1348.7,445.7565813126175
1350.8,383.2042343494577
1352.9,324.66787469845303
1354.99,294.76720557604267
1357.09,269.50279696371535
1359.18,217.97036934466223
1361.27,178.26555363091347
1363.36,143.53150823331725
1365.45,103.48272660771909
1367.54,92.07170194399532
1369.62,104.25082995033017
1371.7,132.781930685107
1373.79,197.04577038880552
1375.87,226.13729760160186
1377.95,222.62754594763874
1380.03,194.89696549072414
1382.1,174.27827789955745
1384.18,145.53266494628997
1386.25,168.0878617669905
1388.33,149.51434536020452
1390.4,118.38247546646426
1392.47,81.16725449541536
1394.54,64.29594459579812
1396.6,38.48139901114746
1398.67,43.29348867358976
1400.74,20.349576416687796
1402.8,-8.685481145296762
1404.86,-10.194569833386595
1406.92,19.10597176474812
1408.98,93.97587914523456
1411.04,158.69858290414777
1413.09,247.22406979146535
1415.15,382.9307913840644
1417.2,577.9113822825366
1419.25,776.8774259270353
1421.3,984.7308870797965
1423.35,1083.1355443076595
1425.4,1090.3265177026865
1427.45,988.0150346980231
1429.49,852.7217673123273
1431.54,671.9196932037239
1433.58,517.7483852951809
1435.62,410.1568728284615
1437.66,365.18935956093173
1439.7,341.93760862904264
1441.74,339.44570836419325
1443.77,339.80531429906523
1445.81,310.15565307872293
1447.84,293.2549549431419
1449.87,341.5280766859255
1451.9,418.6855531844485
1453.93,475.3426489300018
1455.96,538.4003143198406
1457.98,631.9499514730392
1460.01,778.4638943320579
1462.03,1057.8906506690737
1464.05,1415.4168107589817
1466.07,1865.7527655761965
1468.09,2369.3231868962193
1470.11,2988.6956026353014
1472.13,3666.389924571054
1474.14,4298.83083320592
1476.16,4825.633495963975
1478.17,5108.317856816302
1480.18,5083.594354477791
1482.19,4753.125831080131
1484.2,4223.575155130494
1486.21,3525.224273041672
1488.21,2834.593260662194
1490.22,2154.678422425502
1492.22,1612.3808666896025
1494.22,1150.17317631481
1496.22,846.7184601938734
1498.22,634.8703571630549
1500.22,492.38732562749556
1502.22,358.83740937705534
1504.21,279.4553843545318
1506.21,202.4760959000655
1508.2,167.9439864717424
1510.19,137.57024241380577
1512.18,99.20898834392074
1514.17,58.14300534995027
1516.16,45.89325871055371
1518.14,40.74271133006596
1520.13,40.83156574480472
1522.11,9.442982319857492
1524.09,-15.615964458902909
1526.07,-31.53809159755383
1528.05,-20.278008444965508
1530.03,5.638361822076149
1532.01,13.828066975735055
1533.98,-1.663162985859799
1535.96,18.258128771733027
1537.93,5.542646720091398
1539.9,22.617387411833533
1541.87,48.90944582928341
1543.84,63.60791697122522
1545.81,81.66389267776003
1547.78,119.83807750277674
1549.74,164.7007855388092
1551.7,253.7271753371274
1553.67,291.3924848278243
1555.63,353.0767900494275
1557.59,440.30309721184767
1559.55,486.1182919021785
1561.5,546.9978978143095
1563.46,594.5603592880607
1565.41,578.1860857530792
1567.37,549.6364961727336
1569.32,497.10163491657795
1571.27,409.05731144234096
1573.22,344.02700188268045
1575.17,288.6294649176398
1577.11,263.34064336139954
1579.06,251.68413717759768
1581.0,229.9454860184601
1582.95,218.3150231925042
1584.89,246.84025344177326
1586.83,261.66394500477327
1588.77,249.78603120323123
1590.7,234.2540834574179
1592.64,172.97283192052782
1594.58,93.60892420828486
1596.51,36.54330317617496
1598.44,31.775965649037516
