Raman Shift,Processed Intensity
331.095,181.4375662644934
333.909,51.8607576254617
336.721,-4.885611805373628
339.531,-4.13485722304722
342.339,42.970218644480155
345.145,113.57258176986124
347.949,179.8152706789324
350.751,162.17474792234407
353.55,194.07996583289605
356.348,171.34095609241922
359.144,172.05360977484452
361.937,203.8854097702333
364.729,228.0754489230858
367.518,210.10111483733
370.306,263.58286991939804
373.091,268.95093618321516
375.874,270.3024562456667
378.656,268.0205590839796
381.435,197.67914007880609
384.212,117.7095458192216
386.988,31.924401764857976
389.761,-24.625226758620556
392.532,-51.45934023072459
395.301,-36.7642248930415
398.068,-27.10672032519051
400.833,-14.862778120461371
403.596,-47.40792919951309
406.358,-70.5458492578382
409.117,-89.84168772219073
411.874,-91.0506402364108
414.629,-38.927482027195765
417.382,10.249601687931317
420.133,28.012316373267822
422.882,69.511744456011
425.629,154.23259475526538
428.374,283.850312466323
431.117,516.3739117134755
433.858,736.3840633304644
436.597,877.2235635933012
439.334,949.4258981911908
442.069,997.5247585784236
444.802,993.1492726119604
447.533,979.214473284288
450.262,996.9689103134033
452.989,1015.6136903042288
455.714,1054.1596121481316
458.438,1073.1890643271909
461.159,1038.5703031708617
463.878,966.6479215888144
466.595,922.1476035180635
469.31,886.8427831320073
472.024,874.7927326208696
474.735,863.2949356864601
477.444,860.0755562750037
480.152,861.146573976654
482.857,895.6629194250017
485.561,883.6367525537239
488.262,892.3184075198824
490.962,943.0535281034427
493.659,977.9021078686778
496.355,1030.019435087483
499.048,1108.3703709960382
501.74,1180.6341042419417
504.43,1256.2993815218178
507.118,1369.4264048856044
509.804,1472.742062374164
512.488,1594.401825323554
515.17,1763.0373599550076
517.85,1937.28032944111
520.528,2070.9052435910216
523.204,2237.734213297618
525.878,2372.4940859370013
528.551,2471.8164379108803
531.221,2531.3328052841825
533.89,2563.5318191845745
536.556,2574.8068173924567
539.221,2541.170122597636
541.883,2501.6339873226407
544.544,2449.7343959889185
547.203,2361.769152697299
549.86,2322.6550166275306
552.515,2354.1181707711357
555.168,2409.4561192357014
557.819,2564.823394072975
560.469,2757.9458335355225
563.116,2943.8824793810227
565.761,3164.406521795594
568.405,3409.243387174268
571.047,3690.832635425267
573.687,3985.2327144171545
576.324,4240.359047759308
578.96,4434.507836868097
581.594,4552.927482080704
584.227,4552.15190853083
586.857,4488.667225357736
589.485,4324.149813486727
592.112,4118.132984838199
594.737,3856.911736774766
597.359,3515.637982738895
599.98,3181.6538781286067
602.599,2852.7775271255823
605.216,2579.0648799994497
607.831,2424.2859161263664
610.445,2350.6389222456933
613.056,2364.6076278595315
615.666,2532.6278644417825
618.274,2821.4685103614925
620.88,3219.517197710953
623.484,3660.8755429433427
626.086,4159.597234653205
628.686,4596.021359452172
631.284,4905.534299273251
633.881,5063.617342960832
636.476,4953.703821670218
639.068,4571.321958552864
641.659,4074.7615279654287
644.249,3452.835752774047
646.836,2805.3098683252865
649.421,2241.043972131369
652.005,1704.1834926030447
654.587,1265.2068006395743
657.166,919.0204402663626
659.745,664.4353116535312
662.321,498.59523508687926
664.895,416.9293244626497
667.468,357.1995988775402
670.038,310.1200227901404
672.607,212.73745094426977
675.174,162.90781138757166
677.739,113.20085991867745
680.303,65.75731548674685
682.864,59.62218606720671
685.424,44.887629948733775
687.982,-1.592747396354298
690.538,19.98660035523926
693.092,32.81175406158172
695.645,12.973160718103827
698.195,8.798991006710821
700.744,-0.3829283056738859
703.291,-28.578418695641176
705.836,-4.365015193697673
708.38,55.298539693725616
710.921,103.78660851995937
713.461,198.806685267597
715.999,296.3518026703646
718.535,340.84341572547874
721.069,350.22666615837124
723.602,316.06564688741673
726.133,235.8291426791311
728.662,149.5573231843282
731.189,70.62367406950943
733.714,35.63978529111046
736.238,29.122044131660004
738.759,18.824994902585786
741.279,14.312793885128485
743.798,-15.659811919230833
746.314,-62.95698222881265
748.829,-34.871280921774996
751.342,-50.314125857114504
753.853,-76.53005464179432
756.362,-62.57289515977618
758.869,-31.8295601963855
761.375,-23.25813567542491
763.879,7.993072366959495
766.381,-12.557318715398196
768.882,-50.53329134303203
771.38,-22.368093732327907
773.877,-2.256620202715567
776.372,26.796965343441116
778.866,55.0744630838185
781.357,96.28648998671451
783.847,162.2867610930689
786.335,221.45303746514537
788.821,285.8299788971203
791.306,407.3196156732938
793.789,577.8242012786927
796.27,794.9604936810988
798.749,1030.1549889940216
801.227,1218.2153456158708
803.702,1394.9494274167423
806.176,1495.4033945442557
808.649,1512.0045561341576
811.119,1473.799461116169
813.588,1358.6919890198283
816.055,1231.300488399389
818.521,1107.7672962111033
820.984,950.853971476201
823.446,819.6555765629305
825.906,710.838767992409
828.365,614.1656015301842
830.821,550.0173372777986
833.276,495.96586381196994
835.729,458.82131279995565
838.181,442.34634028158416
840.631,404.1132650941422
843.079,372.8850168210661
845.525,334.1389408834916
847.97,303.11441315561524
850.412,294.7652164848132
852.854,247.52144102127795
855.293,208.2418607381387
857.731,208.8805956658689
860.167,204.05853603145033
862.601,228.2538140165857
865.034,256.9922755159
867.465,261.9427137999096
869.894,238.44067460655288
872.321,232.63130885177816
874.747,231.1360348639405
877.171,230.38586728487962
879.594,204.24046025669168
882.014,216.79762679899386
884.433,189.15523913855122
886.851,176.36360522938958
889.266,195.04451193957038
891.68,213.43883966653402
894.092,212.54941504769022
896.503,233.95053033766135
898.912,250.93079611887288
901.319,274.7788511549975
903.724,269.35478653011614
906.128,292.1853793116993
908.53,283.2736119278675
910.931,284.1939058303751
913.329,280.4730694432974
915.726,264.87600801649614
918.122,231.6438144314543
920.516,249.06519334044924
922.908,270.42883768667343
925.298,297.64247189101843
927.687,312.56618075314964
930.074,322.06002406686093
932.459,327.55546075924303
934.843,323.5791539822344
937.225,355.5148714422712
939.605,360.4606238251654
941.984,388.75246988765866
944.361,440.01213107277863
946.736,470.67079660138506
949.11,444.0643571351434
951.482,410.86197177282884
953.853,345.30415885615366
956.222,297.39326772797904
958.589,282.13156953814496
960.954,297.9498242397808
963.318,265.85013329989624
965.68,216.35831621949228
968.041,205.52390610130033
970.4,183.72966902704047
972.757,147.1677901013354
975.113,122.93510711468252
977.467,54.22358230165992
979.819,-5.584463996108752
982.17,16.750308904438043
984.519,37.990924262197495
986.866,31.424082890234786
989.212,29.43158842409275
991.556,26.918915447241034
993.899,33.07711409960075
996.24,52.47805096558341
998.579,62.93155741673718
1000.92,55.15210176392429
1003.25,32.09212807615722
1005.59,3.6087283327742625
1007.92,-2.012542567244509
1010.25,-14.248137510250672
1012.58,-11.669844652910797
1014.91,5.102837270816963
1017.24,15.783655524482583
1019.56,23.467225428976235
1021.88,17.771890517598422
1024.2,16.93496364351222
1026.52,25.57463475386112
1028.84,13.070926282933215
1031.16,30.66093425959707
1033.48,34.91502179569761
1035.79,41.83206019349882
1038.1,81.31562243408416
1040.41,101.65017666575613
1042.72,127.1201368352904
1045.03,146.20034189061744
1047.33,147.65129688827255
1049.64,129.6144141008449
1051.94,99.51677793395947
1054.24,70.21400508134047
1056.54,69.13310467988731
1058.84,52.55819560760165
1061.13,71.48765235294786
1063.43,71.96744136040388
1065.72,67.56731451887072
1068.01,97.52366931675078
1070.3,133.40621852082677
1072.59,138.97513604563392
1074.87,149.5620123466383
1077.16,134.83176219436518
1079.44,111.6397705437771
1081.72,116.60332411792297
1084.0,161.95875727731345
1086.28,186.6566931273801
1088.56,255.60014176879167
1090.84,308.9302175953917
1093.11,366.5023327826075
1095.38,377.3147717282436
1097.65,386.5563131123272
1099.92,341.7490900521839
1102.19,326.7962121622909
1104.46,297.5531971379223
1106.72,277.39940233881543
1108.98,255.90469446806173
1111.24,280.87707163195773
1113.5,326.9817139712836
1115.76,420.6457485782953
1118.02,523.2487286994315
1120.28,616.789303414198
1122.53,700.4566492188278
1124.78,722.2019016099266
1127.03,693.0238723824109
1129.28,637.540481213151
1131.53,565.4173301017677
1133.77,495.41532543046196
1136.02,485.0097285952843
1138.26,537.2473018754981
1140.5,641.3653590648396
1142.74,808.9346256265962
1144.98,940.9544798010629
1147.22,1017.0434318082307
1149.45,1012.3438887647758
1151.69,896.1888243629428
1153.92,720.1970199780008
1156.15,557.5111629185562
1158.38,397.7978494387685
1160.61,312.00949251247675
1162.83,233.81289627398746
1165.06,136.39878283981898
1167.28,97.19608103520568
1169.5,60.586215120602446
1171.72,50.42691732771755
1173.94,92.81413563362321
1176.16,87.03441772536235
1178.37,71.0411044883499
1180.58,48.4543330185943
1182.8,5.894372968246898
1185.01,-28.161227585037068
1187.22,-11.758591506836638
1189.42,-35.70560422750759
1191.63,-19.571913135559498
1193.84,-13.30797582885998
1196.04,4.373982994416565
1198.24,32.952345882267764
1200.44,59.1913326975141
1202.64,64.90289781273759
1204.84,98.85148781561065
1207.03,137.13498969041257
1209.23,204.2799647138313
1211.42,259.6225966364782
1213.61,306.2134493882172
1215.8,373.1984152596733
1217.99,401.58061546470526
1220.18,448.02991975048053
1222.36,468.597227912318
1224.55,452.8573227370989
1226.73,448.1945800895419
1228.91,421.70772661752244
1231.09,383.781264124058
1233.27,376.41879870119647
1235.44,361.52875081629554
1237.62,403.971970160203
1239.79,501.22839811448875
1241.96,622.539920694865
1244.13,809.9579833993726
1246.3,1072.4864441518075
1248.47,1353.3672833880019
1250.64,1718.2710760468603
1252.8,2112.34460641856
1254.96,2579.5918163260767
1257.13,3041.5404675924233
1259.29,3528.575471174562
1261.44,3905.46269248778
1263.6,4154.491804349131
1265.76,4096.285806587539
1267.91,3861.9438789872265
1270.06,3454.1366151835346
1272.22,3014.7250660825466
1274.37,2642.4750213759603
1276.51,2343.29510057975
1278.66,2002.5700821680794
1280.81,1731.6847088976897
1282.95,1496.2141597989553
1285.09,1297.5907126431434
1287.23,1176.8656445048882
1289.37,1085.613989467528
1291.51,1017.3631058522546
1293.65,1017.1164815425009
1295.78,1080.8775393083174
1297.92,1208.6020135593299
1300.05,1389.7217556691112
1302.18,1613.525682156721
1304.31,1839.5883419158363
1306.44,2057.3889596343834
1308.57,2266.5019077855827
1310.69,2477.3109881428154
1312.82,2710.5332371040085
1314.94,2908.599873873156
1317.06,3086.4658200704253
1319.18,3195.6096955327253
1321.3,3199.3195284000058
1323.41,3126.264179487258
1325.53,2912.3028618946305
1327.64,2563.627993950862
1329.75,2202.1461473948075
1331.87,1838.239947937927
1333.98,1532.9109282077097
1336.08,1294.9699997387384
1338.19,1073.7041154399099
1340.3,870.6381701569303
1342.4,708.4873774252551
1344.5,572.0620271754246
1346.6,494.26748153364406
1348.7,435.96131347949813
1350.8,407.19139788461825
1352.9,349.0530501703938
1354.99,313.5461649656745
1357.09,247.76568809780792
1359.18,206.99685048844276
1361.27,173.619925858859
1363.36,152.9673693876689
1365.45,131.41905160662554
1367.54,103.44987324880913
1369.62,76.24880866824469
1371.7,62.95699687857268
1373.79,84.28678497266583
1375.87,123.66458879054107
1377.95,140.8499505144673
1380.03,126.17364388312672
1382.1,120.96625559625454
1384.18,94.03438576689723
1386.25,86.23208646890453
1388.33,77.74658599871464
1390.4,44.43163218474001
1392.47,21.14083569676177
1394.54,12.01339430769167
1396.6,3.3312502346557267
1398.67,-29.480893183208536
1400.74,-35.52222021832313
1402.8,-50.082451137899625
1404.86,-39.54658903060863
1406.92,-17.109194318960817
1408.98,25.79704947673372
1411.04,88.73943233233013
1413.09,187.04712202465043
1415.15,368.14449960673846
1417.2,613.5987805973973
1419.25,866.977159980253
1421.3,1054.0849095837675
1423.35,1163.9177611755322
1425.4,1130.5666705089366
1427.45,1007.455914703171
1429.49,845.3430943851358
1431.54,662.9381834503838
1433.58,488.4749597764553
1435.62,384.18719784095765
1437.66,349.8800994348894
1439.7,333.07315294740465
1441.74,336.3810878886584
1443.77,341.3234008412355
1445.81,327.8957861734707
1447.84,309.80823341944006
1449.87,317.05645799228614
1451.9,328.06476046896887
1453.93,390.3050763512115
1455.96,504.535073445496
1457.98,650.8933921001917
1460.01,820.0901235379283
1462.03,1107.3591929498707
1464.05,1409.4583616376108
1466.07,1830.4311339169617
1468.09,2395.3210449741327
1470.11,3076.171663007619
1472.13,3827.5027818462836
1474.14,4583.643756424577
1476.16,5107.257314448244
1478.17,5363.053844250482
1480.18,5338.267587410035
1482.19,5020.894736131162
1484.2,4468.693435385515
1486.21,3731.564737434997
1488.21,2965.4573658783984
1490.22,2286.4629558885354
1492.22,1698.7684373065213
1494.22,1257.4655605931803
1496.22,939.0747084947479
1498.22,690.8306124704732
1500.22,530.1109262630816
1502.22,425.5314661359007
1504.21,319.32716539570174
1506.21,233.39969558221173
1508.2,187.74604003857576
1510.19,152.3156389103856
1512.18,129.2008674780468
1514.17,98.54180020342756
1516.16,64.71668906222749
1518.14,43.86577520968012
1520.13,24.319862551022652
1522.11,25.12412940719969
1524.09,38.75241637105455
1526.07,33.91675225874678
1528.05,5.9483086326054035
1530.03,-4.821645676024218
1532.01,-24.25221861535374
1533.98,-27.297654079543463
1535.96,-6.959710612415165
1537.93,5.902814512800433
1539.9,1.0026536047535046
1541.87,22.00501710742992
1543.84,37.8609237002629
1545.81,53.61672097600922
1547.78,99.74741564243641
1549.74,140.15667039067648
1551.7,204.0339436207173
1553.67,291.71162916689354
1555.63,370.5221960233812
1557.59,443.22675664111875
1559.55,523.1103018913968
1561.5,565.4102693627829
1563.46,619.6022545151795
1565.41,645.6381027862694
1567.37,606.9935255074779
1569.32,519.8585729627939
1571.27,431.66144078091475
1573.22,308.59227632739885
1575.17,270.88888985872154
1577.11,246.02722758109212
1579.06,250.67374947117014
1581.0,234.59018804917378
1582.95,243.82402143768968
1584.89,237.18466070620707
1586.83,255.43392292992303
1588.77,216.76221853427614
1590.7,217.88378625851965
1592.64,162.703356690723
1594.58,121.12567294563178
1596.51,77.38882086633475
1598.44,31.326130654493227
