Raman Shift,Processed Intensity
331.095,127.60980282513356
333.909,117.89367778887754
336.721,110.73815819503034
339.531,113.47659012363238
342.339,135.60901181478766
345.145,199.7307378439691
347.949,235.4133242496482
350.751,251.79981937524826
353.55,232.60477661582536
356.348,204.44760049813976
359.144,209.99541657021018
361.937,211.62975081469904
364.729,225.01797096705195
367.518,218.49425164317472
370.306,242.05958708613707
373.091,248.42942296052934
375.874,283.0336690991908
378.656,267.3024265356589
381.435,246.09457167945857
384.212,154.07872144379598
386.988,82.59038884943493
389.761,4.7748529142827465
392.532,-27.55568574272729
395.301,-52.39828263110303
398.068,11.059811465934217
400.833,36.155446513427705
403.596,41.70195875548143
406.358,18.655843088565234
409.117,-26.216574565216433
411.874,-69.00579821817519
414.629,-36.18296374232159
417.382,-11.07602454336211
420.133,45.74929313755001
422.882,125.15615006273401
425.629,233.91277648273172
428.374,366.9305593829549
431.117,539.8354630636613
433.858,736.6823068628046
436.597,942.3357095455294
439.334,1098.3272241698833
442.069,1206.6648539048983
444.802,1208.261615467718
447.533,1160.9355311321606
450.262,1151.0762874039447
452.989,1172.2166556006814
455.714,1214.2229600509072
458.438,1248.6284034359942
461.159,1223.5378207034692
463.878,1149.913385361292
466.595,1102.2412681530868
469.31,1049.436390971472
472.024,1040.0328950570893
474.735,1002.6127044357427
477.444,972.6626607841117
480.152,963.431658295452
482.857,964.1211118786478
485.561,946.9325682143926
488.262,986.877221573287
490.962,1017.2997153482179
493.659,1077.0686102534041
496.355,1158.8144715710682
499.048,1224.0250992552442
501.74,1302.4264723213023
504.43,1421.7446456164344
507.118,1568.9438370663183
509.804,1749.3216577789221
512.488,1903.7471992911755
515.17,2112.899120815626
517.85,2311.2180222013963
520.528,2454.5254835618007
523.204,2587.9764382353
525.878,2686.916307651215
528.551,2724.0714695287793
531.221,2782.7873451238133
533.89,2835.7426769515796
536.556,2836.1399969858367
539.221,2802.705618667415
541.883,2745.070581293749
544.544,2721.151594408401
547.203,2680.008172666786
549.86,2704.128342130465
552.515,2779.4286322757307
555.168,2828.492163240271
557.819,2906.9972092603184
560.469,3063.336238298242
563.116,3285.187332622545
565.761,3569.799895102147
568.405,3904.089879310171
571.047,4198.830257723011
573.687,4476.174823252681
576.324,4674.848657445871
578.96,4835.529074873445
581.594,4961.702757996149
584.227,4987.522892030316
586.857,4953.190109337387
589.485,4858.952481432478
592.112,4635.534082421501
594.737,4314.325457200222
597.359,3978.478851558063
599.98,3601.003442281903
602.599,3275.6224720217824
605.216,2989.963717489955
607.831,2735.892814802787
610.445,2611.989441965519
613.056,2645.3568346903603
615.666,2855.5265403098224
618.274,3239.93460026147
620.88,3724.588208763147
623.484,4252.399038154885
626.086,4788.707040431273
628.686,5292.375677345275
631.284,5579.55381717871
633.881,5647.342393417479
636.476,5423.9372539030155
639.068,5017.914867126567
641.659,4446.613266618731
644.249,3861.2749001008965
646.836,3217.0942405414366
649.421,2590.217778164296
652.005,2017.6487743623288
654.587,1550.1520156106385
657.166,1174.1109483323085
659.745,882.0038613831748
662.321,707.6419732985141
664.895,556.3122814444878
667.468,457.9680302172019
670.038,356.27632209891453
672.607,283.23715728567186
675.174,219.04056855304043
677.739,190.3047085027788
680.303,139.79012728571888
682.864,92.73309794368606
685.424,54.797989370458254
687.982,50.64868689177729
690.538,48.61525094059107
693.092,62.88439081009619
695.645,67.21375310625945
698.195,44.64621519754746
700.744,43.31942314564958
703.291,63.08486026351284
705.836,78.17453938169365
708.38,116.29627108896557
710.921,164.0146527589618
713.461,231.036827432496
715.999,313.26014746179226
718.535,395.3436476785241
721.069,430.75570903803555
723.602,404.202674644519
726.133,313.24794196667517
728.662,224.97867410098252
731.189,125.05346341592485
733.714,66.13094757718318
736.238,34.82223509662117
738.759,29.024283262235713
741.279,16.96756886178855
743.798,-9.688618175140164
746.314,-41.76087787888082
748.829,-43.494020454663314
751.342,-52.84672097149951
753.853,-94.77717915728635
756.362,-80.24307024834934
758.869,-70.48721669421593
761.375,-70.89470079982311
763.879,-36.75474959214398
766.381,-50.3559620010592
768.882,-97.79583080336579
771.38,-83.88550718404758
773.877,-76.05457159301568
776.372,-45.16057940303335
778.866,30.749001581471475
781.357,88.53198667379047
783.847,133.7133308976995
786.335,167.91365576627595
788.821,176.65873794310392
791.306,298.4747258319462
793.789,471.26907045212556
796.27,707.9019325043873
798.749,993.4242561034157
801.227,1244.4110806056005
803.702,1410.6281857701351
806.176,1559.127308348694
808.649,1597.6746920084493
811.119,1564.941542016982
813.588,1468.5040037367326
816.055,1312.9383792146718
818.521,1128.1068199624528
820.984,963.5858768794233
823.446,841.0950501756333
825.906,726.5443869138821
828.365,614.177316647012
830.821,500.9039632456743
833.276,421.824932916561
835.729,344.1836736492164
838.181,328.5569299009312
840.631,334.09281632926104
843.079,298.22508200073753
845.525,260.19689840910587
847.97,241.91798082690957
850.412,174.91694775231326
852.854,157.24606130830125
855.293,154.76692002283562
857.731,79.91234208520655
860.167,62.40062955475696
862.601,70.80697542675989
865.034,61.89678346036817
867.465,95.3399467336908
869.894,113.32989521171567
872.321,93.58360194757006
874.747,98.38920833140583
877.171,98.2250779107153
879.594,84.04551687731009
882.014,100.28078026859339
884.433,84.83707816882088
886.851,78.38229619608546
889.266,98.53647789406523
891.68,116.633735695199
894.092,127.43654283622845
896.503,150.56431098803387
898.912,167.826729790233
901.319,177.5094873381613
903.724,187.65999066985978
906.128,184.51594339591975
908.53,183.79106618646983
910.931,154.6751029724478
913.329,144.21477952782016
915.726,147.31380967084579
918.122,159.87575860820607
920.516,180.85166818388507
922.908,208.47815831854268
925.298,174.89648082983467
927.687,159.39062087178445
930.074,175.76825551700495
932.459,211.59885519606723
934.843,241.49940418449478
937.225,277.80107347069907
939.605,265.1206555286867
941.984,289.50342766219
944.361,290.4231582059456
946.736,308.0202079650626
949.11,298.6729649877184
951.482,306.474041242629
953.853,295.3255169155609
956.222,308.65323232488845
958.589,268.4544131704847
960.954,243.29767673499236
963.318,211.84684760890195
965.68,183.3847734156384
968.041,164.71809291758427
970.4,138.8915279316352
972.757,75.56884191141944
975.113,19.651893767615093
977.467,-6.766974978410872
979.819,-18.119219707627508
982.17,3.687532545543945
984.519,4.698060723073013
986.866,-20.94758691255447
989.212,-34.44265800564017
991.556,-17.40892800122856
993.899,5.341401294271236
996.24,37.56760920366787
998.579,50.40998271718445
1000.92,29.62791445922403
1003.25,34.123714940855734
1005.59,44.275948621817406
1007.92,19.796579496364302
1010.25,0.11192620290694322
1012.58,-24.208763818728585
1014.91,-33.21521636050238
1017.24,-2.7189848603261453
1019.56,15.13512375521168
1021.88,21.678572270254335
1024.2,23.290521140979763
1026.52,30.350208837867285
1028.84,43.18933218795337
1031.16,76.71109338375936
1033.48,95.05686603983031
1035.79,112.70143267784624
1038.1,135.40536506887474
1040.41,157.88169028990615
1042.72,137.46255678039597
1045.03,109.48018611309362
1047.33,101.50496762201783
1049.64,106.67879112567152
1051.94,99.47695107881054
1054.24,97.4224316766049
1056.54,87.41923957783865
1058.84,66.22859377097302
1061.13,109.08797258306413
1063.43,134.7111130696394
1065.72,128.76420088075884
1068.01,130.15158393660158
1070.3,134.53958134115464
1072.59,126.45172086733146
1074.87,151.74492882304185
1077.16,165.80000563155136
1079.44,191.75972045945628
1081.72,217.3859534636963
1084.0,236.67874280048318
1086.28,265.4477125866056
1088.56,286.0739770512173
1090.84,334.31966373523846
1093.11,408.8517224050415
1095.38,460.2895434899506
1097.65,450.3001955673544
1099.92,414.8365199906784
1102.19,371.8514159935439
1104.46,357.10736388916393
1106.72,344.9859482697466
1108.98,355.2497621582688
1111.24,356.32812068406065
1113.5,383.17420332981646
1115.76,490.59838665480356
1118.02,589.9825293990193
1120.28,659.4704480635492
1122.53,724.8250591575861
1124.78,764.142664302602
1127.03,765.7577115269846
1129.28,735.7666041797188
1131.53,653.2657955583622
1133.77,602.2565502036823
1136.02,580.1211337657282
1138.26,639.0990028699048
1140.5,767.1439473639984
1142.74,869.4478992318682
1144.98,980.7266462690386
1147.22,1062.4579267106687
1149.45,1057.119523859525
1151.69,994.8559321425219
1153.92,860.7164517387037
1156.15,667.7504260643623
1158.38,492.05486021053093
1160.61,348.63156318999927
1162.83,262.57762351766314
1165.06,215.32350383849644
1167.28,172.9187546031394
1169.5,159.88915631491773
1171.72,141.42719511019095
1173.94,127.86825262442335
1176.16,82.64298633443241
1178.37,44.277328948265676
1180.58,6.725821128412008
1182.8,-3.580770070701874
1185.01,18.740738663354477
1187.22,34.216423158717134
1189.42,24.229537175635414
1191.63,2.877654965724105
1193.84,-15.646376644961492
1196.04,-14.530629030003638
1198.24,13.894003470065854
1200.44,47.43951620322969
1202.64,123.01317201950906
1204.84,174.90321381695685
1207.03,230.01695804002793
1209.23,265.2617453208004
1211.42,298.1163673106771
1213.61,341.20249351208804
1215.8,430.8560981101932
1217.99,498.36555347124613
1220.18,566.6859141171471
1222.36,582.391295938095
1224.55,556.2939220718986
1226.73,480.01554973567954
1228.91,428.3684208670875
1231.09,371.1647841940894
1233.27,393.35975063808746
1235.44,433.05129157419105
1237.62,506.2421418533918
1239.79,583.6969409199778
1241.96,773.608897738472
1244.13,964.1712176253427
1246.3,1238.3390052711775
1248.47,1534.3054534771495
1250.64,1857.644698558152
1252.8,2261.5975328887894
1254.96,2813.5475936398475
1257.13,3374.6880277052423
1259.29,3919.7833947242043
1261.44,4362.217284389169
1263.6,4536.801838515598
1265.76,4512.30155882606
1267.91,4281.909495686711
1270.06,3881.2948654152055
1272.22,3398.7459056838265
1274.37,2979.027016636913
1276.51,2571.569235341628
1278.66,2266.708329286318
1280.81,1980.4943184503454
1282.95,1702.0248068976862
1285.09,1449.1116477038913
1287.23,1304.1857031211243
1289.37,1225.5349380765474
1291.51,1220.0663231945123
1293.65,1245.258214009224
1295.78,1343.5413016059874
1297.92,1478.7271823100473
1300.05,1678.6750226135432
1302.18,1890.6248907691147
1304.31,2081.912040764473
1306.44,2332.252624868394
1308.57,2612.7436918909925
1310.69,2884.7203283011445
1312.82,3097.0413707724633
1314.94,3296.9941663483314
1317.06,3425.1993326069264
1319.18,3563.9440892548105
1321.3,3601.277494482438
1323.41,3502.10568131964
1325.53,3194.2870939911268
1327.64,2809.0610576053245
1329.75,2403.523966890818
1331.87,2057.581665408983
1333.98,1767.5208723856713
1336.08,1530.6758476381183
1338.19,1260.3331517399538
1340.3,1035.493549043359
1342.4,850.0148630821714
1344.5,722.5643557845233
1346.6,617.2377733521384
1348.7,567.7974397586913
1350.8,518.0055883434029
1352.9,482.57674102367537
1354.99,432.98723036487354
1357.09,370.237102602483
1359.18,295.2310682833195
1361.27,229.39754814482694
1363.36,196.92676661343148
1365.45,179.00884530288977
1367.54,173.35761079834947
1369.62,152.49630720231426
1371.7,155.7575943948982
1373.79,170.95021296075038
1375.87,227.4542205445432
1377.95,241.88765677788706
1380.03,226.15416058720348
1382.1,191.34773035873513
1384.18,174.94319838926958
1386.25,166.5581339082969
1388.33,178.52426990968343
1390.4,120.22083474524243
1392.47,67.16978848022381
1394.54,25.845344963086518
1396.6,0.007303419081381435
1398.67,-12.108477099026913
1400.74,19.114685069704592
1402.8,26.388580785342583
1404.86,48.805823993832746
1406.92,67.1255675569978
1408.98,99.72588840774006
1411.04,185.41331556238902
1413.09,313.5656914663705
1415.15,479.2274142922747
1417.2,715.6808707141026
1419.25,943.636916300567
1421.3,1158.5682130512578
1423.35,1295.6139955042272
1425.4,1294.1991225578695
1427.45,1177.6531292927898
1429.49,992.3530883174908
1431.54,777.1998044473885
1433.58,623.617818907649
1435.62,516.5554135360107
1437.66,454.43699593798783
1439.7,446.97262749922766
1441.74,424.5865990169086
1443.77,390.89362537876514
1445.81,379.88932595639517
1447.84,382.4264192842861
1449.87,419.5956796436062
1451.9,475.6783222174172
1453.93,537.3841025316128
1455.96,594.613225419665
1457.98,738.4087301778441
1460.01,933.8612566728289
1462.03,1253.34714478264
1464.05,1597.337962409012
1466.07,2078.590985870704
1468.09,2720.3872993444434
1470.11,3494.0556085915787
1472.13,4297.6389118275865
1474.14,5095.6087896392055
1476.16,5670.53207585394
1478.17,5984.594671266712
1480.18,5993.411071652236
1482.19,5640.500562444044
1484.2,4998.382461032566
1486.21,4175.718978110862
1488.21,3343.0771266393276
1490.22,2548.5953927152514
1492.22,1928.6980254899195
1494.22,1438.9998032762296
1496.22,1056.1631806086998
1498.22,752.5173400653543
1500.22,587.9629583753435
1502.22,438.0674487170281
1504.21,372.16020301606886
1506.21,316.14211995779124
1508.2,252.24751395193834
1510.19,185.75840504980715
1512.18,169.24261838518714
1514.17,112.41093123434894
1516.16,69.35517245698793
1518.14,52.214893365728585
1520.13,9.891657643253438
1522.11,-12.950954454858675
1524.09,-3.5540085639604513
1526.07,-7.110831055109884
1528.05,-1.7670061455451105
1530.03,-9.096563841957959
1532.01,-16.2448352666529
1533.98,-14.976070065377826
1535.96,-14.768673780805784
1537.93,4.6609816930722445
1539.9,22.739508040295277
1541.87,41.27459180991491
1543.84,68.64546665536409
1545.81,99.32671890715619
1547.78,134.5073312408249
1549.74,202.47163110677093
1551.7,246.12309630297204
1553.67,312.1748272143532
1555.63,381.10192381406705
1557.59,480.9033864743037
1559.55,557.1021120151936
1561.5,618.6972707061045
1563.46,636.7833499335861
1565.41,627.6930073931339
1567.37,604.5684957095236
1569.32,556.7426108666677
1571.27,474.4053549231853
1573.22,370.3658368232136
1575.17,307.81417320721357
1577.11,285.70243684182833
1579.06,274.2684621925973
1581.0,272.9406033776222
1582.95,276.62344450218234
1584.89,274.88827189811127
1586.83,257.9254511250856
1588.77,242.16347063857256
1590.7,209.45941402920744
1592.64,169.28943226217643
1594.58,132.6773111546845
1596.51,90.4325626629552
1598.44,39.55518283588572
