Raman Shift,Processed Intensity
331.095,85.05472686404119
333.909,55.3272684398853
336.721,76.3002474231671
339.531,120.4736722966818
342.339,145.70471136592369
345.145,158.27912981330428
347.949,159.9589172285132
350.751,175.5061056150871
353.55,165.34944453984735
356.348,178.15583818708274
359.144,167.9732109841907
361.937,165.04003989395824
364.729,199.83298194495637
367.518,217.49545414288605
370.306,236.7900229057268
373.091,261.146031594134
375.874,265.0881804227938
378.656,240.99843970511756
381.435,224.40177262174075
384.212,158.58519132235415
386.988,62.07395588467671
389.761,3.3934875591280615
392.532,-34.40681322456567
395.301,18.05596543492038
398.068,25.069683964732576
400.833,33.49382275280368
403.596,26.997582154236625
406.358,-4.321062592840008
409.117,-62.12582685851021
411.874,-45.98496022173231
414.629,-84.2759953277
417.382,-62.471457267997266
420.133,32.003992487092546
422.882,126.05925721857466
425.629,188.79392587023858
428.374,295.68873113557765
431.117,362.2245918948711
433.858,466.64451279510786
436.597,615.1916743061242
439.334,706.9189513481438
442.069,725.9270033478956
444.802,740.5547452471092
447.533,728.5698185110045
450.262,767.6923954701056
452.989,803.6427931858775
455.714,824.5224206496905
458.438,828.2899640770283
461.159,798.9518579159758
463.878,736.3718034747658
466.595,695.1279065969243
469.31,648.2745772411922
472.024,599.6758576328771
474.735,621.8149408913846
477.444,636.9370229910974
480.152,639.8112023412937
482.857,642.7780936517897
485.561,633.8926798938091
488.262,609.1624023560889
490.962,649.5471554629021
493.659,693.0069006396857
496.355,745.2159468453383
499.048,773.1343739616595
501.74,821.8651704685067
504.43,911.4161330237011
507.118,991.223670804859
509.804,1105.1051812797755
512.488,1229.8304735958704
515.17,1334.4074776839057
517.85,1435.9393819331299
520.528,1535.9103422950002
523.204,1577.5664294821308
525.878,1622.29657616726
528.551,1662.7278098964707
531.221,1671.7252479072017
533.89,1685.7730443271985
536.556,1687.688670706793
539.221,1677.9562441702255
541.883,1652.5360460431657
544.544,1637.8168976230818
547.203,1638.42567880676
549.86,1659.4654181463761
552.515,1688.515287667502
555.168,1752.3925024490013
557.819,1817.4380297267394
560.469,1893.992774187766
563.116,2029.7309061216406
565.761,2189.4217610003316
568.405,2382.0726914390552
571.047,2588.6433477285523
573.687,2714.426625034009
576.324,2785.2391344035286
578.96,2855.3259594908773
581.594,2895.170175182985
584.227,2925.683318608401
586.857,2894.110145860033
589.485,2762.933388717886
592.112,2598.207082800376
594.737,2406.223229048971
597.359,2199.7498837842645
599.98,2017.6502011430052
602.599,1840.0252850389134
605.216,1673.4522792187522
607.831,1546.127219223149
610.445,1470.3412176807647
613.056,1482.194744840543
615.666,1584.8833376753946
618.274,1813.5071185096872
620.88,2108.261266027683
623.484,2424.15029580579
626.086,2733.7975789400493
628.686,3007.9215273402783
631.284,3108.335588548041
633.881,3142.1863357926995
636.476,3040.3344151903334
639.068,2830.3545405617037
641.659,2535.2021549168753
644.249,2205.7848538446165
646.836,1788.7242850922585
649.421,1403.499000526504
652.005,1046.5396890466372
654.587,773.7053618786617
657.166,581.0928712027794
659.745,447.41785735229496
662.321,371.8718864886969
664.895,288.0748263719888
667.468,200.21769832149585
670.038,152.58648155762876
672.607,140.51448897221553
675.174,100.38236194644969
677.739,75.28473183550977
680.303,54.45878621508746
682.864,25.3795017945763
685.424,26.854884998062516
687.982,43.597408719556825
690.538,15.795451850912741
693.092,-7.5533535391209625
695.645,-30.880199110420108
698.195,-18.28317546190283
700.744,18.425128010166645
703.291,38.24144827923237
705.836,36.01948135158409
708.38,50.46989776662758
710.921,72.77940571620138
713.461,114.75362368769993
715.999,181.76947691671376
718.535,202.20378431586687
721.069,186.90946445126337
723.602,158.406027233234
726.133,147.8319703689799
728.662,122.61146152949914
731.189,96.26387765937216
733.714,91.07048714369512
736.238,82.93160816548607
738.759,55.17614801548143
741.279,53.70447573526826
743.798,37.3693899985019
746.314,14.309467944513017
748.829,9.377652107152244
751.342,-25.858734084937623
753.853,-46.78463747471369
756.362,-61.11821205741353
758.869,-62.67270824218758
761.375,-27.023128854550123
763.879,8.874727421975876
766.381,28.493787366909146
768.882,47.44998644862926
771.38,50.168933002573795
773.877,30.743048599923895
776.372,35.45537508294001
778.866,58.68433398125899
781.357,77.28467640436975
783.847,106.44462341028202
786.335,156.49538732658402
788.821,175.4349787857832
791.306,258.54725185589086
793.789,405.3542825043369
796.27,543.9973184904552
798.749,699.8558244960518
801.227,843.3570034464642
803.702,909.7853178316182
806.176,930.7586776937546
808.649,929.1808190913375
811.119,906.0032063724789
813.588,859.0821725436067
816.055,790.8932024952655
818.521,708.1499781326938
820.984,586.3758044587698
823.446,487.14170232363495
825.906,443.2568821266909
828.365,389.8639794233627
830.821,316.91524291281166
833.276,286.83919861612003
835.729,257.35017119733175
838.181,269.40066242735475
840.631,267.467062981199
843.079,254.64488804474968
845.525,198.98210815963648
847.97,181.38390863952554
850.412,177.70792517689415
852.854,179.3356699259939
855.293,169.41062425247583
857.731,160.12395053064347
860.167,140.52401346451916
862.601,124.56399664699939
865.034,121.76856673805878
867.465,101.56720430961923
869.894,100.62753469041354
872.321,70.99818262038161
874.747,79.87067452410611
877.171,102.10324554615363
879.594,131.55417039595113
882.014,129.46271324026702
884.433,147.59198235760232
886.851,144.18130860209794
889.266,155.42243339126253
891.68,176.98331574130225
894.092,187.29384406437066
896.503,215.11726225152233
898.912,250.4549290890077
901.319,268.78441100789314
903.724,260.8690034051174
906.128,242.18629958358815
908.53,243.92818826371285
910.931,243.52466061874202
913.329,244.4533315958147
915.726,230.14419933224963
918.122,224.17011885755073
920.516,233.67537103351015
922.908,256.137564827643
925.298,247.65334911043465
927.687,262.0336482620992
930.074,259.1369930174351
932.459,254.25047035830084
934.843,260.5659115013309
937.225,266.9417941713614
939.605,277.2841924939062
941.984,274.35629831619826
944.361,290.6355615758457
946.736,289.50416400282757
949.11,301.72520710719937
951.482,307.06175730965924
953.853,295.8482720244974
956.222,248.4191685996857
958.589,249.44215516172972
960.954,239.0134662224218
963.318,203.1340506665574
965.68,174.8524264063076
968.041,141.31229694036256
970.4,128.03826315116066
972.757,146.79296367355482
975.113,132.48183431109237
977.467,65.53405792848889
979.819,6.140657201231079
982.17,-15.41217453957097
984.519,15.923590870995213
986.866,39.71971936686714
989.212,73.73837776348546
991.556,68.02736997510237
993.899,53.824901025839154
996.24,72.13100772740927
998.579,79.08851316636537
1000.92,86.69731452468432
1003.25,97.14771851939531
1005.59,80.15377684221312
1007.92,73.95328826583955
1010.25,92.06970551217637
1012.58,94.31213735862639
1014.91,123.34677931582883
1017.24,133.22072525777094
1019.56,138.02863619475647
1021.88,125.43655190351183
1024.2,117.2533216049178
1026.52,91.4782251179322
1028.84,75.6819273468418
1031.16,86.91124229232491
1033.48,128.1177065863203
1035.79,177.96710540785534
1038.1,231.69661744648647
1040.41,243.06719796098423
1042.72,199.98262850467745
1045.03,159.44189998413594
1047.33,145.06302428927847
1049.64,153.84494116157475
1051.94,157.07228220510478
1054.24,160.93442061190217
1056.54,161.62071136349869
1058.84,153.22525524198136
1061.13,129.36594855534895
1063.43,123.47019952952041
1065.72,123.20350184320887
1068.01,128.04086530565291
1070.3,164.88586558195448
1072.59,177.40397963271698
1074.87,174.26068305843273
1077.16,174.21669030100975
1079.44,196.0327186548284
1081.72,207.94568084922685
1084.0,232.38297286907755
1086.28,277.96247606107454
1088.56,322.1592259066965
1090.84,364.01969984278685
1093.11,408.01896222499
1095.38,447.72733310071544
1097.65,424.14372364876
1099.92,393.5051620951308
1102.19,353.28679581933966
1104.46,324.7257029845141
1106.72,319.20184702465167
1108.98,321.61903113187236
1111.24,331.88109083890913
1113.5,343.2252294587456
1115.76,397.41249638139743
1118.02,467.06112251355444
1120.28,518.9322366705978
1122.53,558.8822486352838
1124.78,587.4818988830939
1127.03,549.34959402187
1129.28,487.77045651716844
1131.53,427.4582315604671
1133.77,358.4600510802379
1136.02,340.15643584824693
1138.26,365.35653568109683
1140.5,442.39336964175254
1142.74,534.0285900505883
1144.98,616.023913163121
1147.22,663.188740323922
1149.45,646.5706362633864
1151.69,598.7410454897395
1153.92,544.2238658238975
1156.15,444.11449812481214
1158.38,338.50841982433394
1160.61,256.0726156049345
1162.83,183.95034141076485
1165.06,135.80874560156644
1167.28,117.31506153515602
1169.5,48.94613348324265
1171.72,18.512228261532528
1173.94,25.966561145547985
1176.16,41.26244083406982
1178.37,16.82946203163101
1180.58,14.525888507193486
1182.8,-36.17086860907693
1185.01,-38.449963005236896
1187.22,-2.5480620053976963
1189.42,11.203033932075414
1191.63,6.566862654086435
1193.84,-2.883418990735663
1196.04,-2.7650390230091944
1198.24,9.209624572439225
1200.44,52.8520879698749
1202.64,56.68823390331272
1204.84,82.52973740891093
1207.03,96.75977728164116
1209.23,149.71398562720424
1211.42,177.06139741395054
1213.61,224.61397145336468
1215.8,272.23134947579956
1217.99,277.39228187287154
1220.18,297.8136724874712
1222.36,283.45057578472824
1224.55,273.4961940229732
1226.73,259.09616013899176
1228.91,283.2532968237533
1231.09,242.3990422648135
1233.27,230.39344731728397
1235.44,214.23945838909458
1237.62,254.13053365958785
1239.79,329.26016406002555
1241.96,433.7266323493236
1244.13,533.104438856461
1246.3,675.1109653181225
1248.47,846.4159958592004
1250.64,1024.8798094018698
1252.8,1245.0293673127553
1254.96,1493.9630724786684
1257.13,1806.3983855252009
1259.29,2130.8622981781737
1261.44,2394.0722828155695
1263.6,2516.22200392422
1265.76,2509.219410508872
1267.91,2342.305780882204
1270.06,2106.10333888343
1272.22,1811.234298668307
1274.37,1538.4637190229787
1276.51,1320.9375957730304
1278.66,1173.8971446687533
1280.81,1026.9645128418306
1282.95,899.2380140715482
1285.09,724.1492688129201
1287.23,616.0822489867123
1289.37,560.230418007563
1291.51,572.5491089073448
1293.65,612.3745691251834
1295.78,701.5668148212917
1297.92,757.8905804288934
1300.05,846.9676967775745
1302.18,965.3247073118741
1304.31,1109.630960500347
1306.44,1245.8890831970098
1308.57,1410.4349778123128
1310.69,1557.8425813888766
1312.82,1666.5905294391237
1314.94,1777.1097721638707
1317.06,1873.6883335280609
1319.18,1937.8522608126918
1321.3,1958.222764642925
1323.41,1908.7066923495322
1325.53,1759.9250965684423
1327.64,1571.40370860219
1329.75,1357.0491260670765
1331.87,1137.529762445096
1333.98,944.5139394930002
1336.08,750.4794082227986
1338.19,561.856203215586
1340.3,445.69330645918444
1342.4,375.5634064238734
1344.5,315.94384761431047
1346.6,265.78805631193563
1348.7,203.0969663173646
1350.8,169.347587549928
1352.9,137.44538417100694
1354.99,150.34331937404568
1357.09,131.6132811269349
1359.18,107.16036505725742
1361.27,115.03239543277232
1363.36,118.4199223323767
1365.45,81.0371711980124
1367.54,71.26489714847457
1369.62,55.10276310275185
1371.7,73.74076552240103
1373.79,109.98780301108127
1375.87,154.50977428560236
1377.95,185.9248190041203
1380.03,157.6604633562365
1382.1,144.6202894626208
1384.18,122.04108096511254
1386.25,82.58806385491653
1388.33,87.68824253889352
1390.4,74.292307334415
1392.47,20.68416101183493
1394.54,-10.423840377316537
1396.6,-14.319456195955354
1398.67,-27.195318266431514
1400.74,-5.815593810673363
1402.8,23.103064333423845
1404.86,12.701040657557314
1406.92,-9.167101642796752
1408.98,11.781665879425418
1411.04,13.401696193516727
1413.09,54.8805727100148
1415.15,136.31054020297324
1417.2,246.83136565243058
1419.25,407.8684371821241
1421.3,551.8470534733779
1423.35,614.6686179409153
1425.4,593.5677852896079
1427.45,514.2077033093278
1429.49,419.9181118126553
1431.54,334.7429653821091
1433.58,267.44043706975344
1435.62,215.8162554301398
1437.66,185.10466060087356
1439.7,183.58745562126978
1441.74,188.8797244176776
1443.77,185.977454550708
1445.81,180.9242075815132
1447.84,190.09683705710495
1449.87,207.49120649567476
1451.9,228.43647880047865
1453.93,272.92845329277134
1455.96,332.0581408399794
1457.98,371.868910412446
1460.01,495.1660165925591
1462.03,677.1356508934032
1464.05,898.4401835535987
1466.07,1156.1229291416726
1468.09,1520.0843407318512
1470.11,1904.0820136036605
1472.13,2354.9687841796303
1474.14,2799.549876582037
1476.16,3145.249572999175
1478.17,3342.158836432579
1480.18,3330.7972191585195
1482.19,3094.1604854752195
1484.2,2700.6253773072103
1486.21,2221.8067607620665
1488.21,1737.033820306191
1490.22,1315.6833957977506
1492.22,940.9895099957871
1494.22,655.5671817836292
1496.22,451.0314774875301
1498.22,323.997514576271
1500.22,253.69951297980106
1502.22,204.0384178364518
1504.21,171.53428414491032
1506.21,143.37389951143177
1508.2,123.41078784943807
1510.19,107.21283212672984
1512.18,71.15751616031548
1514.17,51.09859498267451
1516.16,5.556574731823275
1518.14,-6.8527122205177875
1520.13,3.77237262114636
1522.11,19.09546805187506
1524.09,30.685073315843056
1526.07,47.300265398746205
1528.05,7.5097496535402115
1530.03,-7.784327669060758
1532.01,-11.917804985326939
1533.98,-3.7502166575377487
1535.96,21.28759017066386
1537.93,29.241075606679487
1539.9,-5.79656381553491
1541.87,-22.874870721868092
1543.84,-15.51945962730565
1545.81,-1.2082074009515509
1547.78,41.72398241942733
1549.74,98.3708898820687
1551.7,135.87402208628237
1553.67,161.8511804570462
1555.63,207.92026611483402
1557.59,241.84213286450017
1559.55,314.42534494606025
1561.5,388.62141097595463
1563.46,420.0009702692639
1565.41,383.9442648762081
1567.37,324.21256399960157
1569.32,274.9481598408777
1571.27,267.19817296992187
1573.22,259.8669291234744
1575.17,261.3826217178173
1577.11,214.31635531384495
1579.06,163.2869033678469
1581.0,139.24641836323644
1582.95,151.05185622799786
1584.89,175.4173531330839
1586.83,198.2951737193855
1588.77,169.6852307532813
1590.7,136.20650954408734
1592.64,96.62087331388693
1594.58,83.35686856735629
1596.51,68.7001971282616
1598.44,41.650854842620674
