Raman Shift,Processed Intensity
331.095,22.833395238095296
333.909,12.584452380952229
336.721,13.807866666666513
339.531,19.78680476190477
342.339,20.518304761904766
345.145,24.904766666666696
347.949,16.707204761904748
350.751,-6.264552857142849
353.55,6.1815209523809385
356.348,-19.618398571428585
359.144,-23.898306666666645
361.937,6.061601428571428
364.729,-1.2556742857142513
367.518,37.87257333333341
370.306,100.93209047619058
373.091,180.31460952380968
375.874,285.6994285714287
378.656,314.81448571428587
381.435,274.6751523809525
384.212,205.91712380952387
386.988,115.27265714285718
389.761,48.23724285714291
392.532,64.11795238095243
395.301,37.127328571428585
398.068,32.81319047619051
400.833,59.10555714285717
403.596,48.98358095238097
406.358,53.33271428571433
409.117,44.18292857142855
411.874,17.327300000000022
414.629,17.512961904761923
417.382,16.202885714285713
420.133,5.861304761904796
422.882,40.71598095238098
425.629,49.28160476190486
428.374,120.8363666666668
431.117,200.6595047619049
433.858,259.41255238095255
436.597,286.85352380952395
439.334,277.8844285714287
442.069,218.69371428571438
444.802,165.7570476190477
447.533,147.4077142857144
450.262,181.6946190476192
452.989,243.19128571428593
455.714,284.2818571428573
458.438,277.017142857143
461.159,226.83023809523817
463.878,154.91642857142867
466.595,142.47180952380964
469.31,152.16942857142868
472.024,153.4450000000001
474.735,175.0672380952382
477.444,170.56814285714296
480.152,182.00328571428585
482.857,215.71457142857156
485.561,216.13971428571438
488.262,199.3358095238096
490.962,172.16919047619058
493.659,155.93580952380964
496.355,155.59780952380962
499.048,144.07028571428577
501.74,144.45866666666677
504.43,160.58319047619057
507.118,159.74009523809536
509.804,199.1781904761906
512.488,211.09880952380965
515.17,245.60771428571445
517.85,242.90585714285726
520.528,233.24214285714297
523.204,193.10333333333344
525.878,175.88085714285725
528.551,140.63285714285723
531.221,164.6071904761906
533.89,160.09995238095246
536.556,172.54933333333344
539.221,172.82195238095247
541.883,173.7370476190477
544.544,162.35147619047632
547.203,167.53114285714295
549.86,152.23714285714294
552.515,157.38233333333343
555.168,147.4510476190477
557.819,163.78471428571441
560.469,189.34319047619059
563.116,211.60966666666678
565.761,211.63819047619057
568.405,208.38771428571442
571.047,177.38785714285726
573.687,166.8828095238096
576.324,160.54419047619058
578.96,152.32928571428582
581.594,168.38538095238107
584.227,194.71690476190489
586.857,185.61314285714298
589.485,185.26800000000011
592.112,186.16014285714297
594.737,178.0065142857144
597.359,162.9518714285715
599.98,176.8076000000001
602.599,186.62270000000015
605.216,184.3026000000001
607.831,179.22874761904774
610.445,149.21082857142864
613.056,91.67702380952387
615.666,68.19807142857148
618.274,56.82057619047624
620.88,74.73344285714295
623.484,124.0781000000001
626.086,169.94717619047634
628.686,230.71952380952396
631.284,280.4399047619049
633.881,272.6765714285716
636.476,270.6640000000002
639.068,268.6368095238097
641.659,238.7809523809525
644.249,227.14028571428582
646.836,209.42442857142865
649.421,164.72383809523816
652.005,115.17633571428576
654.587,58.39584285714287
657.166,12.948345238095268
659.745,12.923714285714317
662.321,35.458964285714345
664.895,78.88180000000006
667.468,100.90068000000004
670.038,76.5573204761905
672.607,51.9885742857143
675.174,20.712246190476215
677.739,32.960136190476234
680.303,53.86923952380956
682.864,67.2905847619048
685.424,64.78951904761908
687.982,57.121919047619066
690.538,37.37706666666669
693.092,44.21560952380955
695.645,32.203319047619054
698.195,4.28684285714285
700.744,-9.301261904761905
703.291,-12.280619047619044
705.836,-3.275533333333313
708.38,21.56616666666669
710.921,39.4777523809524
713.461,43.83553809523813
715.999,54.06363333333338
718.535,68.96713809523814
721.069,88.3516190476191
723.602,93.59401904761911
726.133,112.83330000000005
728.662,100.87540000000003
731.189,75.14531904761908
733.714,58.115771428571456
736.238,56.45041904761908
738.759,45.14603809523814
741.279,60.05660000000005
743.798,93.7987095238096
746.314,118.70290952380961
748.829,133.48086190476195
751.342,125.46346190476193
753.853,88.1722104761905
756.362,36.8429223809524
758.869,22.092949523809537
761.375,2.4441680952381106
763.879,22.180273333333375
766.381,62.87124142857148
768.882,76.89653428571432
771.38,94.87377142857147
773.877,93.8969047619048
776.372,79.96495238095245
778.866,103.36222857142864
781.357,129.3261285714286
783.847,92.61768571428576
786.335,94.28390952380958
788.821,87.41950476190482
791.306,100.45244285714296
793.789,123.28685714285722
796.27,152.4465142857144
798.749,170.35976190476202
801.227,194.55066666666679
803.702,194.40009523809533
806.176,191.6220476190477
808.649,151.64533333333344
811.119,153.80385714285725
813.588,176.43123809523817
816.055,179.76614285714297
818.521,170.8090000000001
820.984,145.9413095238096
823.446,109.16371428571436
825.906,92.95342857142863
828.365,93.6445714285715
830.821,123.52380952380962
833.276,140.73490476190486
835.729,139.99321428571437
838.181,141.5378571428572
840.631,122.46533333333339
843.079,123.25313333333341
845.525,121.42649047619052
847.97,110.89160000000007
850.412,103.9829571428572
852.854,96.60700000000006
855.293,89.33657142857149
857.731,102.1733190476191
860.167,74.73794761904766
862.601,72.07988095238099
865.034,60.486247619047646
867.465,57.339966666666704
869.894,55.309480952380994
872.321,55.68237619047622
874.747,56.60334761904767
877.171,67.88385714285718
879.594,56.811538095238134
882.014,82.76921904761912
884.433,113.52088095238102
886.851,121.68765238095246
889.266,141.93825238095246
891.68,159.94135238095248
894.092,186.98497142857158
896.503,185.8803761904763
898.912,193.58222857142863
901.319,164.3307190476191
903.724,135.55665714285723
906.128,143.5951380952382
908.53,183.40092380952393
910.931,185.0714285714287
913.329,194.84719047619058
915.726,180.0635333333334
918.122,133.43689047619054
920.516,122.01674285714292
922.908,97.85285714285719
925.298,100.37622857142864
927.687,110.68414285714293
930.074,128.01683809523817
932.459,115.42403333333341
934.843,128.4792476190477
937.225,123.99379047619055
939.605,125.39840952380958
941.984,117.17122380952385
944.361,111.02868571428579
946.736,101.87774761904768
949.11,111.9580857142858
951.482,118.319180952381
953.853,100.96300952380956
956.222,79.6533190476191
958.589,72.62997142857148
960.954,56.13295714285719
963.318,63.211323809523854
965.68,59.67644285714288
968.041,56.767972228571466
970.4,48.297039276190496
972.757,41.21751664761906
975.113,23.959451961904772
977.467,14.190943314285718
979.819,-0.943826914285707
982.17,10.746912133333339
984.519,4.597753000000007
986.866,10.467012666666692
989.212,23.974923666666697
991.556,71.55098123809532
993.899,115.14897252380962
996.24,155.62672942857154
998.579,158.46148095238098
1000.92,125.60647619047623
1003.25,93.39597619047626
1005.59,94.40196190476195
1007.92,77.10173809523815
1010.25,93.7814571428572
1012.58,97.10850000000005
1014.91,87.94054761904768
1017.24,97.56416666666671
1019.56,101.40801428571434
1021.88,87.6156333333334
1024.2,99.23518571428576
1026.52,92.4572571428572
1028.84,113.04425714285722
1031.16,117.52053333333342
1033.48,145.98100952380963
1035.79,155.47414285714297
1038.1,176.28542857142867
1040.41,190.272142857143
1042.72,228.10109523809538
1045.03,230.0103809523811
1047.33,240.9999523809525
1049.64,224.8796666666668
1051.94,204.22038095238105
1054.24,177.49819047619056
1056.54,170.37971428571439
1058.84,158.15052380952392
1061.13,165.42952380952394
1063.43,186.2639523809525
1065.72,203.41536190476202
1068.01,190.7880761904763
1070.3,166.6677238095239
1072.59,148.86344761904772
1074.87,141.23158095238105
1077.16,166.39074285714298
1079.44,192.9118380952382
1081.72,201.27057142857157
1084.0,238.56161904761927
1086.28,322.3555714285717
1088.56,412.55661904761934
1090.84,514.8308571428574
1093.11,560.0820952380956
1095.38,538.5477619047622
1097.65,500.03680952380984
1099.92,451.0244285714288
1102.19,386.8907142857145
1104.46,369.11104761904784
1106.72,351.5890000000002
1108.98,328.8951904761907
1111.24,335.5523809523812
1113.5,364.6550476190479
1115.76,388.15433333333357
1118.02,432.28747619047647
1120.28,459.9101904761908
1122.53,452.54533333333353
1124.78,418.2392857142859
1127.03,370.84819047619067
1129.28,307.0376190476192
1131.53,246.3776666666668
1133.77,211.390761904762
1136.02,191.78995238095249
1138.26,180.66904761904772
1140.5,163.3125238095239
1142.74,175.6239523809525
1144.98,187.4591904761906
1147.22,196.43576190476205
1149.45,203.36180952380963
1151.69,195.14038095238107
1153.92,169.10347619047627
1156.15,169.1068000000001
1158.38,149.91085238095246
1160.61,131.5615857142858
1162.83,102.62910952380956
1165.06,62.254647619047645
1167.28,44.57937142857146
1169.5,48.31600952380956
1171.72,60.89150476190481
1173.94,80.30424761904767
1176.16,83.69543809523813
1178.37,59.7300904761905
1180.58,42.88273809523812
1182.8,48.10427142857147
1185.01,65.345280952381
1187.22,71.41375714285718
1189.42,59.16526190476191
1191.63,32.64590952380953
1193.84,9.520919047619067
1196.04,16.312820000000023
1198.24,23.448691428571443
1200.44,27.260678095238106
1202.64,13.890389523809535
1204.84,28.95578476190479
1207.03,32.0748742857143
1209.23,35.86577619047621
1211.42,34.99428380952382
1213.61,32.26922761904764
1215.8,33.68990190476194
1217.99,39.49391142857144
1220.18,22.776085714285724
1222.36,14.20280000000002
1224.55,35.53575714285718
1226.73,37.15591428571432
1228.91,69.49167142857146
1231.09,72.06724761904765
1233.27,78.54960476190482
1235.44,96.41508571428577
1237.62,101.42624761904766
1239.79,75.96455714285719
1241.96,66.69707619047622
1244.13,64.81542380952388
1246.3,97.79618095238104
1248.47,133.59265238095247
1250.64,160.0154476190477
1252.8,171.77981904761916
1254.96,172.98209523809535
1257.13,192.5282380952382
1259.29,204.419142857143
1261.44,217.79919047619057
1263.6,234.2411904761906
1265.76,218.0799523809525
1267.91,206.1742380952382
1270.06,188.00152380952392
1272.22,189.1351904761906
1274.37,191.2430000000001
1276.51,190.5649523809525
1278.66,179.7218095238096
1280.81,173.71538095238105
1282.95,157.59495238095252
1285.09,182.07704761904773
1287.23,183.2580000000001
1289.37,177.80685714285724
1291.51,163.29682857142865
1293.65,135.7777333333334
1295.78,107.01351428571436
1297.92,106.10136190476199
1300.05,136.99570476190488
1302.18,175.74620952380963
1304.31,203.64063809523822
1306.44,200.68085714285726
1308.57,210.9643809523811
1310.69,224.20757142857158
1312.82,243.74600000000012
1314.94,246.96247619047628
1317.06,235.19257142857157
1319.18,213.5336190476192
1321.3,238.32133333333354
1323.41,269.748142857143
1325.53,325.0542857142859
1327.64,358.5270952380955
1329.75,396.07371428571446
1331.87,385.9820476190478
1333.98,377.58742857142875
1336.08,364.3679523809526
1338.19,350.2780476190478
1340.3,306.70052380952393
1342.4,271.0660476190477
1344.5,209.56700000000012
1346.6,188.2053809523811
1348.7,184.41133333333346
1350.8,184.13900000000012
1352.9,188.20004761904772
1354.99,187.16733333333343
1357.09,179.85233333333343
1359.18,175.49442857142867
1361.27,155.2380000000001
1363.36,170.03704761904774
1365.45,183.7980000000001
1367.54,188.33180952380965
1369.62,224.83019047619064
1371.7,255.62766666666684
1373.79,271.677904761905
1375.87,325.74390476190496
1377.95,331.2555714285716
1380.03,316.8330000000002
1382.1,305.90552380952397
1384.18,288.5216666666668
1386.25,240.0154761904763
1388.33,225.2449047619049
1390.4,203.4487142857144
1392.47,196.9130247619049
1394.54,138.6859152380953
1396.6,122.1012114285715
1398.67,108.63543714285723
1400.74,126.81239238095247
1402.8,134.6797390476191
1404.86,156.95162476190484
1406.92,129.05678571428578
1408.98,110.42363809523818
1411.04,112.09925238095245
1413.09,96.17837619047624
1415.15,82.51787619047627
1417.2,136.4503761904763
1419.25,163.83245714285724
1421.3,179.66318571428582
1423.35,190.3702571428572
1425.4,160.42891428571437
1427.45,129.4094857142858
1429.49,130.5011714285715
1431.54,108.89326666666673
1433.58,89.53680476190482
1435.62,90.47833333333338
1437.66,68.62075238095241
1439.7,60.581619047619114
1441.74,80.31133333333341
1443.77,95.90348571428578
1445.81,119.30868095238105
1447.84,159.5248476190477
1449.87,156.12138095238103
1451.9,150.85819047619057
1453.93,160.82833333333343
1455.96,149.505761904762
1457.98,164.17400000000015
1460.01,172.83042857142866
1462.03,190.0916666666668
1464.05,204.71714285714302
1466.07,237.6095714285716
1468.09,287.33785714285733
1470.11,340.9470952380954
1472.13,355.8631904761906
1474.14,349.08338095238116
1476.16,328.3194761904764
1478.17,313.3788571428573
1480.18,297.06842857142874
1482.19,284.00461904761926
1484.2,250.28009523809538
1486.21,209.36836190476203
1488.21,152.55283809523817
1490.22,132.92662857142864
1492.22,91.86801904761909
1494.22,60.469976190476224
1496.22,36.73018571428575
1498.22,53.027223809523846
1500.22,59.78761238095244
1502.22,78.15212428571431
1504.21,53.49960095238096
1506.21,33.25665190476192
1508.2,19.326113238095264
1510.19,23.706292523809548
1512.18,28.34778361904763
1514.17,27.629949380952382
1516.16,9.884612190476204
1518.14,5.634140619047633
1520.13,21.73435371428574
1522.11,31.80305333333336
1524.09,52.41050952380957
1526.07,74.55571428571432
1528.05,63.475800000000014
1530.03,34.64608571428573
1532.01,33.92318571428575
1533.98,40.30620952380958
1535.96,66.31844761904766
1537.93,88.10234761904766
1539.9,92.27656571428575
1541.87,68.17421095238097
1543.84,54.46197904761908
1545.81,48.04427000000004
1547.78,48.778512380952435
1549.74,78.04543476190486
1551.7,127.94052285714294
1553.67,162.89263809523817
1555.63,168.90180000000007
1557.59,163.96838095238104
1559.55,147.90266666666676
1561.5,173.46685714285726
1563.46,176.37561904761915
1565.41,182.53461904761915
1567.37,185.3248952380953
1569.32,158.12830000000008
1571.27,125.70774285714295
1573.22,122.34950952380959
1575.17,100.48298095238101
1577.11,111.15691904761914
1579.06,139.41956190476196
1581.0,134.748380952381
1582.95,129.85842857142865
1584.89,128.36966666666675
1586.83,131.18828571428583
1588.77,140.07719047619057
1590.7,130.13252380952386
1592.64,125.78440000000006
1594.58,120.89078095238108
1596.51,109.85800952380966
1598.44,88.18746904761919
