Raman Shift,Processed Intensity
331.095,31.67533023809479
333.909,-46.95842571428604
336.721,-49.95282285714309
339.531,-12.524956190476168
342.339,12.750456666666668
345.145,27.442191428571444
347.949,25.787562380952366
350.751,0.26342190476188776
353.55,-22.842390476190488
356.348,-35.52619523809527
359.144,-44.25886323809524
361.937,-38.462107523809536
364.729,-5.603438857142816
367.518,34.755690380952444
370.306,120.05565638095251
373.091,226.11973057142876
375.874,320.58184628571445
378.656,330.1254761904763
381.435,279.91178571428577
384.212,213.67442857142868
386.988,118.00640952380958
389.761,64.64517142857147
392.532,30.567376190476192
395.301,-12.057900000000009
398.068,-30.250709523809494
400.833,16.113114285714296
403.596,21.826266666666687
406.358,35.49222285714287
409.117,30.049227619047613
411.874,6.722579047619059
414.629,7.072310476190496
417.382,26.373902857142884
420.133,31.713646666666698
422.882,60.750460952381005
425.629,90.04902380952389
428.374,136.0326904761906
431.117,185.45853809523823
433.858,248.323142857143
436.597,230.86209523809535
439.334,213.83561904761913
442.069,168.0523333333334
444.802,120.27466666666677
447.533,115.07423809523821
450.262,143.97690476190488
452.989,181.07985714285726
455.714,208.3387142857144
458.438,204.32823809523816
461.159,183.2908000000001
463.878,147.65957142857147
466.595,85.53537142857148
469.31,97.97107619047625
472.024,85.06866190476198
474.735,96.78681904761913
477.444,120.37073809523817
480.152,116.20886666666674
482.857,116.02292857142868
485.561,144.82100000000008
488.262,156.51619047619056
490.962,189.25990476190486
493.659,176.8703333333334
496.355,165.11814285714297
499.048,165.39342857142867
501.74,154.65784285714295
504.43,119.3967714285715
507.118,99.47699523809527
509.804,77.33632380952389
512.488,108.60304285714297
515.17,158.66772380952392
517.85,189.58758095238105
520.528,179.89557142857154
523.204,145.4110000000001
525.878,141.00020952380962
528.551,137.434161904762
531.221,137.15037142857153
533.89,124.96779047619053
536.556,113.18051428571437
539.221,104.32120000000008
541.883,109.39834285714292
544.544,126.32505714285723
547.203,129.77597619047626
549.86,132.18768571428578
552.515,97.28200000000002
555.168,77.01860000000005
557.819,63.356933333333416
560.469,108.0661238095239
563.116,146.62890952380963
565.761,177.33711428571434
568.405,170.19666666666674
571.047,145.45123809523818
573.687,142.5347142857144
576.324,140.3098095238096
578.96,153.3047142857144
581.594,159.2382380952382
584.227,168.35242857142865
586.857,135.69809523809533
589.485,153.8027142857144
592.112,151.47890476190486
594.737,166.25257142857154
597.359,160.26942857142868
599.98,169.29294285714295
602.599,133.75291428571435
605.216,122.12698571428578
607.831,103.1778190476191
610.445,78.00088571428574
613.056,63.977457142857205
615.666,79.44030952380956
618.274,80.246080952381
620.88,81.58411428571435
623.484,106.92936666666675
626.086,145.23262380952394
628.686,219.1585190476192
631.284,269.99020000000013
633.881,278.58223809523827
636.476,268.9794285714287
639.068,222.1310000000001
641.659,192.55700000000013
644.249,174.49161904761914
646.836,155.16871428571437
649.421,142.8223238095239
652.005,132.92414952380958
654.587,75.42168761904766
657.166,44.54770380952384
659.745,13.154112380952398
662.321,20.99761809523815
664.895,65.40604952380957
667.468,78.65925428571433
670.038,79.51335238095241
672.607,64.8195
675.174,36.047861904761945
677.739,57.52581428571435
680.303,93.72320000000006
682.864,95.10994761904767
685.424,96.01316666666669
687.982,53.045566666666666
690.538,16.819952380952408
693.092,22.04439809523812
695.645,27.33164904761906
698.195,23.961244761904773
700.744,26.879458571428565
703.291,5.651690476190478
705.836,-6.3946499999999995
708.38,-5.693972380952381
710.921,4.509905714285733
713.461,14.592366666666686
715.999,33.16699523809527
718.535,38.6570523809524
721.069,46.53377619047624
723.602,68.0299190476191
726.133,109.56936761904768
728.662,94.90928904761908
731.189,89.95014952380957
733.714,91.11583000000005
736.238,70.2596066666667
738.759,50.66291761904765
741.279,60.22675333333336
743.798,59.85229523809531
746.314,80.01255238095246
748.829,138.4658095238096
751.342,130.59015238095245
753.853,98.76360000000007
756.362,83.4594571428572
758.869,86.38955714285719
761.375,69.02773809523815
763.879,75.22885714285718
766.381,76.89584285714291
768.882,69.31232380952386
771.38,90.66710000000006
773.877,98.3395428571429
776.372,97.04242857142863
778.866,97.25080476190485
781.357,109.48753809523816
783.847,102.89438571428578
786.335,101.32767619047623
788.821,88.97731428571436
791.306,107.79500952380961
793.789,128.11346666666677
796.27,160.07562380952396
798.749,194.39532380952392
801.227,193.07276190476205
803.702,218.8698095238097
806.176,240.9774285714287
808.649,235.15747619047636
811.119,245.07738095238108
813.588,232.02309523809532
816.055,196.2814761904763
818.521,194.51971428571437
820.984,163.07219047619057
823.446,150.65390476190487
825.906,163.40861904761914
828.365,168.14728571428583
830.821,167.25219047619058
833.276,179.96300000000008
835.729,149.4712857142858
838.181,132.92133333333342
840.631,118.21971428571436
843.079,122.41566666666675
845.525,134.6061714285715
847.97,141.0789571428572
850.412,124.59760476190482
852.854,91.25930476190481
855.293,68.73307142857148
857.731,74.97300000000007
860.167,86.21950952380956
862.601,71.95091904761908
865.034,74.74097142857147
867.465,62.35379523809528
869.894,79.64906666666674
872.321,98.62892380952387
874.747,104.58179047619052
877.171,99.12888571428577
879.594,101.93945714285721
882.014,111.49216666666675
884.433,126.98042857142866
886.851,126.02547619047628
889.266,147.01133333333343
891.68,159.08319047619057
894.092,173.00557142857156
896.503,188.7334761904763
898.912,178.46038095238106
901.319,158.8078095238096
903.724,174.30214285714294
906.128,163.80338095238102
908.53,168.3618095238096
910.931,165.74209523809535
913.329,152.51819047619057
915.726,156.50271428571438
918.122,170.41219047619057
920.516,152.67814285714292
922.908,135.30314285714292
925.298,134.0992857142858
927.687,135.49766666666676
930.074,162.54864761904773
932.459,164.06425714285723
934.843,149.09470000000007
937.225,99.73767619047624
939.605,73.28110952380958
941.984,72.96609523809532
944.361,105.88982380952389
946.736,133.67376190476202
949.11,158.22497142857148
951.482,135.1171571428572
953.853,94.11422380952384
956.222,68.98054761904767
958.589,53.38457142857147
960.954,65.70941428571435
963.318,94.95691428571433
965.68,87.70040476190478
968.041,56.513119047619064
970.4,42.301525714285724
972.757,19.733948571428588
975.113,12.38356000000002
977.467,17.96597714285715
979.819,25.577885714285742
982.17,32.69679523809528
984.519,44.60959619047622
986.866,39.93645619047621
989.212,47.725971428571484
991.556,54.78857619047626
993.899,123.31560476190486
996.24,162.45047619047625
998.579,177.28898095238105
1000.92,140.59332380952384
1003.25,131.17350476190484
1005.59,114.50594285714294
1007.92,117.01934285714293
1010.25,123.3805238095239
1012.58,132.54186666666675
1014.91,121.40762857142866
1017.24,132.78745714285722
1019.56,154.3951714285715
1021.88,151.42080952380962
1024.2,157.24480952380958
1026.52,151.771761904762
1028.84,147.28619047619057
1031.16,155.6924285714287
1033.48,195.84680952380967
1035.79,221.415142857143
1038.1,242.49157142857158
1040.41,265.93276190476206
1042.72,267.73704761904776
1045.03,258.71300000000014
1047.33,239.66895238095253
1049.64,218.65128571428588
1051.94,217.37328571428586
1054.24,222.26209523809536
1056.54,196.98280952380964
1058.84,192.2960000000001
1061.13,179.6761904761906
1063.43,192.88376190476203
1065.72,218.29823809523828
1068.01,221.91790476190488
1070.3,208.69380952380965
1072.59,190.95733333333342
1074.87,182.9451904761906
1077.16,191.84580952380966
1079.44,199.03852380952395
1081.72,244.85476190476209
1084.0,308.8644285714288
1086.28,370.44628571428603
1088.56,466.4562380952384
1090.84,569.1777142857146
1093.11,612.8471904761909
1095.38,630.2720952380955
1097.65,595.4507142857146
1099.92,509.76204761904785
1102.19,434.72804761904786
1104.46,372.1087619047621
1106.72,343.33080952380976
1108.98,343.201904761905
1111.24,371.62504761904785
1113.5,398.6460476190479
1115.76,468.21523809523836
1118.02,503.8548095238098
1120.28,538.9915238095241
1122.53,540.9094285714289
1124.78,493.2733809523812
1127.03,422.9388095238098
1129.28,372.33247619047637
1131.53,307.5478571428573
1133.77,252.67852380952397
1136.02,234.4374285714287
1138.26,221.72752380952397
1140.5,230.5950476190478
1142.74,248.13380952380965
1144.98,237.53285714285727
1147.22,242.83833333333348
1149.45,243.2870952380954
1151.69,248.16328571428588
1153.92,254.60857142857157
1156.15,243.95520000000013
1158.38,195.63067619047632
1160.61,169.11020000000008
1162.83,122.34498571428576
1165.06,98.85790000000006
1167.28,71.79090952380957
1169.5,58.76240476190479
1171.72,68.8666714285715
1173.94,75.7699666666667
1176.16,82.56685714285719
1178.37,76.5902142857143
1180.58,38.60149523809526
1182.8,36.02902380952386
1185.01,50.06283333333336
1187.22,53.321971428571466
1189.42,49.04445238095239
1191.63,17.99219047619047
1193.84,-12.120352380952369
1196.04,3.040490476190489
1198.24,9.189400000000024
1200.44,32.8984142857143
1202.64,35.882514285714294
1204.84,31.094923809523827
1207.03,25.488985714285732
1209.23,27.399109523809543
1211.42,32.44556190476193
1213.61,37.391576190476215
1215.8,46.1909285714286
1217.99,50.22612123809526
1220.18,34.689234809523825
1222.36,18.201007714285726
1224.55,27.287056142857168
1226.73,19.66351676190478
1228.91,38.998957666666705
1231.09,65.53349790476194
1233.27,75.12632761904766
1235.44,63.874818571428605
1237.62,72.9239447619048
1239.79,59.08551904761909
1241.96,64.694980952381
1244.13,86.46906666666673
1246.3,116.79115238095247
1248.47,124.28245238095245
1250.64,133.2788095238096
1252.8,153.16352380952392
1254.96,156.74866666666674
1257.13,166.94152380952394
1259.29,188.9352380952382
1261.44,182.3037142857144
1263.6,165.76380952380964
1265.76,173.93709523809534
1267.91,166.54080952380963
1270.06,158.6725714285715
1272.22,150.0015714285715
1274.37,128.4355238095239
1276.51,142.35786666666678
1278.66,150.53316666666674
1280.81,140.86898571428577
1282.95,124.74889047619052
1285.09,98.69919047619052
1287.23,82.48474761904768
1289.37,87.2986904761905
1291.51,63.42921904761907
1293.65,70.26014285714291
1295.78,72.31774285714289
1297.92,78.50940000000007
1300.05,93.74247142857146
1302.18,82.35289047619052
1304.31,72.72400476190484
1306.44,92.71584285714292
1308.57,99.75925238095247
1310.69,139.09488571428582
1312.82,175.72506666666675
1314.94,198.36661904761917
1317.06,210.21200000000013
1319.18,193.74004761904774
1321.3,187.3816190476192
1323.41,204.6626666666668
1325.53,246.4425714285716
1327.64,285.00919047619067
1329.75,303.9359047619049
1331.87,299.9868095238097
1333.98,307.5447619047621
1336.08,321.65909523809546
1338.19,297.99852380952393
1340.3,286.80276190476206
1342.4,262.50229523809537
1344.5,191.9557476190477
1346.6,166.64085714285724
1348.7,141.94006190476196
1350.8,84.23585714285721
1352.9,89.95813809523816
1354.99,102.53690476190482
1357.09,88.63968571428579
1359.18,115.36290476190483
1361.27,119.0407333333334
1363.36,131.57909523809533
1365.45,147.93119047619058
1367.54,165.2881904761906
1369.62,173.2697142857144
1371.7,196.3998571428573
1373.79,199.39328571428584
1375.87,223.48871428571442
1377.95,238.97200000000015
1380.03,242.31933333333347
1382.1,229.2451904761906
1384.18,206.1301428571429
1386.25,164.49747619047628
1388.33,144.72819047619055
1390.4,147.1548771428572
1392.47,126.63414619047623
1394.54,88.8320304761905
1396.6,52.60476809523812
1398.67,50.7128971428572
1400.74,62.39379857142864
1402.8,85.02681523809528
1404.86,105.22973809523816
1406.92,105.95332380952387
1408.98,92.95778095238101
1411.04,91.14607619047624
1413.09,86.84975238095242
1415.15,76.54288571428577
1417.2,89.22341428571436
1419.25,104.22248571428578
1421.3,107.39478571428579
1423.35,124.26171428571436
1425.4,131.440061904762
1427.45,129.1176571428572
1429.49,109.10143809523814
1431.54,91.05539047619052
1433.58,75.5956333333334
1435.62,80.38597142857148
1437.66,62.137909523809554
1439.7,54.4675047619048
1441.74,40.56223333333336
1443.77,55.466866666666725
1445.81,81.41606666666674
1447.84,97.21640000000006
1449.87,97.10287619047625
1451.9,111.40556190476198
1453.93,128.83564761904773
1455.96,139.29470476190485
1457.98,162.35070476190486
1460.01,169.38176190476202
1462.03,161.67019047619058
1464.05,165.6412857142858
1466.07,196.95838095238108
1468.09,217.85642857142872
1470.11,278.0940476190478
1472.13,314.4779523809525
1474.14,326.00471428571444
1476.16,315.90933333333345
1478.17,301.3314761904764
1480.18,284.12552380952394
1482.19,273.0979047619049
1484.2,236.86466666666678
1486.21,194.1370000000001
1488.21,158.8646095238096
1490.22,130.23509047619055
1492.22,111.76958571428575
1494.22,91.32272857142861
1496.22,72.7964285714286
1498.22,59.52157619047623
1500.22,62.92450952380956
1502.22,64.85990952380955
1504.21,65.80170952380956
1506.21,61.7954285714286
1508.2,54.88664285714289
1510.19,37.40678095238096
1512.18,21.877809523809532
1514.17,24.536125714285735
1516.16,19.570609047619065
1518.14,27.694129523809547
1520.13,29.81007380952381
1522.11,12.726779047619061
1524.09,21.9668928571429
1526.07,51.386639047619084
1528.05,61.12795904761909
1530.03,86.14258761904767
1532.01,97.0011428571429
1533.98,76.94113809523814
1535.96,78.72393333333338
1537.93,86.20639047619053
1539.9,89.10238095238103
1541.87,102.31689523809531
1543.84,119.03996190476197
1545.81,117.31919047619056
1547.78,117.20242857142865
1549.74,129.3562857142858
1551.7,137.35247619047627
1553.67,151.57233333333343
1555.63,177.9684285714287
1557.59,186.3033333333334
1559.55,173.38714285714295
1561.5,191.9346666666668
1563.46,192.8515238095239
1565.41,191.18585714285726
1567.37,199.41485714285724
1569.32,176.586761904762
1571.27,168.17861904761918
1573.22,182.7630476190477
1575.17,178.62676190476202
1577.11,160.437761904762
1579.06,168.57814285714295
1581.0,164.2392380952382
1582.95,168.94600000000008
1584.89,168.79533333333342
1586.83,165.16933333333344
1588.77,155.45057142857155
1590.7,169.87852380952393
1592.64,167.16866666666675
1594.58,156.46528571428584
1596.51,146.57971428571457
1598.44,143.34695238095287
