Raman Shift,Processed Intensity
331.095,39.85542767637753
333.909,52.383923027807214
336.721,66.9630475282379
339.531,77.9261384942015
342.339,64.79701739908887
345.145,69.6233271897081
347.949,50.738441031386174
350.751,22.52337105308561
353.55,-6.878941955101709
356.348,-8.611243606356311
359.144,-17.340057172015804
361.937,14.363368020692633
364.729,28.88020342900836
367.518,57.401186388167844
370.306,98.87900330017419
373.091,164.21876806067212
375.874,226.80183381914958
378.656,286.5334142629499
381.435,279.22353823462254
384.212,218.0632424445098
386.988,157.00552608810358
389.761,118.6224959395845
392.532,69.58155906441243
395.301,71.0263774366781
398.068,40.95782255645554
400.833,4.757787210009155
403.596,-0.5727170557197496
406.358,-0.17546245862013166
409.117,-46.906430818305125
411.874,-30.812001358829548
414.629,-17.128948054007196
417.382,19.191747879230206
420.133,42.81822476449497
422.882,64.60916054843347
425.629,44.18519489292839
428.374,53.69082745777041
431.117,125.1277447547609
433.858,191.7357704875949
436.597,215.13572065365452
439.334,210.04368721723495
442.069,178.50913130657773
444.802,125.81964307756925
447.533,131.88189205364142
450.262,157.98352984662552
452.989,202.69795002045748
455.714,244.1700003358328
458.438,264.97312356628663
461.159,217.68078402857373
463.878,174.34265601779225
466.595,157.86557414727713
469.31,136.87067416466834
472.024,122.31243852989837
474.735,116.05012294554854
477.444,137.94299241102
480.152,157.183652514801
482.857,227.91709501244668
485.561,224.95498149979903
488.262,174.3946889909621
490.962,133.52406978199406
493.659,134.7738303622109
496.355,137.09848175407024
499.048,144.78586128162715
501.74,144.59998767231855
504.43,168.44772568255712
507.118,204.4740221519005
509.804,235.9666658667411
512.488,279.0229521859105
515.17,275.40682385675655
517.85,293.4060118312268
520.528,314.73679512956596
523.204,308.78209403735445
525.878,273.97242044539144
528.551,275.54778057054
531.221,287.5576729146637
533.89,305.05156241403483
536.556,302.6503069697069
539.221,281.8318696921565
541.883,305.07417400308304
544.544,341.80748254672517
547.203,391.22391895832243
549.86,391.7060372516271
552.515,374.0649150159361
555.168,333.96872280360594
557.819,326.5141506604291
560.469,323.03592989411436
563.116,342.01159293800674
565.761,348.2995665481362
568.405,363.80583642883585
571.047,359.0553737631258
573.687,330.6683236478625
576.324,304.1219078146005
578.96,249.2266130647463
581.594,258.69761779994724
584.227,249.0595518858113
586.857,260.26554222991444
589.485,230.1257821693257
592.112,184.25991038193388
594.737,129.66843741683033
597.359,112.30417222468486
599.98,69.02460106907711
602.599,72.8775997711682
605.216,77.67286024007899
607.831,65.93426938423181
610.445,62.70943087982732
613.056,60.56966312980785
615.666,13.13380674662676
618.274,17.258698701687536
620.88,15.086789331917771
623.484,5.427094051029599
626.086,10.564718267912667
628.686,29.5941933858021
631.284,0.46709908639149944
633.881,42.75397242230656
636.476,56.930026433388775
639.068,81.94658309786746
641.659,100.135839616873
644.249,88.63944422275608
646.836,69.17040532074498
649.421,57.917857773467404
652.005,34.97563870927297
654.587,22.247053806753684
657.166,17.39726262687782
659.745,18.0437591832183
662.321,26.470662035991154
664.895,14.390623433717337
667.468,-8.198023449874654
670.038,-2.201736326576338
672.607,-11.288902271084226
675.174,-1.1755484766704285
677.739,11.136565812076242
680.303,17.169475239818894
682.864,10.778534161746848
685.424,13.39051389342876
687.982,-1.1868714679103505
690.538,-3.336391603066204
693.092,-4.059869387678191
695.645,4.640868618915192
698.195,30.144946109036482
700.744,46.49815245558693
703.291,61.508181950488506
705.836,72.55415875740982
708.38,51.491399959727005
710.921,39.841892894199646
713.461,1.1276296274991182
715.999,20.442036670834568
718.535,22.545214218383535
721.069,48.57822300477301
723.602,64.92022830541555
726.133,92.14088203208576
728.662,61.095561971352254
731.189,82.68727768967983
733.714,58.914290724249895
736.238,44.77487763091858
738.759,40.791140651224396
741.279,63.675675522254096
743.798,58.14109642936364
746.314,54.80479905413176
748.829,43.42705695565519
751.342,27.101498904223263
753.853,10.73130050070722
756.362,19.124423414989906
758.869,30.80314033868808
761.375,36.00403612834816
763.879,57.249437520075844
766.381,80.06169998702762
768.882,83.20130412070694
771.38,97.04780915511492
773.877,73.59985410994796
776.372,63.99896845761441
778.866,60.62481136167571
781.357,66.52374424862182
783.847,73.69454623678757
786.335,73.18365337479418
788.821,42.704207403794044
791.306,55.49319975781191
793.789,76.59718699266341
796.27,83.44372050058337
798.749,107.36515717722978
801.227,112.69389866012261
803.702,95.71477342422304
806.176,116.95075221084426
808.649,120.4010444089472
811.119,100.20776586500824
813.588,82.94165431194006
816.055,77.69730860753043
818.521,46.4741422585962
820.984,48.84305123084869
823.446,23.994034139709584
825.906,39.30762196493606
828.365,33.878688717634304
830.821,64.61169067869696
833.276,72.2682865896245
835.729,72.37210070048786
838.181,43.16110486550997
840.631,47.82571492435682
843.079,2.8897442262941695
845.525,3.4485000114759714
847.97,1.835451220813411
850.412,22.574610881084936
852.854,44.0472045493907
855.293,73.49167227527232
857.731,58.00367056282175
860.167,60.96464576136623
862.601,58.08945507520548
865.034,56.61684471619628
867.465,55.97611853253193
869.894,41.88237806608686
872.321,12.860334038329711
874.747,25.053832121960568
877.171,12.892521569687688
879.594,-6.527190442708161
882.014,-28.251660663790517
884.433,-19.32715066150331
886.851,3.96207923316706
889.266,43.47472056382776
891.68,54.97431773124163
894.092,67.03402611874026
896.503,64.36994164621228
898.912,75.60300175265866
901.319,92.11612447399511
903.724,86.38753799703363
906.128,79.1336340229982
908.53,84.26134494056078
910.931,87.48718766555203
913.329,91.95630748067333
915.726,129.43295044663455
918.122,139.30045962281747
920.516,142.22793795460393
922.908,128.17024449404107
925.298,128.46322871573648
927.687,130.06182197561793
930.074,147.25431944587535
932.459,154.3290430022871
934.843,138.43148030201883
937.225,121.32618576619461
939.605,97.63487203865134
941.984,68.59831096850985
944.361,49.790615545122364
946.736,64.26209326159415
949.11,56.82495662116162
951.482,63.48189078643236
953.853,35.5689069429086
956.222,19.27914804346392
958.589,21.091456457585082
960.954,27.817989239664712
963.318,43.46135720681286
965.68,43.54795449286303
968.041,45.985097626186416
970.4,48.63245032179111
972.757,46.25440065437215
975.113,17.234342993266182
977.467,21.95562660406722
979.819,10.896789964534037
982.17,-8.41606032748632
984.519,-21.69496588422271
986.866,-11.50916507323609
989.212,-12.618428182013758
991.556,27.7412240537642
993.899,53.95275305011637
996.24,49.780000260700945
998.579,52.081966015126454
1000.92,51.00327883346563
1003.25,43.78371235980558
1005.59,56.94865467676436
1007.92,66.40433952476133
1010.25,45.199744187956185
1012.58,40.76467785637897
1014.91,26.481203321388875
1017.24,33.4931539092272
1019.56,43.84898374790191
1021.88,49.31128743138697
1024.2,43.785370711017094
1026.52,73.08115452021411
1028.84,106.96079328493715
1031.16,124.23391666977886
1033.48,142.80525227644466
1035.79,146.05558167557092
1038.1,149.69888691472397
1040.41,158.73473512165174
1042.72,149.9244726313359
1045.03,121.41027625590641
1047.33,102.76277598311935
1049.64,95.60010624627148
1051.94,125.6831476702987
1054.24,136.20124500835163
1056.54,139.10554412598913
1058.84,152.77566231870333
1061.13,141.16254910563885
1063.43,150.1694422613998
1065.72,174.0328238478669
1068.01,164.2271857698147
1070.3,169.13170009244254
1072.59,209.3159369779462
1074.87,215.5874873840089
1077.16,210.5633952860885
1079.44,215.43206609018466
1081.72,200.9532702836998
1084.0,199.07719470535244
1086.28,257.46825571984846
1088.56,322.457483821124
1090.84,395.13776537843864
1093.11,505.7924177158093
1095.38,561.65709752477
1097.65,544.7293283247523
1099.92,483.57802792346797
1102.19,372.10541682967414
1104.46,280.4041647611766
1106.72,269.8050133433094
1108.98,287.5434464264579
1111.24,309.3311223083431
1113.5,311.403496432496
1115.76,309.13887265816356
1118.02,328.15364500639976
1120.28,371.3975394061613
1122.53,351.20123639278563
1124.78,339.2287557112302
1127.03,285.6679361574047
1129.28,247.5637725623642
1131.53,228.81841944316488
1133.77,186.3816708442057
1136.02,96.01286874999005
1138.26,96.13804959313302
1140.5,97.13566219093104
1142.74,125.8603809200315
1144.98,145.11929984348285
1147.22,137.86241255206733
1149.45,117.32547295801646
1151.69,123.1728560887293
1153.92,134.2594664995479
1156.15,148.2974085912872
1158.38,130.09408549920363
1160.61,111.93315512481286
1162.83,91.05072426294828
1165.06,64.54011415739228
1167.28,61.49472129459923
1169.5,50.00802105456728
1171.72,41.50690469504184
1173.94,24.08501633571632
1176.16,38.550375656725464
1178.37,38.56823869236837
1180.58,51.89919919102476
1182.8,57.06586140363629
1185.01,58.209989062676186
1187.22,36.044892456345906
1189.42,27.71257740754413
1191.63,-15.121010509067446
1193.84,-31.98026555952515
1196.04,-23.10372247750456
1198.24,-30.253573044507675
1200.44,-19.620424424721705
1202.64,-14.299488657304892
1204.84,-17.1001089189881
1207.03,5.549473945983664
1209.23,28.744972381767866
1211.42,19.391758342210778
1213.61,27.109617708984615
1215.8,14.756552328774887
1217.99,26.19067924117553
1220.18,42.03212990658449
1222.36,30.043998553273696
1224.55,30.941861953027455
1226.73,39.01282300630464
1228.91,51.496459089311884
1231.09,77.29910373440566
1233.27,89.80336640573182
1235.44,90.10622370343685
1237.62,88.82853913931604
1239.79,76.92458291245794
1241.96,56.39631358964766
1244.13,32.67432645244344
1246.3,25.95118279663143
1248.47,27.133786850729393
1250.64,35.70052459925046
1252.8,49.653640701209724
1254.96,63.80494874196302
1257.13,64.25201767551948
1259.29,45.75912017161818
1261.44,37.042942867573174
1263.6,31.534487096298562
1265.76,20.52192199529327
1267.91,59.57915190133576
1270.06,75.80390755470921
1272.22,78.05583940915267
1274.37,92.71842046561301
1276.51,93.65132529648213
1278.66,52.666618593640806
1280.81,53.76684847840829
1282.95,64.19266362101189
1285.09,75.70852559814603
1287.23,112.98365934576918
1289.37,144.11586075476976
1291.51,118.583875695193
1293.65,89.77120761190554
1295.78,83.39468702501676
1297.92,76.98066007791704
1300.05,84.0078437519885
1302.18,96.05018108131299
1304.31,78.63398208167018
1306.44,77.28554087001612
1308.57,102.6263718315754
1310.69,145.5636838821738
1312.82,163.67133092105155
1314.94,169.42790514081344
1317.06,164.5500684326198
1319.18,137.0401695056621
1321.3,121.18624195901612
1323.41,131.1810499725425
1325.53,172.1697054263584
1327.64,199.91633263935933
1329.75,260.8040664410794
1331.87,260.88266929116844
1333.98,255.8209103036288
1336.08,231.6208490329534
1338.19,227.0940240221746
1340.3,192.8138318271035
1342.4,195.87742985009027
1344.5,176.90573441187962
1346.6,173.9005616806112
1348.7,152.38748288652596
1350.8,169.55867953667644
1352.9,130.5586557724912
1354.99,146.72233167972195
1357.09,139.67027945553264
1359.18,151.78491195653646
1361.27,153.49619505635837
1363.36,186.42450286032772
1365.45,174.99966339637035
1367.54,204.27048049637847
1369.62,207.90473186805525
1371.7,218.33202430961092
1373.79,232.55331559112688
1375.87,248.99805538353235
1377.95,274.714659520924
1380.03,265.0847937866861
1382.1,264.20432436628516
1384.18,248.88331591911037
1386.25,230.5507915550702
1388.33,194.87377852548389
1390.4,177.13825867587298
1392.47,136.43964270827928
1394.54,128.73038730072517
1396.6,108.53427889333716
1398.67,83.08928890304946
1400.74,61.4904289382946
1402.8,69.88022506132415
1404.86,62.30585871719131
1406.92,76.90964099607436
1408.98,62.83377260988141
1411.04,47.74415148790649
1413.09,39.49703751534162
1415.15,37.234288700358775
1417.2,21.573835436431636
1419.25,20.514440478945744
1421.3,-5.564302982961635
1423.35,3.574219438297405
1425.4,13.737931439545036
1427.45,46.92511543674368
1429.49,38.70536711685736
1431.54,31.41007522294717
1433.58,14.084806101170216
1435.62,30.346450152536136
1437.66,79.00227304657164
1439.7,146.9070636180545
1441.74,140.86790081137497
1443.77,128.0727301486977
1445.81,117.37608305527601
1447.84,93.25146285141909
1449.87,120.55325455398884
1451.9,129.42149182073922
1453.93,132.18662389467022
1455.96,117.75047302456392
1457.98,125.53862045695405
1460.01,121.73850671381228
1462.03,148.77562710832467
1464.05,147.07544154639004
1466.07,173.73004623287443
1468.09,178.0696072826354
1470.11,162.5671276648759
1472.13,134.9813093855946
1474.14,111.54703471765447
1476.16,116.11822838323314
1478.17,128.0250054505634
1480.18,140.16891446876843
1482.19,105.54675203126567
1484.2,63.10771067250562
1486.21,36.6581458123278
1488.21,44.43300936699006
1490.22,37.429188122094274
1492.22,36.0721754388519
1494.22,-0.26011418251073337
1496.22,-10.904006729824687
1498.22,1.232793503477751
1500.22,15.62358988411961
1502.22,25.789363993613733
1504.21,12.441636782731393
1506.21,0.9586630593023528
1508.2,6.909245023629865
1510.19,-5.423454196089324
1512.18,-25.75619215048232
1514.17,-9.138976294766053
1516.16,-4.050298526802862
1518.14,14.650484679973715
1520.13,28.151723589842277
1522.11,21.11804610873378
1524.09,8.0713096405525
1526.07,49.62869580064171
1528.05,56.35985274829454
1530.03,33.73927561450569
1532.01,15.527258358294375
1533.98,5.19846467064167
1535.96,-19.58188207395233
1537.93,2.946762562659387
1539.9,18.830739748108954
1541.87,30.497422898393324
1543.84,53.32664367293887
1545.81,68.88878463633728
1547.78,65.61144334864707
1549.74,71.20800121761204
1551.7,77.48714473182099
1553.67,77.06714859862905
1555.63,71.80444459637192
1557.59,65.12695233133559
1559.55,55.176933804254986
1561.5,55.66813369109627
1563.46,67.5524434333563
1565.41,73.87704151884486
1567.37,68.11772423865204
1569.32,60.51223644411607
1571.27,42.012649922832225
1573.22,49.09488463180719
1575.17,70.33013469251068
1577.11,67.14677057640756
1579.06,55.354146052395436
1581.0,56.4759289437643
1582.95,39.226289028013525
1584.89,19.033704984282622
1586.83,15.850485626506497
1588.77,17.2956244698953
1590.7,27.940511440278215
1592.64,49.26131125011102
1594.58,42.68657986972289
1596.51,32.192500046184705
1598.44,25.77906920312239
