Raman Shift,Processed Intensity
331.095,154.09572838863505
333.909,14.487747335423592
336.721,-29.40376457782986
339.531,-16.412125278158328
342.339,4.200806691423168
345.145,8.530358868721123
347.949,-8.37570462133408
350.751,-21.374313512750177
353.55,-41.179459939776734
356.348,-37.26694793059096
359.144,-28.8743831751608
361.937,-3.477357652615865
364.729,19.30579036298377
367.518,36.42826089588016
370.306,82.70050543327307
373.091,165.21879723283473
375.874,240.9366587730824
378.656,298.76009872755776
381.435,336.73808703424675
384.212,283.4911252030929
386.988,190.02076900446173
389.761,100.37629401475488
392.532,5.511837352497423
395.301,-37.713603442720796
398.068,-12.155219150344692
400.833,15.808086764042855
403.596,31.845121940892113
406.358,38.43430381135113
409.117,1.7684170273414566
411.874,-26.769200536931294
414.629,-23.98561464060913
417.382,-13.211632297512551
420.133,18.745809978653597
422.882,36.03220762152205
425.629,39.3645241945469
428.374,68.7454676133425
431.117,119.8444366600479
433.858,131.3308524004119
436.597,161.6360610294355
439.334,168.95333195511785
442.069,137.90452254886804
444.802,123.6353143244919
447.533,118.38663959335645
450.262,122.447060500519
452.989,156.4861004418076
455.714,201.316146909473
458.438,210.84483052831456
461.159,196.12264218704559
463.878,171.9619787410902
466.595,148.6990458582295
469.31,108.71766562616267
472.024,112.87784606482364
474.735,118.65863635299684
477.444,126.63431538824807
480.152,152.09343748972515
482.857,173.4674019104773
485.561,166.0447366354947
488.262,196.256810751177
490.962,207.39211824337235
493.659,213.78675227160102
496.355,214.3482127766065
499.048,208.36492837362493
501.74,183.22054015041704
504.43,157.10818546528117
507.118,174.0304960308058
509.804,194.9900721880872
512.488,234.03710003809283
515.17,266.41220666826484
517.85,277.9750296648381
520.528,295.7280247203885
523.204,313.0545589556664
525.878,305.29033757477146
528.551,289.961497186981
531.221,283.4512705571592
533.89,280.14284183235077
536.556,300.8479160541028
539.221,328.85433628982037
541.883,350.6403674307876
544.544,367.1604085616236
547.203,416.9402291392703
549.86,428.60077660053776
552.515,398.19150777919185
555.168,397.8570536563566
557.819,397.55150315854553
560.469,384.0860202890208
563.116,394.03360411630683
565.761,362.1576582865018
568.405,327.98341767844386
571.047,306.46461315411943
573.687,319.31680297573394
576.324,320.96975184183793
578.96,296.51980992344716
581.594,247.5394347573074
584.227,213.26766552011304
586.857,165.56250206462892
589.485,172.99614109867616
592.112,155.42640284030676
594.737,145.56815767297076
597.359,126.75522899116504
599.98,86.41658176036799
602.599,57.8382253626869
605.216,62.97273549012107
607.831,38.29639508544551
610.445,76.85681147357127
613.056,77.46339063575351
615.666,46.925430531429356
618.274,7.147357277196988
620.88,5.557294659128274
623.484,-5.940556831106733
626.086,12.986459789505261
628.686,16.19469550677104
631.284,21.63562266137569
633.881,-8.548926841784578
636.476,7.306573560982997
639.068,13.343729975995757
641.659,42.46594536097473
644.249,49.86223282187484
646.836,65.57864930670576
649.421,48.51830072793837
652.005,46.06039470394671
654.587,33.965007586170486
657.166,36.70642291485183
659.745,16.90170797000974
662.321,24.072623655743882
664.895,14.502772479784653
667.468,37.14236558065659
670.038,51.1796564215083
672.607,44.94570781727316
675.174,49.533444676112595
677.739,59.940516264679445
680.303,24.78358704479524
682.864,21.822151319662225
685.424,3.3871097848295904
687.982,-16.238272968454567
690.538,6.51497000248537
693.092,31.406275018909128
695.645,41.7188845530527
698.195,58.45032685766455
700.744,51.97908607172849
703.291,51.49317708809758
705.836,54.84729184969092
708.38,30.515183740937573
710.921,21.35157578874032
713.461,29.21121172058247
715.999,60.80600226073284
718.535,78.84788571215768
721.069,97.2869266336761
723.602,83.02560499330048
726.133,71.91881960729825
728.662,51.25008205543281
731.189,39.63628202478185
733.714,31.218166939261664
736.238,17.136535874866695
738.759,22.532242998716356
741.279,30.7366771985794
743.798,33.652717902870336
746.314,25.230928995880276
748.829,24.612419399677037
751.342,-9.633058248765337
753.853,-17.840437491856846
756.362,-15.916001279023021
758.869,36.75785858228073
761.375,40.13216583370695
763.879,55.11040633216953
766.381,47.072336520755925
768.882,53.588268090114525
771.38,63.847638354123774
773.877,88.70662824461624
776.372,47.73578030609224
778.866,39.07714049996957
781.357,30.11092381835033
783.847,49.217417993026174
786.335,71.9198395854387
788.821,85.26528531473423
791.306,67.44377862390775
793.789,101.31207815070775
796.27,101.29843857949936
798.749,104.1645143502783
801.227,105.52916812958347
803.702,80.29704118616974
806.176,88.13474281430854
808.649,86.08989689993723
811.119,70.01971229633864
813.588,56.73383891410185
816.055,70.28008095393216
818.521,74.51582442518838
820.984,119.20327418821216
823.446,68.00945290143773
825.906,41.553819016108264
828.365,23.93207524718855
830.821,50.52569132999133
833.276,80.62095058632758
835.729,99.1708536335077
838.181,68.6998792362042
840.631,56.875411824966704
843.079,30.65059758617872
845.525,48.35958150439092
847.97,62.33655392846413
850.412,59.63003523294765
852.854,43.90763666993371
855.293,37.3132021732913
857.731,12.085854924812338
860.167,1.512377253682189
862.601,8.641495297853908
865.034,11.521973189233904
867.465,22.34546929620774
869.894,43.39891627568932
872.321,61.493091601364085
874.747,39.67690237764373
877.171,27.85643205838869
879.594,20.556844308474865
882.014,34.20809638918308
884.433,51.09731921024695
886.851,83.27357833427777
889.266,74.59549212405682
891.68,79.82646893744004
894.092,101.01565860797427
896.503,105.45033249694916
898.912,86.51302545019871
901.319,106.44343965967255
903.724,73.76701519166818
906.128,91.34254813411235
908.53,109.07647541051301
910.931,127.5419214986623
913.329,121.83584038745221
915.726,153.48377658129766
918.122,135.4398641998023
920.516,155.32492131552726
922.908,149.759782386991
925.298,151.17482116786505
927.687,117.61947361617376
930.074,105.3812846130113
932.459,85.98590706221967
934.843,101.19710099006124
937.225,110.96911359727574
939.605,131.44667835874998
941.984,128.25072840891198
944.361,131.90696706997596
946.736,137.32205742780616
949.11,119.35505000302464
951.482,97.8173818506948
953.853,83.99668518382077
956.222,58.418691234929156
958.589,43.79961030813638
960.954,42.42708325978583
963.318,21.77922821718539
965.68,4.429401583052822
968.041,-3.191898102891173
970.4,-4.8922691594789285
972.757,13.5206880226674
975.113,32.810798772031376
977.467,14.884741419694365
979.819,-7.731762157922276
982.17,-54.37013694871257
984.519,-53.02847705367935
986.866,-27.085830654700885
989.212,33.9835087143083
991.556,61.133799986407666
993.899,68.03355415318265
996.24,25.208376713443613
998.579,23.231429169547482
1000.92,6.056747666577849
1003.25,47.30494511888401
1005.59,36.120344260790716
1007.92,41.55192085799399
1010.25,23.26758025230197
1012.58,33.55414819208363
1014.91,59.12688547224661
1017.24,81.12948115899258
1019.56,80.84833492224675
1021.88,60.95064889189507
1024.2,46.722519514023816
1026.52,30.783219883339598
1028.84,80.32329159941605
1031.16,107.15216510926462
1033.48,149.88864038415795
1035.79,136.57993902501198
1038.1,136.93980398683107
1040.41,112.30088501743012
1042.72,132.75760028664308
1045.03,154.9280456345657
1047.33,174.5730466769528
1049.64,173.2628299582277
1051.94,178.04369410450317
1054.24,144.34277621469755
1056.54,138.58710396593324
1058.84,138.44169533798708
1061.13,154.23813452821128
1063.43,143.73648119978816
1065.72,181.03003687284172
1068.01,197.21201607745456
1070.3,213.7565032209734
1072.59,208.94702850293015
1074.87,230.0194295442559
1077.16,212.59042730221063
1079.44,217.4195353186417
1081.72,220.17096896824955
1084.0,249.41364994494438
1086.28,312.2878774148651
1088.56,406.07676107416773
1090.84,481.3490827782384
1093.11,525.5307295994771
1095.38,523.2380316469851
1097.65,509.1825284576837
1099.92,473.0281163398131
1102.19,408.2005766688069
1104.46,363.03043751650375
1106.72,338.18154956606736
1108.98,333.3177572650052
1111.24,359.1505223591357
1113.5,395.29607123607684
1115.76,387.6087327449279
1118.02,383.1333236349974
1120.28,355.67658161358077
1122.53,333.23574126088374
1124.78,333.4271099449411
1127.03,323.91464373654185
1129.28,261.600428086055
1131.53,213.95801564311614
1133.77,172.79433550488216
1136.02,160.53541198809103
1138.26,193.13113102017905
1140.5,194.10286367324875
1142.74,184.7339468408993
1144.98,188.59349724838717
1147.22,180.44117784374225
1149.45,189.65577371269205
1151.69,213.616148945963
1153.92,192.6060130303963
1156.15,178.52821104958684
1158.38,154.47615674166786
1160.61,122.06717031899734
1162.83,112.58534009736559
1165.06,118.83866983949179
1167.28,123.44479752709299
1169.5,103.59290460913758
1171.72,74.66276810725185
1173.94,50.129527006830585
1176.16,1.2779724576816989
1178.37,-8.416495358667817
1180.58,-21.85929131404191
1182.8,-20.47949785566243
1185.01,4.055852999922763
1187.22,18.17511432420838
1189.42,-8.836071870538717
1191.63,-14.21572750139967
1193.84,-25.773156126353797
1196.04,-11.412752066601115
1198.24,7.104093716513489
1200.44,34.111370651012066
1202.64,30.657491044893277
1204.84,28.457666631721168
1207.03,30.17961844954334
1209.23,27.9673819579059
1211.42,16.060350250110332
1213.61,23.840888694033993
1215.8,7.83433052534042
1217.99,14.375639107349798
1220.18,53.56178447662933
1222.36,85.25173972097491
1224.55,102.1617154526316
1226.73,99.57944190056355
1228.91,61.4117843360591
1231.09,33.518072784053174
1233.27,11.519622210641955
1235.44,16.609252710597048
1237.62,48.598904932975984
1239.79,49.586303125778386
1241.96,50.19304675203057
1244.13,35.89794020110503
1246.3,14.560798690515867
1248.47,27.660539881998375
1250.64,42.15232311663726
1252.8,21.27706960237242
1254.96,21.1328873634111
1257.13,17.72268666582977
1259.29,6.9065573479385876
1261.44,18.877955674460054
1263.6,29.11608166689757
1265.76,27.052542148192515
1267.91,6.690394739756584
1270.06,4.3660490013605795
1272.22,-6.726927667067457
1274.37,-0.6330510729410435
1276.51,29.174601065715706
1278.66,39.41343353362004
1280.81,38.5151398718815
1282.95,71.95903244116744
1285.09,60.224420103923194
1287.23,46.74298590659032
1289.37,47.99402190468322
1291.51,55.36156874977496
1293.65,57.42012670505119
1295.78,79.22036666086683
1297.92,52.95579353124822
1300.05,23.96274298373237
1302.18,12.43466388349293
1304.31,40.422115023171955
1306.44,57.023238043196216
1308.57,64.76470779341116
1310.69,75.12553983756948
1312.82,44.632326529241936
1314.94,46.38304451630074
1317.06,74.99943367397577
1319.18,90.72223318076499
1321.3,103.45879854673035
1323.41,136.40214721321877
1325.53,144.65000415259283
1327.64,172.34765699176228
1329.75,196.59271589761556
1331.87,218.53034965293568
1333.98,221.829474113262
1336.08,221.01608352089352
1338.19,207.9970580093718
1340.3,181.86968539367967
1342.4,155.01689724614994
1344.5,147.0120287818986
1346.6,113.90453112522187
1348.7,101.36282643312643
1350.8,102.24573444743737
1352.9,87.03104190404451
1354.99,100.48216718024287
1357.09,105.0767297039788
1359.18,130.9113098392861
1361.27,150.03478020029365
1363.36,150.59116077475323
1365.45,125.62914071423847
1367.54,129.29255250529036
1369.62,125.43941756913523
1371.7,165.5467061471113
1373.79,199.94843051943644
1375.87,224.78802393825868
1377.95,230.16119575119023
1380.03,270.782596048643
1382.1,284.6524803111697
1384.18,277.77099310442213
1386.25,247.23340415505822
1388.33,201.99201109332512
1390.4,156.28470886229707
1392.47,141.1111781747395
1394.54,124.2805025414018
1396.6,114.3635472040728
1398.67,116.02629044958735
1400.74,88.12505968573964
1402.8,93.32557704100532
1404.86,82.10295734521674
1406.92,76.83694420547818
1408.98,68.14524132017868
1411.04,56.931129507291416
1413.09,22.812036113625936
1415.15,11.595723471694782
1417.2,10.423144023246778
1419.25,29.863678679971827
1421.3,22.105614466473753
1423.35,22.14662323202697
1425.4,38.889002267095066
1427.45,45.18729808326361
1429.49,38.32450162173927
1431.54,36.583481557089954
1433.58,12.104131886696905
1435.62,-0.02138524169322409
1437.66,22.72755567853642
1439.7,48.25243042686952
1441.74,76.64509482458607
1443.77,108.61636212273243
1445.81,108.97219943771688
1447.84,83.94706704404598
1449.87,80.91821004800772
1451.9,80.78661672802332
1453.93,96.78654830356572
1455.96,108.00935441837441
1457.98,111.45109814747002
1460.01,91.82208576607923
1462.03,95.73734889950993
1464.05,108.62141238731442
1466.07,128.660681195071
1468.09,141.51773208807322
1470.11,157.04560530501954
1472.13,140.00209623169826
1474.14,139.9069042175356
1476.16,137.66068615404447
1478.17,147.8783957675546
1480.18,110.12738481670567
1482.19,89.16550428993787
1484.2,51.41730084107871
1486.21,28.259737034456066
1488.21,27.688863970965258
1490.22,43.41506534270616
1492.22,43.72020624952643
1494.22,37.26716296794439
1496.22,33.33792414864706
1498.22,14.30978725207865
1500.22,40.417269269745475
1502.22,44.3711603026627
1504.21,41.4061485683726
1506.21,4.518921598444649
1508.2,-16.293732564027096
1510.19,-28.463490833591095
1512.18,-12.040965313512515
1514.17,-6.695699031913136
1516.16,-7.859021853815193
1518.14,-7.866907633886285
1520.13,-4.245689194176521
1522.11,23.8593687532466
1524.09,25.63644826223731
1526.07,35.98812780741309
1528.05,46.57899860567068
1530.03,40.35947141388465
1532.01,26.184821421848483
1533.98,21.767566478545632
1535.96,18.772702461275458
1537.93,21.43674816858993
1539.9,65.23440926085004
1541.87,87.06905172459301
1543.84,73.32031819403869
1545.81,65.89174427260218
1547.78,62.972660568684205
1549.74,55.18104711241381
1551.7,92.80162586763367
1553.67,95.16681038673937
1555.63,95.37098879885548
1557.59,93.74671155991268
1559.55,96.48373634558652
1561.5,88.1052158013731
1563.46,75.75340910219052
1565.41,49.33253636911877
1567.37,69.79449022899871
1569.32,65.23407118354999
1571.27,58.841365835636
1573.22,72.13983940124035
1575.17,53.986332983350394
1577.11,58.04725132202884
1579.06,65.08427435400631
1581.0,61.859116391318594
1582.95,58.13352339518474
1584.89,77.33593691655278
1586.83,72.46625327474158
1588.77,55.52439225988883
1590.7,7.605532502068627
1592.64,-7.671319826258923
1594.58,-9.97285754589825
1596.51,6.629477183912513
1598.44,45.30234650056764
