Raman Shift,Processed Intensity
331.095,80.10907962007968
333.909,-9.682045810104228
336.721,-47.52657655307439
339.531,-45.75783793190794
342.339,-18.066282106322433
345.145,21.14337708045059
347.949,69.5378863976348
350.751,44.45069933240711
353.55,31.834365052538033
356.348,66.4986316547579
359.144,100.72950179406735
361.937,136.28924069400955
364.729,156.79733653789572
367.518,191.6828894314599
370.306,188.6131908417019
373.091,248.44611255955397
375.874,334.18249566253826
378.656,374.394729953623
381.435,328.560095304837
384.212,258.34648395326667
386.988,132.13621803514707
389.761,38.74034331041821
392.532,22.827208601581788
395.301,7.160569042071529
398.068,-29.305167818206883
400.833,-41.85350543116783
403.596,-24.291563798487005
406.358,-36.140550304511635
409.117,-22.588140433540957
411.874,-4.250385193754937
414.629,-5.838385010459206
417.382,-4.348775954786106
420.133,18.079116846548004
422.882,48.59183936044701
425.629,120.33608253041757
428.374,201.5539107451973
431.117,290.6779958715838
433.858,387.8554227158238
436.597,455.4714944850057
439.334,471.1497287246416
442.069,500.4185199229014
444.802,474.4730402100977
447.533,446.6038067248237
450.262,452.53001088486917
452.989,452.44713337241956
455.714,476.4078924525829
458.438,496.94128753001723
461.159,480.00497603888425
463.878,452.651936047092
466.595,445.31617647957046
469.31,406.1936854367891
472.024,379.7186166085048
474.735,324.8013804494208
477.444,314.82864011674474
480.152,332.4252121696577
482.857,379.97787203068447
485.561,370.6353499232514
488.262,348.64166014258535
490.962,360.19323985042183
493.659,408.39132596495665
496.355,444.7657606222165
499.048,509.7035585421945
501.74,526.2584267759407
504.43,550.9602844526471
507.118,612.2438301457905
509.804,701.8294901916483
512.488,791.0091289125849
515.17,914.741282649853
517.85,1015.365441415448
520.528,1051.9353781630084
523.204,1063.4096209158588
525.878,1086.5085915617265
528.551,1075.8098398855464
531.221,1089.0337537927544
533.89,1107.424507627807
536.556,1095.702439064129
539.221,1093.4926164702692
541.883,1090.1343586569924
544.544,1092.7764689100932
547.203,1096.472469023212
549.86,1092.5615476163534
552.515,1128.001889406784
555.168,1177.4182901942231
557.819,1242.959295655547
560.469,1312.2495782347387
563.116,1366.008980699498
565.761,1412.8144168407184
568.405,1467.6236769338748
571.047,1565.0611379623106
573.687,1643.751092888156
576.324,1716.6986989708525
578.96,1731.1471165618646
581.594,1726.72036218513
584.227,1695.3280663793894
586.857,1695.4511839214956
589.485,1638.237227859223
592.112,1595.9764559250466
594.737,1516.0066283784786
597.359,1378.1891944198533
599.98,1282.0045262231324
602.599,1201.742391063976
605.216,1141.9781377335048
607.831,1095.76316866636
610.445,1129.4344596878022
613.056,1142.328841665581
615.666,1236.7353773998884
618.274,1357.0858337514223
620.88,1490.9546775789736
623.484,1659.4876431055714
626.086,1867.0207754751268
628.686,2033.5089981185802
631.284,2128.8118229771994
633.881,2147.693346440153
636.476,2079.2508167106694
639.068,1966.771772600755
641.659,1796.924515659271
644.249,1587.5676299190259
646.836,1334.5118825962877
649.421,1095.2345057426414
652.005,868.1172874206827
654.587,680.589424784454
657.166,515.4608533503774
659.745,384.92224293483923
662.321,275.30689835368685
664.895,199.5193267883824
667.468,150.89237658073444
670.038,140.33009031334313
672.607,105.498176937665
675.174,50.014483902078155
677.739,24.21089785137201
680.303,3.6571500881473185
682.864,21.11319849508982
685.424,30.672088235061892
687.982,29.712336669827437
690.538,0.5169871666712424
693.092,7.5593326760294985
695.645,7.88388038587027
698.195,17.77303071750748
700.744,5.937566635690928
703.291,17.088096154986033
705.836,16.411256750905522
708.38,31.52211085299814
710.921,66.03558895697233
713.461,91.37602797492036
715.999,125.20575720457873
718.535,132.7108271557513
721.069,133.4581669481404
723.602,106.63369409014604
726.133,93.37566235288932
728.662,73.58420012043507
731.189,69.44513445429902
733.714,29.001434205579244
736.238,14.581795984228393
738.759,-14.246960347863023
741.279,-3.6322580885457683
743.798,3.84996513100441
746.314,6.385748077464996
748.829,-0.9340224010788916
751.342,-25.065977786818166
753.853,-19.109491446758057
756.362,-15.068568853923807
758.869,-30.328026031793343
761.375,-43.60585847491939
763.879,-34.477038640984574
766.381,-37.2782688915845
768.882,1.987260991398216
771.38,6.316541337618673
773.877,2.4210253294099857
776.372,-13.320993018994159
778.866,-6.00723897746002
781.357,4.693301831656299
783.847,27.77847569845153
786.335,78.81771975708398
788.821,122.33301139357536
791.306,193.79886527265762
793.789,252.9280446503376
796.27,321.8144155436021
798.749,401.313896138221
801.227,494.5206442917902
803.702,562.9575307510577
806.176,644.3856599882988
808.649,651.8519862757876
811.119,650.213120236459
813.588,630.516278251715
816.055,564.046898535898
818.521,484.2334000679075
820.984,444.6471796180517
823.446,385.5264182987157
825.906,339.2998881150179
828.365,307.1583775631034
830.821,263.76897437127036
833.276,224.036967288735
835.729,205.9153669220027
838.181,196.16680752362163
840.631,187.60163925713414
843.079,184.98268712868503
845.525,171.0252480138779
847.97,153.68280197035165
850.412,115.43272355035538
852.854,117.37151692284715
855.293,115.9767176622579
857.731,112.4878421563003
860.167,114.62067034711731
862.601,91.71009990099378
865.034,64.71014323521808
867.465,73.52725787827785
869.894,72.30605778243171
872.321,79.71502463628622
874.747,111.61317155832012
877.171,106.2881353618352
879.594,96.74188786753325
882.014,100.4050186446566
884.433,93.37482727594352
886.851,117.12960609877882
889.266,137.86197056537821
891.68,160.5264753172744
894.092,191.69675406931037
896.503,169.51789758888663
898.912,139.03978405615658
901.319,123.74088561469398
903.724,107.71874158883406
906.128,131.88043170101355
908.53,182.08543024148912
910.931,188.95512690472265
913.329,180.92044286387022
915.726,168.22182779764944
918.122,161.52830453625393
920.516,158.41365656441826
922.908,175.97547266732795
925.298,173.45419157654624
927.687,174.42357518735685
930.074,196.83832463326416
932.459,213.8912201700025
934.843,205.3940705833702
937.225,212.20628164467394
939.605,186.091995994748
941.984,180.0058044565401
944.361,167.3308383000765
946.736,183.2597186502876
949.11,164.5088392281623
951.482,189.84217290142647
953.853,164.30936394951232
956.222,167.2457250904224
958.589,152.3674726028371
960.954,156.96219954346248
963.318,124.84125372627886
965.68,120.67306808274998
968.041,79.79268149822337
970.4,61.67792631498514
972.757,46.66371107342047
975.113,39.32296991983321
977.467,36.08570725236564
979.819,46.66756617643523
982.17,56.49839696017875
984.519,43.48415882322797
986.866,19.054536011199616
989.212,-6.027541367907361
991.556,4.143623492684128
993.899,44.426016860794334
996.24,70.29657943205211
998.579,67.13691935070005
1000.92,34.70950142087372
1003.25,16.443360127413825
1005.59,10.672193609051874
1007.92,12.205790964933612
1010.25,19.33003263703199
1012.58,14.711653781252153
1014.91,34.87443744103939
1017.24,30.484931530505037
1019.56,29.876261055650957
1021.88,14.000511764164457
1024.2,25.809685223779752
1026.52,48.065225329227815
1028.84,71.05230671394725
1031.16,69.19888506656639
1033.48,86.21855697118667
1035.79,91.34865784291105
1038.1,76.30264557764963
1040.41,99.31772229717058
1042.72,78.58340847509908
1045.03,101.00345039625608
1047.33,107.91010856837079
1049.64,118.44511280046731
1051.94,105.03585537648564
1054.24,118.53825089556972
1056.54,124.14150087425719
1058.84,167.17762025343518
1061.13,157.12144009577173
1063.43,137.638229330767
1065.72,148.77417364265148
1068.01,125.86114007258243
1070.3,166.9928701922563
1072.59,197.07260184895767
1074.87,191.8130718629825
1077.16,168.4508044393492
1079.44,204.9365900557002
1081.72,186.5069167311517
1084.0,243.68397272371976
1086.28,295.5613635134557
1088.56,370.7564954522504
1090.84,445.7915308422123
1093.11,525.8076763473728
1095.38,533.327090453015
1097.65,522.2052671154731
1099.92,463.3929432214577
1102.19,407.9837203330924
1104.46,378.78549595675963
1106.72,357.3680852881407
1108.98,335.3013191477287
1111.24,358.9169514401499
1113.5,405.6896142325386
1115.76,465.0939633090941
1118.02,535.9380142018408
1120.28,573.6964782213768
1122.53,567.701241344774
1124.78,552.3318431034743
1127.03,534.8250030902398
1129.28,474.8936712756117
1131.53,429.91750689581204
1133.77,368.180976388262
1136.02,310.7304989461418
1138.26,281.04111588248793
1140.5,322.3498266609465
1142.74,380.65559159319696
1144.98,460.1002869173235
1147.22,525.206802733335
1149.45,531.6885695101128
1151.69,490.973370306642
1153.92,423.0128672789592
1156.15,348.0445091394763
1158.38,282.8772481401238
1160.61,249.6058284840517
1162.83,219.56316997543445
1165.06,184.41560881213354
1167.28,142.16290028311437
1169.5,122.18584051349035
1171.72,94.86531678098436
1173.94,61.772786403823375
1176.16,28.622660390537703
1178.37,28.034210899282016
1180.58,46.67443107810777
1182.8,48.59137109571111
1185.01,27.78556941027682
1187.22,5.495769752607885
1189.42,-31.610599985985345
1191.63,-31.675520294358876
1193.84,-21.84085298498735
1196.04,-14.915008141294493
1198.24,-20.13485271282957
1200.44,9.786664209762876
1202.64,16.9938368894866
1204.84,14.154859552335893
1207.03,8.033245897450342
1209.23,12.059250310894413
1211.42,15.806052422300127
1213.61,90.4659424964168
1215.8,131.56460330868754
1217.99,158.29444126460885
1220.18,157.22886990004463
1222.36,146.4651648101128
1224.55,148.195890006647
1226.73,149.42318141850888
1228.91,119.67303039190688
1231.09,84.51909100023681
1233.27,80.48743973487399
1235.44,105.86609710072958
1237.62,152.08597778323315
1239.79,199.76850748198603
1241.96,251.01133498250897
1244.13,302.293091847039
1246.3,389.6638663910353
1248.47,495.41186813587456
1250.64,647.5396160710711
1252.8,843.4782221545925
1254.96,1028.8016748131633
1257.13,1243.2268367282988
1259.29,1473.7086807175615
1261.44,1651.964097044406
1263.6,1745.7576054899143
1265.76,1717.187067424544
1267.91,1579.588445498918
1270.06,1420.7738966679476
1272.22,1306.9841509292473
1274.37,1175.2694614901072
1276.51,1030.0610311249566
1278.66,915.5043432947225
1280.81,794.840112313819
1282.95,686.6899954218873
1285.09,635.2946858079251
1287.23,560.3234342058399
1289.37,529.3026181090406
1291.51,537.9014538421882
1293.65,555.7891372043662
1295.78,549.7300793503446
1297.92,586.2981902908989
1300.05,626.257829059783
1302.18,676.8018967378541
1304.31,739.7899294771939
1306.44,825.3195248585648
1308.57,863.5358634869572
1310.69,970.8698020157121
1312.82,1103.4664423611196
1314.94,1175.7089390122535
1317.06,1237.599449197954
1319.18,1264.5686544823802
1321.3,1232.999568074839
1323.41,1204.6561040443878
1325.53,1117.778313201089
1327.64,1013.844285643939
1329.75,897.9511009278419
1331.87,823.7672068020038
1333.98,731.2467027102421
1336.08,665.7245756722414
1338.19,579.2976504505223
1340.3,510.4912540031346
1342.4,406.5449275553949
1344.5,326.2695672430573
1346.6,237.38075523167345
1348.7,195.59399559786107
1350.8,205.33899782962408
1352.9,215.1882460409431
1354.99,196.5236634244768
1357.09,158.29851479949048
1359.18,137.5135948740808
1361.27,93.8838926978699
1363.36,124.55287516232056
1365.45,154.18772288200216
1367.54,167.69361369490093
1369.62,156.2613394960722
1371.7,159.3196849760518
1373.79,171.63066350213603
1375.87,206.7657053806081
1377.95,262.9151794523
1380.03,279.55505754529327
1382.1,252.39929321333852
1384.18,205.39981952189623
1386.25,183.0322611198833
1388.33,120.8673605971419
1390.4,88.38050007999527
1392.47,59.90407996966201
1394.54,23.72275482353257
1396.6,-9.831330763558526
1398.67,1.907169912420386
1400.74,22.793948858837666
1402.8,23.017899708937648
1404.86,46.43445045106
1406.92,44.3274700118061
1408.98,39.694986800074275
1411.04,71.34443106062054
1413.09,138.84502008476488
1415.15,201.4801434210949
1417.2,301.39022427664736
1419.25,366.95367615618284
1421.3,414.9297642633644
1423.35,435.8395621400339
1425.4,454.7754797340565
1427.45,440.0679343243089
1429.49,400.9996404932847
1431.54,331.28180486161
1433.58,261.0541303463615
1435.62,210.83720137177352
1437.66,199.8658214608963
1439.7,195.99377939868418
1441.74,187.3129011093663
1443.77,186.86733962905987
1445.81,194.03453174504557
1447.84,186.7632974921878
1449.87,192.57384441126055
1451.9,227.2720575215635
1453.93,238.85426548401006
1455.96,270.69772104993626
1457.98,335.51298627181654
1460.01,399.3439367615988
1462.03,503.0439564252274
1464.05,645.8949893400209
1466.07,798.9884963939553
1468.09,1000.4635547820938
1470.11,1271.1259098839657
1472.13,1574.6384557123706
1474.14,1905.949810600285
1476.16,2178.532416697285
1478.17,2326.2873061326454
1480.18,2362.210771940331
1482.19,2289.7753246982893
1484.2,2079.5011253582056
1486.21,1828.4321799800314
1488.21,1493.0887249426899
1490.22,1143.8958026309879
1492.22,849.6118371225132
1494.22,614.8048289221551
1496.22,432.51902588710163
1498.22,312.70349891373826
1500.22,226.06928905311497
1502.22,160.4227451026086
1504.21,128.76076595948325
1506.21,68.12794773635346
1508.2,64.0451594480769
1510.19,81.8428806034101
1512.18,80.0897768919042
1514.17,35.02127587079622
1516.16,10.968142651902554
1518.14,-40.88161107815563
1520.13,-22.149389466300136
1522.11,4.162563193899359
1524.09,-3.9955045658768995
1526.07,0.13628873310040035
1528.05,10.222692876502606
1530.03,14.023799005191677
1532.01,40.20456029623119
1533.98,40.38240788199937
1535.96,11.746295340727784
1537.93,1.5805050918027064
1539.9,10.026550029163218
1541.87,2.6069799166061784
1543.84,33.51109270370716
1545.81,69.40445536554398
1547.78,80.76223452744148
1549.74,93.67871756590444
1551.7,138.7244527571729
1553.67,164.7557703781565
1555.63,195.9147799978373
1557.59,224.91508205439504
1559.55,249.0893841942302
1561.5,256.7704509443263
1563.46,284.3863390988929
1565.41,277.74610929648975
1567.37,276.3255375971428
1569.32,254.12425563089118
1571.27,232.61812884157803
1573.22,209.33068234967664
1575.17,193.59500300560535
1577.11,158.79183191922698
1579.06,146.58765698934258
1581.0,119.41090067128675
1582.95,107.02334583975585
1584.89,93.18679974687598
1586.83,115.94880559931676
1588.77,122.4045446115988
1590.7,113.74445234510745
1592.64,98.15897790425606
1594.58,65.74334313264626
1596.51,37.99753990445879
1598.44,27.088232177753298
