Raman Shift,Processed Intensity
331.095,76.93671012646882
333.909,155.64535472272746
336.721,179.15730330496717
339.531,171.13923022998915
342.339,149.13877761579351
345.145,186.37027731743456
347.949,217.02428242665974
350.751,235.10090829536966
353.55,230.74317355907897
356.348,243.28462687467436
359.144,271.963640324836
361.937,334.44722663198627
364.729,375.4500944674792
367.518,374.4965609036353
370.306,359.2062733896146
373.091,358.5323126796493
375.874,370.0945338565457
378.656,360.0367168789767
381.435,309.1218123668709
384.212,222.82718738680978
386.988,158.7255855231324
389.761,93.48513456806995
392.532,42.774116116675486
395.301,5.641925637920394
398.068,-10.814253168476625
400.833,-6.68753591999166
403.596,-6.547043577758814
406.358,-24.295038195450616
409.117,-55.35739272478531
411.874,-90.0169186887947
414.629,-81.60383955794487
417.382,-4.5910330601582245
420.133,43.120237845527754
422.882,74.34315402085394
425.629,113.89102577255244
428.374,166.38679302869468
431.117,234.92967675597492
433.858,392.7142235610627
436.597,487.9826836252769
439.334,536.3107219725916
442.069,565.3217011662359
444.802,555.5914401957589
447.533,552.6958305069547
450.262,570.1155948889291
452.989,589.3791415992632
455.714,619.014942298696
458.438,635.9801004620085
461.159,563.8508245508019
463.878,521.7748059481901
466.595,468.1378826077612
469.31,445.84975032158354
472.024,442.34395970249034
474.735,467.86362745209
477.444,453.36619524782463
480.152,474.5234267252572
482.857,527.3880711270322
485.561,509.6319555232599
488.262,535.6412198890544
490.962,584.5163140868203
493.659,634.2148519914026
496.355,661.7420846628434
499.048,724.0556592334337
501.74,747.6370444614236
504.43,860.8724800942582
507.118,963.9577357556341
509.804,1050.6600126896847
512.488,1136.460797886125
515.17,1250.7463372530196
517.85,1365.902870694289
520.528,1515.840438615809
523.204,1599.1833550981569
525.878,1603.4130620217447
528.551,1600.3919355729095
531.221,1599.5537594166763
533.89,1599.7608645361793
536.556,1621.1612690721008
539.221,1630.998199114465
541.883,1597.7053237801747
544.544,1560.7638950524383
547.203,1554.7979828582884
549.86,1577.288757765139
552.515,1608.9554403440065
555.168,1651.041012437503
557.819,1705.2645950944802
560.469,1772.7738265046873
563.116,1837.287716123894
565.761,1932.1442607037861
568.405,1996.1575841313784
571.047,2067.7131725065274
573.687,2143.57739493372
576.324,2220.373690980555
578.96,2275.153996231443
581.594,2299.6844535556047
584.227,2273.5882672321973
586.857,2250.9647475516367
589.485,2197.008355416916
592.112,2136.818223135398
594.737,2044.5410085439335
597.359,1947.0851777054136
599.98,1842.9781447481728
602.599,1767.8424593244572
605.216,1711.3005654974368
607.831,1717.4509891996613
610.445,1748.3921447391372
613.056,1793.6509032101662
615.666,1859.3730656660905
618.274,1981.1328839110888
620.88,2175.837819387208
623.484,2415.1094925375905
626.086,2685.1884416935054
628.686,2870.9341200566346
631.284,3020.586797443238
633.881,3124.1485096473903
636.476,3127.9068649470646
639.068,3002.4350410864204
641.659,2753.163210829507
644.249,2390.569015133016
646.836,1995.272798223798
649.421,1631.03760458113
652.005,1271.8644140142264
654.587,977.4683291206957
657.166,749.7071436973847
659.745,572.4861016274222
662.321,434.3293224339227
664.895,349.57027445273843
667.468,279.92320038616344
670.038,229.76882857091277
672.607,196.10675091278472
675.174,158.07922939274204
677.739,109.8759549539468
680.303,67.92452067450859
682.864,43.31899017832802
685.424,30.391323188800015
687.982,31.854236666595625
690.538,30.896451507067923
693.092,20.70651392644504
695.645,6.47281068208531
698.195,-12.854507729741272
700.744,-43.13493504471853
703.291,-24.1328260401815
705.836,-5.564995687499504
708.38,14.042153019478974
710.921,31.543117687806898
713.461,54.60187981558465
715.999,53.26334522495927
718.535,65.52478449512364
721.069,102.62155910960882
723.602,110.50332379403562
726.133,93.21499075863903
728.662,79.23007489316706
731.189,47.83165800940333
733.714,-14.125694535355251
736.238,-40.12068388150101
738.759,-62.82240866269103
741.279,-72.04273409667621
743.798,-68.16485155230748
746.314,-28.381368211218614
748.829,-44.55145162414783
751.342,-44.20083141011719
753.853,-37.759896193710574
756.362,-34.51607625662973
758.869,-28.28051190354654
761.375,-22.14995992317381
763.879,-56.12584290649556
766.381,-69.78091761260839
768.882,-85.64022904885132
771.38,-92.37158836046092
773.877,-54.35700310117409
776.372,-29.883155122879543
778.866,-15.141402274798565
781.357,7.200791325912633
783.847,44.66652026164638
786.335,63.58848373421688
788.821,108.06136481805925
791.306,172.51325733248223
793.789,256.6104260472425
796.27,350.8287335548007
798.749,510.1203052378137
801.227,632.4849561413876
803.702,746.3987607024733
806.176,836.6235748602207
808.649,864.6356057853736
811.119,827.2444578001482
813.588,809.4978925838254
816.055,758.1103989021499
818.521,707.082238527199
820.984,629.1756350144019
823.446,527.5814386700235
825.906,427.06198199484515
828.365,381.66536369927053
830.821,343.1063993850985
833.276,330.7666198463462
835.729,312.50379317959505
838.181,270.3662087991006
840.631,215.49743764237746
843.079,168.23156856625747
845.525,141.71225426676938
847.97,133.89270957995814
850.412,128.583328830332
852.854,116.40406508406113
855.293,81.07014273552522
857.731,63.53491295099275
860.167,58.466042445641506
862.601,48.81694035581722
865.034,59.11247082557884
867.465,62.972760831343294
869.894,52.68462705415641
872.321,65.58252656148488
874.747,72.8580789175835
877.171,95.89339781766284
879.594,102.83251796016066
882.014,97.486155252343
884.433,87.04599082543109
886.851,98.75133600210575
889.266,89.12722583544655
891.68,108.03203645739586
894.092,127.08605480817278
896.503,155.38576265140455
898.912,175.93240630353876
901.319,196.87009017279024
903.724,174.96196553618483
906.128,179.11403836421732
908.53,178.6608819074222
910.931,172.50849214007712
913.329,174.75333368010251
915.726,164.82519523276505
918.122,179.8205212248654
920.516,189.50241010558466
922.908,193.68156502829788
925.298,183.54962548475714
927.687,177.6315465583366
930.074,182.73797817725745
932.459,189.63193008211556
934.843,183.07638917435906
937.225,191.64384162667557
939.605,195.38293785052247
941.984,202.72325270174906
944.361,223.85623616241946
946.736,206.73521164167232
949.11,191.31346951467913
951.482,188.30617018541943
953.853,200.52367572088042
956.222,186.49059577097023
958.589,188.0172144408175
960.954,175.009012401159
963.318,163.18095090349607
965.68,171.39080341430054
968.041,168.8772491539853
970.4,127.40272854063869
972.757,83.63439387185463
975.113,51.667917149423374
977.467,51.64653599926169
979.819,44.14200435324847
982.17,53.91649551201226
984.519,36.44640996962471
986.866,15.017611809717437
989.212,14.773046053983308
991.556,35.42702267734239
993.899,41.40807355884226
996.24,59.287525202370034
998.579,31.827119076407598
1000.92,3.074251001417906
1003.25,-4.6856466056333375
1005.59,-3.929103439125356
1007.92,2.724437922308425
1010.25,23.79833742120718
1012.58,9.815901089285035
1014.91,-1.842475104580899
1017.24,-1.6059709301684961
1019.56,3.7152315185171574
1021.88,17.54899723744211
1024.2,22.513620894014366
1026.52,21.274971693519092
1028.84,42.78459062650336
1031.16,28.851121049507583
1033.48,33.378405932453006
1035.79,39.12739462983836
1038.1,27.43043060431728
1040.41,42.42934867408758
1042.72,96.12309606980307
1045.03,116.22487730101238
1047.33,129.20977521307668
1049.64,107.26713394884473
1051.94,89.53865619604403
1054.24,64.45173852991093
1056.54,92.86233056534229
1058.84,116.29303220428119
1061.13,126.695000406914
1063.43,142.16223691524783
1065.72,138.64587597669242
1068.01,123.90656730573255
1070.3,132.2763828551224
1072.59,123.32548549184503
1074.87,98.76689291116236
1077.16,103.31362250305028
1079.44,109.39297907577566
1081.72,140.8132235318535
1084.0,184.33500344877484
1086.28,232.14754556448906
1088.56,278.1543720724171
1090.84,351.06854072598253
1093.11,414.46026589552594
1095.38,446.614063434738
1097.65,419.7192288804281
1099.92,375.63174422372185
1102.19,309.6838037288717
1104.46,253.4457207044402
1106.72,234.91640570306117
1108.98,253.6186066259529
1111.24,283.64652977981814
1113.5,348.8563180765909
1115.76,405.2946244712871
1118.02,453.57956635223354
1120.28,497.04358469320505
1122.53,515.3048746341283
1124.78,523.743577966552
1127.03,489.644642285788
1129.28,430.1025849049588
1131.53,385.45006629285535
1133.77,354.01979684512753
1136.02,357.90644365548224
1138.26,387.6332991916347
1140.5,438.6760928284057
1142.74,475.9868023808135
1144.98,515.4698465895549
1147.22,540.7916109398138
1149.45,575.3804496705534
1151.69,542.760021117132
1153.92,498.64452781583077
1156.15,425.700623275045
1158.38,372.4997949369513
1160.61,317.8516995201253
1162.83,293.3279745526406
1165.06,231.73843085754743
1167.28,188.27391170501687
1169.5,152.268199583531
1171.72,137.1980182091702
1173.94,118.54017739203528
1176.16,106.96205123601112
1178.37,71.55967538613731
1180.58,53.61965379979847
1182.8,54.85725599408988
1185.01,36.98784762652622
1187.22,17.203082980507133
1189.42,3.456621260312204
1191.63,-42.107299971051816
1193.84,-56.582432468293064
1196.04,-16.34813223918991
1198.24,-0.593169738584038
1200.44,13.208072366965098
1202.64,23.343209176793152
1204.84,27.52851108980849
1207.03,53.146991281246756
1209.23,74.72459080435556
1211.42,89.31112839867956
1213.61,105.81363125072448
1215.8,123.66299908795781
1217.99,183.48066827281218
1220.18,211.1738473252567
1222.36,228.3164667310757
1224.55,221.10155732158864
1226.73,203.53172389146448
1228.91,180.89533310225534
1231.09,190.6236537668724
1233.27,196.8622828483617
1235.44,239.7092381253383
1237.62,283.35781276219086
1239.79,350.5251441649825
1241.96,431.0712590278413
1244.13,520.6181183793437
1246.3,631.1686626289033
1248.47,758.2020470893508
1250.64,946.1022108328439
1252.8,1188.4435884039267
1254.96,1496.8006310563974
1257.13,1809.462089894943
1259.29,2112.7167275882016
1261.44,2335.329506272298
1263.6,2477.1606325972302
1265.76,2481.8798408685057
1267.91,2371.9187714268505
1270.06,2150.232872837463
1272.22,1919.872827888788
1274.37,1684.7464557817557
1276.51,1488.6187095571395
1278.66,1325.6831020943118
1280.81,1161.466465443355
1282.95,1008.1146625381025
1285.09,872.3925846234793
1287.23,776.779386778066
1289.37,724.4208662938177
1291.51,716.8437458176804
1293.65,740.622337445594
1295.78,773.5690163402974
1297.92,812.8294562539022
1300.05,893.9778650504595
1302.18,983.4455535618567
1304.31,1133.6637901579998
1306.44,1260.682845793191
1308.57,1335.8862771477466
1310.69,1410.0861621505646
1312.82,1458.8088116921795
1314.94,1490.24714800447
1317.06,1611.4035592308578
1319.18,1694.5184682822037
1321.3,1714.022711216533
1323.41,1659.3470584758952
1325.53,1544.3031646946583
1327.64,1401.4645185077984
1329.75,1281.975963787755
1331.87,1146.9822685003423
1333.98,1012.2471697511387
1336.08,860.2009902604464
1338.19,742.4644453144374
1340.3,658.372449716298
1342.4,567.8312580707016
1344.5,450.22322411590267
1346.6,378.02584577011794
1348.7,288.24033398742813
1350.8,261.77256256605733
1352.9,218.57592271855674
1354.99,203.98465383246185
1357.09,179.61860280237534
1359.18,175.71655479061792
1361.27,151.8981354164589
1363.36,166.2114272310555
1365.45,124.65677666858619
1367.54,115.18679147356988
1369.62,97.23014765200105
1371.7,114.31063451772297
1373.79,138.2852473578505
1375.87,172.4870420029588
1377.95,172.58227511155474
1380.03,173.09421112121527
1382.1,115.92692919972478
1384.18,84.41293972002859
1386.25,33.170324544709274
1388.33,20.102734453315406
1390.4,15.399386569697072
1392.47,37.582684204408906
1394.54,22.3653625903562
1396.6,15.888588604362212
1398.67,-6.754225225545724
1400.74,-19.469794901777732
1402.8,-13.73638511855961
1404.86,-11.365706338000564
1406.92,7.59232886041309
1408.98,24.849609851922196
1411.04,64.35602129635618
1413.09,124.06135153766718
1415.15,213.2962486225083
1417.2,330.10555727118754
1419.25,430.7721320391033
1421.3,503.7216028591297
1423.35,568.0461882030513
1425.4,595.3618415763308
1427.45,551.8082551557404
1429.49,501.3345777127006
1431.54,400.4613230128075
1433.58,330.6613258344091
1435.62,288.1692694157505
1437.66,255.93407004497158
1439.7,216.1426902215403
1441.74,180.1725232462495
1443.77,158.68663495407736
1445.81,162.39567211371013
1447.84,179.05786606515903
1449.87,191.28856016690588
1451.9,239.5125943859066
1453.93,297.6309756018791
1455.96,347.4970717211154
1457.98,413.5832819807738
1460.01,513.9334215388794
1462.03,650.3532013024269
1464.05,847.8864220411845
1466.07,1121.5292637396083
1468.09,1430.8493368535078
1470.11,1832.3666383286204
1472.13,2279.934507619184
1474.14,2747.215820801754
1476.16,3088.3972799271014
1478.17,3304.9513214197623
1480.18,3357.8742149537443
1482.19,3234.5908289949266
1484.2,2962.3832058672615
1486.21,2570.2953272951445
1488.21,2097.4188323267776
1490.22,1611.273973352726
1492.22,1220.5239054578412
1494.22,889.498499582689
1496.22,667.1943461611747
1498.22,493.5604730438847
1500.22,376.64120627856914
1502.22,282.0999832715768
1504.21,208.8384040445285
1506.21,141.09147296717742
1508.2,98.85617382360442
1510.19,74.27242583079669
1512.18,58.57546822865493
1514.17,56.00062582238024
1516.16,23.497598334384065
1518.14,16.444749756204146
1520.13,7.553873890893783
1522.11,-14.748849628390872
1524.09,-25.656185034095188
1526.07,-20.741741548542677
1528.05,-1.3885427087293465
1530.03,48.63954444170258
1532.01,76.10256845212552
1533.98,67.99877623284578
1535.96,44.7074672515962
1537.93,23.798514396697556
1539.9,23.889503887840874
1541.87,34.883827567822664
1543.84,63.304013289518025
1545.81,76.72029339809046
1547.78,123.22679226082118
1549.74,171.0605709397944
1551.7,204.26829091219906
1553.67,219.89668731443794
1555.63,254.23066123386343
1557.59,277.98375295288906
1559.55,355.8219485264367
1561.5,422.74462921652434
1563.46,442.17980664113725
1565.41,418.4126912564361
1567.37,390.3475941722918
1569.32,363.31744801544755
1571.27,331.5123754117287
1573.22,289.0749241349142
1575.17,232.48101654132142
1577.11,198.20661329010272
1579.06,196.8705675397348
1581.0,202.234622001645
1582.95,222.44150123193617
1584.89,220.2053848754906
1586.83,208.14523805293175
1588.77,235.6895703190105
1590.7,235.93357557337436
1592.64,210.25817673324673
1594.58,172.83002278705453
1596.51,113.79196203853826
1598.44,29.477324874656688
