Raman Shift,Processed Intensity
331.095,23.018990476190243
333.909,-53.83005476190483
336.721,-49.92957619047611
339.531,-3.985757142857114
342.339,34.05686190476192
345.145,35.658861904761885
347.949,9.877047619047623
350.751,-8.85004761904763
353.55,-11.9402619047619
356.348,-12.14389142857143
359.144,-7.019910476190475
361.937,-10.840668571428559
364.729,21.64610095238099
367.518,38.74126000000007
370.306,88.93717523809536
373.091,200.10816095238116
375.874,289.93890476190495
378.656,322.3528476190478
381.435,289.1794971428572
384.212,170.2017185714286
386.988,70.63214190476195
389.761,22.636800476190484
392.532,1.2398371428571657
395.301,13.990085238095245
398.068,3.7712352380952323
400.833,-7.627302380952374
403.596,-4.700614285714304
406.358,-10.228421428571423
409.117,-12.560656190476195
411.874,-1.6651633333333389
414.629,-12.889631428571429
417.382,6.22889904761907
420.133,20.630620952380994
422.882,59.352096190476246
425.629,84.47838666666672
428.374,106.85737619047626
431.117,117.24294285714295
433.858,145.96097142857153
436.597,163.67157142857153
439.334,178.178761904762
442.069,168.57271428571437
444.802,150.80176190476197
447.533,117.95795238095248
450.262,133.7999523809525
452.989,189.75433333333348
455.714,246.29577142857156
458.438,235.56617619047628
461.159,206.89866666666674
463.878,138.00778095238104
466.595,109.2270857142858
469.31,97.22470000000006
472.024,79.52588571428574
474.735,40.180276190476214
477.444,36.04729047619051
480.152,45.320404761904825
482.857,83.4307952380953
485.561,113.8105333333334
488.262,143.7015952380953
490.962,141.48890952380958
493.659,127.98618095238102
496.355,114.00757619047624
499.048,97.60484761904769
501.74,101.25909047619058
504.43,135.7376380952382
507.118,132.7120476190477
509.804,152.61614285714296
512.488,169.21714285714293
515.17,190.28238095238106
517.85,195.43661904761916
520.528,192.35200000000006
523.204,154.6054714285715
525.878,104.67887619047622
528.551,80.10170000000005
531.221,50.35583333333335
533.89,49.63757619047625
536.556,56.80925714285718
539.221,65.78143333333337
541.883,68.6070571428572
544.544,104.14897619047623
547.203,106.50763333333342
549.86,134.9265190476191
552.515,131.45840000000007
555.168,122.917761904762
557.819,145.02400000000011
560.469,167.7341904761906
563.116,203.90980952380968
565.761,215.7934285714287
568.405,191.34166666666675
571.047,190.27271428571441
573.687,192.3524761904763
576.324,181.58438095238105
578.96,178.9242380952382
581.594,178.42258095238103
584.227,145.22526666666676
586.857,132.71584761904768
589.485,115.1349333333334
592.112,95.00838095238102
594.737,105.52857142857152
597.359,150.9828095238096
599.98,156.94391904761915
602.599,148.17490476190483
605.216,124.2958952380953
607.831,108.78329523809532
610.445,96.01858095238101
613.056,107.6689333333334
615.666,111.3053095238096
618.274,98.78451428571434
620.88,90.67739047619054
623.484,98.41160000000006
626.086,118.55746666666678
628.686,164.92318095238105
631.284,184.9835714285715
633.881,197.5464761904763
636.476,202.32409523809534
639.068,201.362142857143
641.659,208.2296190476192
644.249,176.97138095238103
646.836,134.01371428571437
649.421,129.0678857142858
652.005,116.27365238095247
654.587,121.48529714285719
657.166,96.31871142857145
659.745,62.43714380952385
662.321,24.027828571428596
664.895,50.89656476190481
667.468,44.421028571428586
670.038,52.216762857142896
672.607,45.5659304761905
675.174,44.893544761904785
677.739,20.9580047619048
680.303,60.184186000000025
682.864,41.56878290476193
685.424,41.7749848571429
687.982,73.4662537619048
690.538,65.44856104761908
693.092,44.57575909523812
695.645,55.55886980952382
698.195,21.728112380952403
700.744,34.032639047619114
703.291,63.89829952380955
705.836,50.32192000000003
708.38,38.91965285714288
710.921,49.06962666666669
713.461,32.43568809523813
715.999,50.11020952380955
718.535,52.7572285714286
721.069,61.088480952381005
723.602,80.52978571428577
726.133,94.9357190476191
728.662,86.82754761904765
731.189,73.25044285714289
733.714,57.48770000000003
736.238,34.53706428571431
738.759,30.491304761904793
741.279,35.20528809523814
743.798,68.10521904761913
746.314,95.52240238095244
748.829,107.40709047619052
751.342,78.4238666666667
753.853,62.04688571428575
756.362,53.55987619047623
758.869,64.15123333333337
761.375,55.914504761904794
763.879,53.08595714285717
766.381,44.854319047619086
768.882,54.075066666666714
771.38,65.84183333333337
773.877,74.72447142857146
776.372,59.43580952380955
778.866,40.64106190476192
781.357,31.05316666666669
783.847,40.81359047619052
786.335,63.20696666666673
788.821,87.04169047619052
791.306,88.55479047619052
793.789,86.1736333333334
796.27,100.70710476190486
798.749,127.6302238095239
801.227,139.98998095238105
803.702,153.30954285714293
806.176,150.8738095238096
808.649,153.39661904761917
811.119,162.40147619047627
813.588,187.2211904761906
816.055,177.80785714285724
818.521,165.1610952380953
820.984,139.85210476190483
823.446,112.88111428571435
825.906,89.72426666666675
828.365,94.33400952380958
830.821,95.85362857142863
833.276,102.52125714285721
835.729,102.384980952381
838.181,91.92148095238099
840.631,81.41700952380958
843.079,69.25303809523814
845.525,51.66865714285718
847.97,66.66477628571432
850.412,60.099301285714304
852.854,36.78280828571431
855.293,40.049752523809545
857.731,38.80619114285716
860.167,17.624905095238116
862.601,28.555144761904767
865.034,12.645880619047615
867.465,4.422620285714315
869.894,17.02999985714288
872.321,42.279425047619085
874.747,61.79189109523814
877.171,87.33135990476194
879.594,82.70947619047622
882.014,96.83340952380958
884.433,91.51480952380957
886.851,90.80368095238101
889.266,74.94057142857146
891.68,81.97545238095242
894.092,65.24448095238101
896.503,81.41706190476197
898.912,99.40053333333339
901.319,113.53099047619054
903.724,97.47787619047622
906.128,98.48180952380956
908.53,94.83184761904768
910.931,97.3877333333334
913.329,97.62868571428578
915.726,99.55743809523815
918.122,98.1294571428572
920.516,90.82380000000006
922.908,101.64372857142862
925.298,86.59197142857148
927.687,80.95746190476197
930.074,86.74281904761911
932.459,95.14160000000004
934.843,81.49004761904766
937.225,75.41015714285717
939.605,57.42865238095242
941.984,53.88192857142861
944.361,66.67739523809529
946.736,59.3892904761905
949.11,52.30608571428575
951.482,56.04958571428575
953.853,54.05103333333337
956.222,59.21778000000004
958.589,51.98099190476192
960.954,45.67630285714289
963.318,65.73488523809529
965.68,70.96862714285719
968.041,57.046455238095255
970.4,44.684846190476186
972.757,8.552565714285722
975.113,-6.5390138095238
977.467,6.126487619047625
979.819,4.312750476190479
982.17,7.5453214285714445
984.519,15.492481904761926
986.866,42.3462247619048
989.212,52.67939809523813
991.556,61.064712380952415
993.899,64.88448571428576
996.24,83.47311904761911
998.579,91.7361857142858
1000.92,107.29359523809528
1003.25,88.66991904761909
1005.59,62.00867142857146
1007.92,40.024847619047655
1010.25,60.71892857142862
1012.58,66.90053714285717
1014.91,56.427006190476206
1017.24,33.77456952380953
1019.56,38.03843666666671
1021.88,49.45641238095245
1024.2,102.07593952380961
1026.52,128.51550857142865
1028.84,150.63205714285724
1031.16,162.80558095238104
1033.48,145.13067619047627
1035.79,121.13016190476199
1038.1,127.32703809523818
1040.41,148.95797142857157
1042.72,201.11753333333345
1045.03,217.51858095238103
1047.33,184.54076190476198
1049.64,154.03961904761914
1051.94,125.58519047619056
1054.24,130.93757142857152
1056.54,140.76214285714292
1058.84,128.91447619047625
1061.13,146.4402380952382
1063.43,164.8610476190477
1065.72,160.84190476190486
1068.01,172.6664285714287
1070.3,149.99919047619053
1072.59,141.93333333333345
1074.87,181.18114285714302
1077.16,207.6928571428573
1079.44,246.32333333333352
1081.72,280.87995238095255
1084.0,302.74109523809545
1086.28,352.52333333333365
1088.56,436.0818095238098
1090.84,512.4616190476195
1093.11,589.5173333333337
1095.38,600.3893809523813
1097.65,581.3611428571432
1099.92,512.5729523809526
1102.19,425.73666666666685
1104.46,341.80185714285733
1106.72,320.8614761904764
1108.98,294.48428571428593
1111.24,335.5730000000002
1113.5,387.3627619047621
1115.76,445.56552380952405
1118.02,468.0834285714289
1120.28,488.3424285714288
1122.53,433.2927619047622
1124.78,396.2651904761907
1127.03,356.9237619047621
1129.28,316.1237619047621
1131.53,263.6244761904763
1133.77,215.75676190476204
1136.02,170.18514285714298
1138.26,160.907142857143
1140.5,185.9206666666668
1142.74,189.84271428571435
1144.98,200.52828571428583
1147.22,204.07038095238107
1149.45,217.41947619047633
1151.69,225.0974761904763
1153.92,223.29285714285723
1156.15,184.95623809523823
1158.38,152.84790476190486
1160.61,137.48945714285725
1162.83,134.78444761904768
1165.06,121.25523809523816
1167.28,111.51913333333339
1169.5,83.57500952380957
1171.72,84.89782857142865
1173.94,97.00988571428576
1176.16,98.57697619047623
1178.37,75.78849761904765
1180.58,39.50047142857143
1182.8,16.093259523809554
1185.01,24.661423809523843
1187.22,47.6804690476191
1189.42,62.72140000000004
1191.63,70.30761428571431
1193.84,51.296004761904804
1196.04,62.92452380952385
1198.24,64.24073904761909
1200.44,55.19707476190478
1202.64,41.650863809523834
1204.84,37.07853000000002
1207.03,46.19472952380957
1209.23,55.80944285714288
1211.42,51.018441904761914
1213.61,33.012870952380965
1215.8,14.602977619047627
1217.99,21.36102714285718
1220.18,25.66889571428572
1222.36,26.194249523809546
1224.55,38.938184285714314
1226.73,33.80668666666668
1228.91,44.13426666666672
1231.09,75.87480476190478
1233.27,68.83927619047623
1235.44,78.93396190476196
1237.62,70.58898095238098
1239.79,61.99655238095245
1241.96,91.68208571428578
1244.13,104.1712190476191
1246.3,116.22774285714293
1248.47,132.5203047619048
1250.64,115.19367619047628
1252.8,143.5831238095239
1254.96,157.6906476190477
1257.13,158.51838095238108
1259.29,200.97333333333347
1261.44,239.81995238095251
1263.6,248.34614285714298
1265.76,252.696761904762
1267.91,207.35038095238104
1270.06,172.5951904761906
1272.22,166.147761904762
1274.37,167.91542857142866
1276.51,160.56742857142865
1278.66,158.05831428571437
1280.81,130.10507619047627
1282.95,135.28162857142866
1285.09,141.20959047619056
1287.23,145.41529523809533
1289.37,142.5681714285715
1291.51,146.8136952380953
1293.65,124.96380952380959
1295.78,123.2592857142858
1297.92,131.9885714285715
1300.05,129.05904761904767
1302.18,123.42547619047626
1304.31,129.0430952380953
1306.44,114.86661904761912
1308.57,127.32776190476201
1310.69,163.0480000000001
1312.82,163.02985714285725
1314.94,168.7997142857144
1317.06,182.12195238095248
1319.18,171.6660000000001
1321.3,182.57728571428586
1323.41,219.4296666666668
1325.53,233.79690476190493
1327.64,252.49104761904778
1329.75,301.99061904761925
1331.87,320.8697619047621
1333.98,321.55933333333354
1336.08,286.25233333333347
1338.19,247.14109523809537
1340.3,204.7041904761906
1342.4,195.37238095238106
1344.5,208.10028571428586
1346.6,208.31866666666676
1348.7,187.83908571428583
1350.8,156.8538714285715
1352.9,122.88921904761912
1354.99,91.94689047619055
1357.09,107.83821904761913
1359.18,131.04072857142867
1361.27,160.6040380952382
1363.36,189.48214285714297
1365.45,194.01028571428583
1367.54,210.33276190476204
1369.62,228.11752380952396
1371.7,246.46100000000015
1373.79,232.4600952380954
1375.87,241.49666666666678
1377.95,233.33404761904777
1380.03,225.83038095238106
1382.1,223.98614285714297
1384.18,209.6597142857144
1386.25,196.28057142857153
1388.33,187.84901904761915
1390.4,175.31843333333342
1392.47,141.7369333333334
1394.54,108.91408095238097
1396.6,66.61230000000003
1398.67,62.8794047619048
1400.74,65.95330000000004
1402.8,81.6913333333334
1404.86,76.47421428571431
1406.92,69.9683285714286
1408.98,70.26856342857147
1411.04,51.08865961904764
1413.09,64.04718590476196
1415.15,61.04806133333335
1417.2,67.99502400000006
1419.25,87.60153104761909
1421.3,97.19984914285718
1423.35,87.64598095238101
1425.4,100.22435238095242
1427.45,97.69561428571438
1429.49,111.43890476190482
1431.54,111.88141428571433
1433.58,84.97380000000004
1435.62,73.6191190476191
1437.66,70.24404285714292
1439.7,83.79929523809528
1441.74,80.90173333333337
1443.77,78.40656190476193
1445.81,60.59734761904765
1447.84,59.090957142857185
1449.87,52.123228571428605
1451.9,64.26344761904767
1453.93,77.50910000000006
1455.96,96.33402380952388
1457.98,94.45009523809529
1460.01,95.56888571428577
1462.03,107.49771428571438
1464.05,139.94819047619058
1466.07,175.10833333333346
1468.09,201.68980952380963
1470.11,209.2612380952382
1472.13,211.24833333333345
1474.14,230.1725714285716
1476.16,234.07861904761918
1478.17,228.5829523809525
1480.18,207.8260000000001
1482.19,173.28083333333342
1484.2,143.13535238095244
1486.21,118.72003809523815
1488.21,96.41311428571436
1490.22,81.25932380952385
1492.22,77.39923809523815
1494.22,78.68697619047624
1496.22,84.73919047619053
1498.22,94.26737428571433
1500.22,77.9832242857143
1502.22,58.55083428571431
1504.21,36.1581042857143
1506.21,33.23098190476193
1508.2,41.100438571428604
1510.19,47.9068742857143
1512.18,32.600290476190494
1514.17,27.7974142857143
1516.16,30.829309523809552
1518.14,19.312842857142876
1520.13,27.769823809523828
1522.11,43.1503904761905
1524.09,47.31000952380956
1526.07,66.53259047619053
1528.05,82.7211666666667
1530.03,74.15988571428576
1532.01,63.466314285714326
1533.98,67.35308571428575
1535.96,54.39056190476194
1537.93,73.38692857142863
1539.9,78.674480952381
1541.87,88.63314761904766
1543.84,88.11911428571432
1545.81,96.27440476190483
1547.78,92.05069047619054
1549.74,118.58995714285723
1551.7,134.79636666666676
1553.67,134.71705714285721
1555.63,124.68490476190483
1557.59,124.74719047619054
1559.55,119.90376190476199
1561.5,138.91590476190484
1563.46,150.8312857142858
1565.41,156.2212857142858
1567.37,155.32385714285724
1569.32,143.66309523809534
1571.27,146.2392857142858
1573.22,137.33790476190484
1575.17,140.9592857142858
1577.11,152.62742857142868
1579.06,169.961761904762
1581.0,171.39147619047625
1582.95,184.29809523809533
1584.89,170.49128571428582
1586.83,159.06690476190485
1588.77,161.50157142857154
1590.7,169.3202380952382
1592.64,161.52333333333345
1594.58,158.34985714285727
1596.51,160.03850000000028
1598.44,170.42326190476234
