Raman Shift,Processed Intensity
331.095,-15.388919047618968
333.909,43.1145738095238
336.721,35.73095952380942
339.531,-6.24739523809527
342.339,-43.29034142857145
345.145,-49.29586166666667
347.949,-36.06553285714286
350.751,-11.304842619047616
353.55,4.7579019047619076
356.348,12.847735952380958
359.144,8.357296190476196
361.937,1.251655714285726
364.729,15.925485238095291
367.518,67.05978333333343
370.306,132.4324609523811
373.091,228.1549600000002
375.874,312.29260000000016
378.656,344.48329523809537
381.435,302.2227123809525
384.212,198.436090952381
386.988,86.38364000000003
389.761,10.849645714285735
392.532,-7.951301904761875
395.301,11.434606666666689
398.068,44.55713333333337
400.833,54.63410333333336
403.596,43.93210571428571
406.358,-4.900104761904782
409.117,-17.450676190476184
411.874,-31.16369047619046
414.629,2.898938095238117
417.382,13.962252380952384
420.133,26.8239047619048
422.882,73.71111904761915
425.629,117.37637619047626
428.374,154.4777380952382
431.117,211.53149523809535
433.858,202.24538095238108
436.597,203.18500000000014
439.334,221.72661904761915
442.069,185.86638095238104
444.802,168.69642857142867
447.533,151.35766666666672
450.262,140.80057142857152
452.989,159.64342857142867
455.714,185.9337142857144
458.438,175.9574190476191
461.159,143.52518095238102
463.878,102.87717142857153
466.595,106.91977142857152
469.31,131.132161904762
472.024,135.1365428571429
474.735,115.12709523809528
477.444,72.82214761904766
480.152,63.22611428571436
482.857,85.86757619047627
485.561,127.94206666666673
488.262,130.02665238095244
490.962,119.26988571428575
493.659,100.29686666666673
496.355,90.9231714285715
499.048,87.25070000000008
501.74,112.42885714285723
504.43,125.79776666666675
507.118,121.17369523809533
509.804,137.51619523809532
512.488,154.11833333333342
515.17,158.41580952380963
517.85,175.13009523809532
520.528,176.55409523809533
523.204,161.31414285714294
525.878,115.7033095238096
528.551,97.96709523809531
531.221,98.255480952381
533.89,106.48027619047625
536.556,105.79149047619053
539.221,96.71998571428574
541.883,71.70127619047625
544.544,77.59900476190484
547.203,105.22947619047625
549.86,125.50400000000006
552.515,121.2860571428572
555.168,91.77224285714291
557.819,119.2068000000001
560.469,142.7381857142858
563.116,148.3719238095239
565.761,151.44690476190485
568.405,149.25376190476197
571.047,127.22609523809534
573.687,154.89233333333343
576.324,161.2570190476191
578.96,119.18135238095242
581.594,94.28846666666672
584.227,92.39139047619052
586.857,79.35078095238102
589.485,90.50277142857149
592.112,109.04092857142862
594.737,74.82485714285718
597.359,77.42841428571435
599.98,103.71051428571437
602.599,105.05390000000008
605.216,123.7929714285715
607.831,137.8339666666667
610.445,99.32052380952386
613.056,94.5868428571429
615.666,87.5852047619048
618.274,80.55357619047626
620.88,93.5393952380953
623.484,121.58975238095248
626.086,146.03707142857155
628.686,178.451761904762
631.284,199.54652380952393
633.881,215.89095238095246
636.476,186.38821428571435
639.068,163.94079047619056
641.659,130.49864285714293
644.249,98.48767142857149
646.836,88.47640476190483
649.421,93.890280952381
652.005,76.39265714285719
654.587,78.31341428571432
657.166,60.26785714285717
659.745,42.49018666666669
662.321,19.35736761904763
664.895,22.150935238095265
667.468,25.24756095238098
670.038,41.92851142857147
672.607,58.71302000000004
675.174,84.21566761904765
677.739,84.193480952381
680.303,89.64172380952384
682.864,60.50795047619049
685.424,14.07297666666667
687.982,11.094062857142895
690.538,30.709194761904797
693.092,49.675277142857205
695.645,104.08284238095244
698.195,98.35562809523812
700.744,84.34627428571436
703.291,77.19295571428573
705.836,83.22445047619053
708.38,51.15043000000003
710.921,66.01416190476192
713.461,30.620886666666678
715.999,23.109506666666693
718.535,25.761532380952424
721.069,56.52574952380956
723.602,70.92191047619053
726.133,105.946600952381
728.662,93.64396666666671
731.189,88.0582428571429
733.714,73.75762380952384
736.238,49.88185238095242
738.759,52.427828571428606
741.279,55.440428571428605
743.798,56.86923333333338
746.314,67.33059047619051
748.829,62.20291428571432
751.342,58.388542857142895
753.853,63.456580952381
756.362,55.21436666666671
758.869,73.51692857142862
761.375,83.12416666666672
763.879,101.27212857142864
766.381,101.81632380952387
768.882,99.46935714285719
771.38,82.27727142857148
773.877,75.38145238095242
776.372,63.923347619047675
778.866,65.85388571428575
781.357,65.55295714285721
783.847,95.9719476190477
786.335,121.30020476190484
788.821,131.82246190476198
791.306,133.39522857142862
793.789,114.82734285714292
796.27,94.1657333333334
798.749,117.02918095238104
801.227,134.03597142857151
803.702,164.32858095238106
806.176,184.5734380952382
808.649,208.81809523809537
811.119,187.1099523809525
813.588,186.3539523809525
816.055,177.78819047619058
818.521,173.60333333333344
820.984,162.13293333333345
823.446,149.61548095238103
825.906,123.86062857142863
828.365,110.20240000000005
830.821,108.16534285714293
833.276,107.9881333333334
835.729,111.62380000000006
838.181,99.26356666666673
840.631,100.81284761904767
843.079,100.79660952380958
845.525,104.35880952380957
847.97,102.83384761904767
850.412,88.03230000000003
852.854,62.00309047619051
855.293,49.46171428571432
857.731,52.07622190476194
860.167,47.46706952380955
862.601,51.06433809523813
865.034,36.774346190476194
867.465,11.8843942857143
869.894,12.777106190476207
872.321,14.692305714285727
874.747,21.25085857142861
877.171,45.83557523809528
879.594,77.49590476190482
882.014,94.32913333333339
884.433,108.7181190476191
886.851,107.76009047619053
889.266,106.79081904761912
891.68,118.90732857142866
894.092,147.20725714285723
896.503,155.31183809523816
898.912,147.46117142857148
901.319,134.1812571428572
903.724,105.6651952380953
906.128,103.7246000000001
908.53,127.55241428571438
910.931,132.15099047619054
913.329,132.1891571428572
915.726,128.66954285714291
918.122,104.11821904761912
920.516,103.63299047619056
922.908,130.69196190476197
925.298,125.0597095238096
927.687,123.97670476190484
930.074,119.49305238095245
932.459,108.70622857142865
934.843,117.52370952380961
937.225,138.04263809523817
939.605,131.93214761904767
941.984,127.8136672380953
944.361,88.87977771428574
946.736,68.22793161904767
949.11,69.14644609523813
951.482,62.49450114285718
953.853,48.55998819047622
956.222,56.29743580952383
958.589,37.28036761904765
960.954,47.79638380952386
963.318,72.75239809523814
965.68,85.10273333333338
968.041,80.37313333333339
970.4,74.6606904761905
972.757,56.824414285714305
975.113,17.770857142857146
977.467,5.311319047619068
979.819,13.399876190476213
982.17,27.609638095238136
984.519,54.13273523809528
986.866,54.30404952380953
989.212,46.41103238095243
991.556,59.169269523809575
993.899,83.43733238095245
996.24,100.5976352380953
998.579,106.9372447619048
1000.92,89.36212380952387
1003.25,65.58786190476192
1005.59,49.61532857142861
1007.92,41.15987619047622
1010.25,51.79372857142862
1012.58,74.37490000000007
1014.91,101.09468095238101
1017.24,105.19179523809531
1019.56,108.00004761904768
1021.88,94.99605714285721
1024.2,104.41826666666675
1026.52,132.1239142857144
1028.84,170.20878095238106
1031.16,185.05380952380963
1033.48,195.51614285714297
1035.79,177.64319047619057
1038.1,157.19704761904774
1040.41,184.08185714285727
1042.72,215.15490476190487
1045.03,240.55833333333345
1047.33,252.52993333333345
1049.64,189.92629047619056
1051.94,145.88981904761917
1054.24,137.181661904762
1056.54,129.80153333333345
1058.84,154.51029047619056
1061.13,171.49769523809533
1063.43,146.33447619047627
1065.72,148.30509523809533
1068.01,140.40861904761914
1070.3,142.40590476190485
1072.59,161.2007142857144
1074.87,189.07738095238108
1077.16,218.70176190476204
1079.44,261.31061904761924
1081.72,286.5694761904764
1084.0,330.42900000000026
1086.28,387.1261428571431
1088.56,460.8498095238099
1090.84,554.7893809523813
1093.11,636.1336190476195
1095.38,655.309666666667
1097.65,633.5064761904765
1099.92,548.0558095238097
1102.19,442.0512380952384
1104.46,372.44352380952404
1106.72,330.7070000000002
1108.98,333.12585714285746
1111.24,375.5556666666669
1113.5,419.6137619047622
1115.76,463.20276190476216
1118.02,497.4640476190479
1120.28,485.34804761904786
1122.53,472.90071428571457
1124.78,447.8343333333336
1127.03,389.9092380952383
1129.28,327.5518095238097
1131.53,280.8555714285716
1133.77,221.53304761904775
1136.02,194.58242857142866
1138.26,200.23966666666678
1140.5,194.59828571428582
1142.74,221.13266666666684
1144.98,241.60280952380964
1147.22,248.57828571428587
1149.45,238.15242857142871
1151.69,237.7995714285716
1153.92,217.70800000000014
1156.15,213.73361904761913
1158.38,189.92185714285728
1160.61,164.08038095238103
1162.83,136.06452380952388
1165.06,134.87270476190483
1167.28,122.83622857142865
1169.5,121.95383809523817
1171.72,119.93760000000005
1173.94,95.92895238095242
1176.16,84.06863809523816
1178.37,87.16473809523815
1180.58,77.50142857142862
1182.8,89.98192857142863
1185.01,73.1759785714286
1187.22,47.367742857142886
1189.42,62.36530333333337
1191.63,57.262355714285746
1193.84,48.05745190476194
1196.04,57.84441095238098
1198.24,55.95524952380957
1200.44,46.531522380952424
1202.64,75.14362857142861
1204.84,61.790189523809545
1207.03,35.94630761904764
1209.23,34.37284380952384
1211.42,35.545045714285735
1213.61,35.50961809523814
1215.8,50.36097523809527
1217.99,82.19348571428577
1220.18,66.48283809523812
1222.36,58.9904666666667
1224.55,45.430247619047634
1226.73,25.373357142857166
1228.91,25.724504761904818
1231.09,64.57856666666672
1233.27,93.69806666666673
1235.44,111.3689714285715
1237.62,116.16310476190483
1239.79,104.79546190476196
1241.96,105.55227619047626
1244.13,95.81529047619055
1246.3,114.63325714285722
1248.47,139.0547714285715
1250.64,135.84294285714293
1252.8,147.18992380952392
1254.96,166.81106666666676
1257.13,188.46990476190493
1259.29,235.54895238095256
1261.44,279.4783809523811
1263.6,260.4982380952382
1265.76,237.89638095238104
1267.91,187.86476190476202
1270.06,168.83423809523822
1272.22,189.71152380952392
1274.37,196.5467142857144
1276.51,185.7232000000001
1278.66,159.0527714285715
1280.81,131.1566857142858
1282.95,127.51375238095247
1285.09,145.98359047619056
1287.23,147.6642476190477
1289.37,138.2724857142858
1291.51,153.47775238095247
1293.65,162.09239523809535
1295.78,164.35702857142866
1297.92,158.94165238095246
1300.05,132.8011714285715
1302.18,117.79549047619058
1304.31,153.07046666666676
1306.44,157.4861904761906
1308.57,177.47409523809534
1310.69,185.75190476190488
1312.82,190.89361904761918
1314.94,207.56909523809537
1317.06,224.4478571428573
1319.18,236.39000000000013
1321.3,250.54142857142872
1323.41,263.71480952380966
1325.53,289.6272380952383
1327.64,297.6154761904764
1329.75,346.2537142857145
1331.87,360.87780952380973
1333.98,337.4433809523812
1336.08,316.6673809523811
1338.19,289.74342857142875
1340.3,236.38866666666678
1342.4,228.70109523809535
1344.5,185.25457142857152
1346.6,149.29033333333345
1348.7,140.9534761904763
1350.8,149.675761904762
1352.9,159.12595238095247
1354.99,182.87832380952392
1357.09,169.7446333333334
1359.18,161.63212380952388
1361.27,151.7809380952382
1363.36,159.1461238095239
1365.45,163.34853809523818
1367.54,201.29508571428585
1369.62,209.98766666666683
1371.7,224.6188095238097
1373.79,263.2380476190478
1375.87,281.79966666666684
1377.95,282.8292380952382
1380.03,273.5659047619049
1382.1,241.4398095238096
1384.18,203.59509523809533
1386.25,191.60433333333344
1388.33,171.3260000000001
1390.4,179.8562380952382
1392.47,171.86274285714293
1394.54,155.48907142857152
1396.6,131.0691571428572
1398.67,81.69853809523813
1400.74,49.7586952380953
1402.8,65.53535714285721
1404.86,81.83852380952388
1406.92,110.5726857142858
1408.98,142.45176666666674
1411.04,131.99922380952387
1413.09,97.92887142857148
1415.15,98.24019523809528
1417.2,90.21817619047624
1419.25,96.24286190476198
1421.3,116.741680952381
1423.35,132.8563333333334
1425.4,113.2997952380953
1427.45,108.83263809523815
1429.49,111.4531952380953
1431.54,105.87400952380958
1433.58,109.18882380952387
1435.62,105.63356666666672
1437.66,108.49176190476197
1439.7,99.14245238095245
1441.74,103.82135714285721
1443.77,84.28799047619053
1445.81,92.11150952380959
1447.84,93.57476666666675
1449.87,121.10349523809532
1451.9,105.69506190476196
1453.93,86.203580952381
1455.96,65.67380952380958
1457.98,73.34036190476198
1460.01,113.29549523809534
1462.03,164.86902380952392
1464.05,185.8194380952382
1466.07,211.3812857142858
1468.09,240.40857142857158
1470.11,246.8498095238097
1472.13,255.84419047619062
1474.14,255.95928571428584
1476.16,251.14366666666683
1478.17,238.5841904761906
1480.18,221.324761904762
1482.19,183.12371428571436
1484.2,136.40566666666672
1486.21,126.30962857142865
1488.21,110.49860476190482
1490.22,87.63573333333336
1492.22,91.19333809523815
1494.22,80.16807619047623
1496.22,79.88978095238102
1498.22,91.73574476190477
1500.22,58.226547142857164
1502.22,28.263641904761926
1504.21,31.462895714285736
1506.21,32.726022857142894
1508.2,42.66909000000002
1510.19,45.6226304761905
1512.18,44.48871428571431
1514.17,30.074300000000015
1516.16,33.71033333333336
1518.14,38.775519047619056
1520.13,16.743961904761914
1522.11,11.566157142857165
1524.09,33.716590476190504
1526.07,42.574666666666715
1528.05,58.94854761904765
1530.03,72.02753809523813
1532.01,71.04874285714291
1533.98,70.96370000000005
1535.96,61.3431904761905
1537.93,66.42479523809529
1539.9,45.446266666666695
1541.87,47.454961904761966
1543.84,74.02220000000005
1545.81,98.76737619047626
1547.78,107.59547142857151
1549.74,138.0781333333334
1551.7,130.21561904761913
1553.67,133.24680952380962
1555.63,138.50576190476198
1557.59,134.04085714285725
1559.55,126.99595238095245
1561.5,136.2768095238096
1563.46,139.26529523809532
1565.41,132.2962714285715
1567.37,135.22814285714293
1569.32,108.7762095238096
1571.27,96.65645714285722
1573.22,96.68002857142864
1575.17,124.133961904762
1577.11,126.68656666666675
1579.06,135.0537047619048
1581.0,111.90382380952386
1582.95,98.19122857142864
1584.89,85.63217619047626
1586.83,107.94261904761912
1588.77,118.64805238095246
1590.7,129.98855238095246
1592.64,133.7753333333334
1594.58,128.77235714285726
1596.51,121.62450000000014
1598.44,115.83376190476213
