Raman Shift,Processed Intensity
331.095,59.84277142857135
333.909,18.72544999999998
336.721,1.7883714285714518
339.531,0.4891857142857252
342.339,-2.3813714285714105
345.145,18.205928571428572
347.949,17.82868095238097
350.751,18.112846666666677
353.55,23.30412523809524
356.348,6.125171428571422
359.144,-4.8434423809523794
361.937,-23.115517142857144
364.729,-4.727590952380929
367.518,24.379426666666735
370.306,92.7420542857144
373.091,202.5648257142859
375.874,310.1955333333335
378.656,337.22128571428584
381.435,284.2304761904763
384.212,175.81197380952386
386.988,63.60378690476193
389.761,-0.9452119047618783
392.532,-2.9093730952380703
395.301,11.209849523809531
398.068,6.2932126190476225
400.833,8.413062857142855
403.596,6.881233333333318
406.358,-33.9894404761905
409.117,-48.07489380952383
411.874,-47.011819047619056
414.629,-24.864109999999975
417.382,7.305663809523835
420.133,39.340984285714306
422.882,53.84846761904767
425.629,73.38830000000007
428.374,111.23640476190485
431.117,145.1455857142858
433.858,175.63186666666678
436.597,177.92671428571438
439.334,154.40545238095245
442.069,131.39657142857152
444.802,131.46769047619057
447.533,125.80576190476202
450.262,156.55154761904774
452.989,197.08466666666678
455.714,225.30917142857157
458.438,215.89207142857154
461.159,168.31000476190482
463.878,127.42141428571436
466.595,98.08544285714294
469.31,113.3043380952382
472.024,125.89072380952385
474.735,114.18147619047625
477.444,88.22823809523817
480.152,89.03541904761911
482.857,95.75085714285723
485.561,119.33174285714291
488.262,135.92677619047626
490.962,140.6368047619048
493.659,122.65853809523814
496.355,98.47419523809529
499.048,85.90033809523817
501.74,110.46721428571439
504.43,124.22966190476195
507.118,139.62323809523818
509.804,149.7027523809525
512.488,170.8562571428573
515.17,220.09110476190492
517.85,243.89105714285722
520.528,222.83485714285726
523.204,198.6918857142858
525.878,140.08857619047623
528.551,112.12735238095246
531.221,102.3392666666667
533.89,101.35065714285724
536.556,105.35905238095243
539.221,117.7524952380953
541.883,124.77595238095246
544.544,139.7691714285715
547.203,130.5484142857144
549.86,149.69115238095247
552.515,136.44171428571437
555.168,138.94895238095248
557.819,161.5520000000001
560.469,165.73257142857153
563.116,162.01966666666678
565.761,162.41847619047627
568.405,167.0761904761906
571.047,165.14019047619055
573.687,155.8052857142858
576.324,144.7422857142858
578.96,132.00190476190483
581.594,136.96890476190487
584.227,153.88379047619054
586.857,142.79712380952387
589.485,111.47334285714291
592.112,104.29550476190482
594.737,78.69370952380957
597.359,88.90776190476198
599.98,121.79575714285723
602.599,139.6916857142858
605.216,131.78665238095243
607.831,139.7474857142858
610.445,126.57395238095246
613.056,120.88471428571437
615.666,142.01238095238105
618.274,162.14623809523817
620.88,161.09466666666677
623.484,170.998761904762
626.086,180.61838095238105
628.686,203.14157142857158
631.284,208.5657142857144
633.881,223.7451904761906
636.476,226.34357142857155
639.068,199.3575238095239
641.659,197.5931904761906
644.249,213.61828571428583
646.836,190.0952380952382
649.421,176.54342857142868
652.005,159.38701904761913
654.587,109.09760000000009
657.166,90.7656666666667
659.745,92.19620000000005
662.321,77.00280952380956
664.895,80.227980952381
667.468,77.96181904761907
670.038,63.86570952380956
672.607,56.22010476190481
675.174,72.30549523809528
677.739,79.8783047619048
680.303,65.4570761904762
682.864,48.17940209523811
685.424,22.754351619047622
687.982,15.55778514285717
690.538,8.108484095238111
693.092,29.163500380952406
695.645,40.14665780952386
698.195,79.43423733333339
700.744,108.78371285714292
703.291,89.33364857142858
705.836,58.55612857142861
708.38,40.11388571428573
710.921,16.09838571428574
713.461,30.98228571428576
715.999,69.42892380952384
718.535,61.38758571428576
721.069,67.9505666666667
723.602,85.87705714285718
726.133,64.92631904761909
728.662,53.00073333333337
731.189,73.0026571428572
733.714,84.7872990476191
736.238,62.54315619047623
738.759,80.93524571428576
741.279,67.34274857142861
743.798,77.24016000000009
746.314,109.05469428571433
748.829,108.02330857142859
751.342,60.287642857142885
753.853,68.89452380952386
756.362,53.652380952381
758.869,69.41743333333339
761.375,86.1891666666667
763.879,82.3955904761905
766.381,51.941014285714324
768.882,59.491890476190505
771.38,52.00027619047622
773.877,52.46605238095242
776.372,58.460609523809566
778.866,68.74594761904766
781.357,80.60811428571435
783.847,93.52343809523815
786.335,112.01590476190484
788.821,119.27668095238101
791.306,122.97271428571437
793.789,131.9144857142858
796.27,131.15041428571436
798.749,122.44296190476199
801.227,139.7451857142858
803.702,143.7726761904763
806.176,152.90690952380965
808.649,172.67336190476198
811.119,146.453761904762
813.588,136.53485714285725
816.055,154.108761904762
818.521,162.08147619047628
820.984,150.64473809523818
823.446,149.70487619047628
825.906,114.4537333333334
828.365,102.08336190476197
830.821,103.16702857142865
833.276,102.80131428571434
835.729,83.03559523809528
838.181,91.6332571428572
840.631,85.07249047619052
843.079,76.40276666666672
845.525,73.43532380952385
847.97,77.31486666666672
850.412,63.99564761904765
852.854,57.47948095238098
855.293,41.054061904761916
857.731,25.626104285714305
860.167,16.29280214285716
862.601,18.056126666666675
865.034,20.013302142857153
867.465,20.452009523809544
869.894,16.08851071428575
872.321,63.543981904761964
874.747,75.3441323809524
877.171,84.72904761904766
879.594,78.98648571428575
882.014,71.49930476190481
884.433,65.12660000000008
886.851,116.25149523809532
889.266,122.7330714285715
891.68,150.52584761904768
894.092,129.58402857142863
896.503,109.57588571428579
898.912,107.97954285714293
901.319,121.74947619047627
903.724,128.31603333333342
906.128,151.5860095238096
908.53,135.7991047619048
910.931,92.19503333333337
913.329,87.53743238095242
915.726,54.97101333333335
918.122,59.49735047619053
920.516,87.26091047619053
922.908,105.40601714285718
925.298,94.83894666666673
927.687,95.65626571428574
930.074,71.33569047619054
932.459,76.78343809523815
934.843,92.19117619047626
937.225,95.08397619047622
939.605,76.93918095238098
941.984,69.99620952380957
944.361,69.39890952380956
946.736,68.81502380952385
949.11,69.38838571428575
951.482,62.92953809523814
953.853,52.296561904761965
956.222,85.44273809523816
958.589,98.27368571428576
960.954,91.26640952380954
963.318,74.61212380952384
965.68,64.74014761904766
968.041,54.36540952380957
970.4,66.86936190476194
972.757,51.776528571428585
975.113,25.515952380952392
977.467,14.992932380952398
979.819,9.160303809523818
982.17,9.399388571428599
984.519,42.75829142857147
986.866,61.47530761904766
989.212,70.36020857142863
991.556,79.27038952380956
993.899,70.06319047619051
996.24,60.31016666666672
998.579,87.77340000000005
1000.92,90.88143333333338
1003.25,86.11041428571433
1005.59,80.74601428571432
1007.92,78.21677142857148
1010.25,87.42713428571435
1012.58,82.71032000000002
1014.91,63.113754285714336
1017.24,70.77981809523816
1019.56,97.13691619047628
1021.88,135.04158666666675
1024.2,154.82672000000005
1026.52,162.15847619047628
1028.84,163.0361904761906
1031.16,169.26885714285729
1033.48,179.18938095238107
1035.79,198.12990476190487
1038.1,171.4710476190477
1040.41,174.5927142857144
1042.72,196.54152380952394
1045.03,197.07866666666678
1047.33,182.1554761904763
1049.64,183.00919047619058
1051.94,165.87714285714299
1054.24,167.18671428571443
1056.54,202.79404761904775
1058.84,220.60257142857154
1061.13,214.03980952380965
1063.43,213.7712380952382
1065.72,212.89095238095246
1068.01,197.82619047619056
1070.3,197.43309523809538
1072.59,193.32938095238106
1074.87,207.89504761904777
1077.16,215.3189047619049
1079.44,249.26638095238113
1081.72,273.25980952380974
1084.0,311.5834761904764
1086.28,358.85542857142883
1088.56,464.740666666667
1090.84,574.4762857142862
1093.11,667.0128095238099
1095.38,686.539666666667
1097.65,635.388523809524
1099.92,543.3203333333336
1102.19,464.90433333333357
1104.46,412.85400000000027
1106.72,407.64380952380975
1108.98,406.2247619047622
1111.24,413.11947619047646
1113.5,420.374285714286
1115.76,453.3204761904765
1118.02,455.48071428571455
1120.28,480.615666666667
1122.53,454.96161904761914
1124.78,400.27976190476215
1127.03,353.37804761904783
1129.28,331.3026666666668
1131.53,296.9091428571431
1133.77,256.38685714285725
1136.02,221.63900000000012
1138.26,175.33133333333345
1140.5,169.84357142857155
1142.74,197.698142857143
1144.98,209.51276190476202
1147.22,207.42928571428587
1149.45,239.68428571428583
1151.69,232.32447619047628
1153.92,217.87252380952393
1156.15,209.37485714285725
1158.38,188.92600952380963
1160.61,162.14379523809535
1162.83,155.69387619047626
1165.06,136.90858571428578
1167.28,117.92973333333339
1169.5,102.04236666666674
1171.72,119.24556190476196
1173.94,113.53857142857147
1176.16,100.39700952380957
1178.37,78.20098571428576
1180.58,72.14032857142863
1182.8,69.11914761904767
1185.01,77.8510647619048
1187.22,67.05000761904762
1189.42,42.001162857142866
1191.63,24.989867619047637
1193.84,13.206235714285725
1196.04,9.221372380952403
1198.24,35.27318085714289
1200.44,42.02813323809526
1202.64,33.58136980952383
1204.84,34.694818000000005
1207.03,5.939948666666668
1209.23,13.555028095238134
1211.42,36.492721047619064
1213.61,30.086706285714293
1215.8,22.861289809523814
1217.99,19.19801504761905
1220.18,7.3357085714286026
1222.36,27.70377523809526
1224.55,45.63650952380955
1226.73,39.468290476190504
1228.91,45.34317619047622
1231.09,47.31004761904765
1233.27,46.37033809523813
1235.44,60.525533333333385
1237.62,65.44390952380955
1239.79,66.07949523809528
1241.96,48.196033333333354
1244.13,53.557090476190524
1246.3,63.688723809523864
1248.47,95.49750000000006
1250.64,111.69980952380959
1252.8,132.86942857142864
1254.96,137.0560000000001
1257.13,161.8807142857144
1259.29,185.72723809523822
1261.44,217.1215142857144
1263.6,205.44689523809535
1265.76,182.42040952380964
1267.91,156.80615238095245
1270.06,154.65436190476203
1272.22,151.53946666666675
1274.37,166.74965714285722
1276.51,145.00176190476196
1278.66,117.44140476190482
1280.81,85.83295238095246
1282.95,104.08407142857149
1285.09,108.4833333333334
1287.23,130.55729047619056
1289.37,129.3084571428572
1291.51,133.69207047619054
1293.65,99.28212285714291
1295.78,78.98623619047623
1297.92,74.18819142857149
1300.05,74.9383028571429
1302.18,70.90565142857149
1304.31,94.18850857142861
1306.44,96.88450000000006
1308.57,94.85324761904769
1310.69,124.85951904761913
1312.82,125.4295095238096
1314.94,126.80382857142865
1317.06,150.31853809523818
1319.18,159.2139238095239
1321.3,159.77808095238106
1323.41,183.96605714285727
1325.53,208.11328571428587
1327.64,236.88876190476208
1329.75,279.6280476190478
1331.87,284.90457142857156
1333.98,268.19652380952397
1336.08,254.31576190476207
1338.19,243.16885714285726
1340.3,240.04363809523824
1342.4,205.56123333333343
1344.5,165.81880000000004
1346.6,130.15105238095245
1348.7,111.36927619047626
1350.8,99.90361428571435
1352.9,114.945780952381
1354.99,106.45009523809532
1357.09,110.65608571428578
1359.18,114.85051904761912
1361.27,109.60613809523814
1363.36,95.9717190476191
1365.45,95.56709047619054
1367.54,104.727061904762
1369.62,134.30949047619058
1371.7,185.17213333333345
1373.79,240.1252952380954
1375.87,258.31247619047633
1377.95,248.68638095238103
1380.03,219.39057142857152
1382.1,198.71085714285726
1384.18,198.50457142857155
1386.25,193.62895238095246
1388.33,167.5600952380953
1390.4,127.96447619047626
1392.47,108.08000000000008
1394.54,114.28724761904769
1396.6,116.25244761904767
1398.67,96.1654047619048
1400.74,82.97766190476194
1402.8,73.3074428571429
1404.86,57.82037142857147
1406.92,61.46781904761909
1408.98,58.962728571428606
1411.04,53.54177619047624
1413.09,59.48915238095242
1415.15,66.46988571428575
1417.2,80.57724285714292
1419.25,92.14284761904766
1421.3,90.59324285714291
1423.35,112.21188571428577
1425.4,115.42524285714292
1427.45,112.46905714285721
1429.49,113.62637619047624
1431.54,81.32349523809526
1433.58,57.17675714285719
1435.62,58.897719047619084
1437.66,69.53123333333339
1439.7,86.45560952380958
1441.74,101.00111904761911
1443.77,96.49834761904768
1445.81,104.70625714285721
1447.84,100.8596952380953
1449.87,103.38444761904768
1451.9,114.3725238095239
1453.93,114.39211904761912
1455.96,110.2023238095239
1457.98,107.99024285714293
1460.01,103.65751428571436
1462.03,124.8679000000001
1464.05,169.85597142857154
1466.07,205.38076190476204
1468.09,242.9154285714287
1470.11,227.78966666666676
1472.13,218.239142857143
1474.14,212.30795238095249
1476.16,225.0886190476192
1478.17,232.8163809523811
1480.18,232.34538095238105
1482.19,187.38666666666677
1484.2,157.27119047619055
1486.21,134.32919047619055
1488.21,142.27285714285722
1490.22,135.19454285714292
1492.22,124.61556666666671
1494.22,96.48573333333337
1496.22,65.80277333333338
1498.22,33.945409047619066
1500.22,31.483184761904788
1502.22,28.223395714285733
1504.21,30.83088952380955
1506.21,37.25625666666669
1508.2,46.30740666666668
1510.19,21.0304142857143
1512.18,20.80485714285716
1514.17,23.962833333333354
1516.16,26.312738095238124
1518.14,43.61554039047623
1520.13,44.77519417619048
1522.11,38.791004542857166
1524.09,28.567205776190487
1526.07,22.722463590476206
1528.05,23.542155128571444
1530.03,24.216638009523816
1532.01,18.745875238095262
1533.98,19.74898190476191
1535.96,17.08330666666669
1537.93,35.749167619047654
1539.9,45.36595333333336
1541.87,43.981845238095254
1543.84,49.35931904761907
1545.81,52.832409523809574
1547.78,58.49713809523814
1549.74,70.68769523809529
1551.7,70.21456190476194
1553.67,70.9835666666667
1555.63,74.04340000000005
1557.59,84.538080952381
1559.55,86.75462380952388
1561.5,115.64662857142866
1563.46,133.5964476190477
1565.41,139.41521428571434
1567.37,147.48519047619052
1569.32,121.71264761904766
1571.27,106.52771428571435
1573.22,109.17014761904767
1575.17,107.26064761904769
1577.11,119.6583000000001
1579.06,145.31718095238105
1581.0,143.90550952380963
1582.95,130.9965333333334
1584.89,115.40168571428579
1586.83,102.93227619047626
1588.77,112.87582857142866
1590.7,120.9012476190477
1592.64,126.58148571428578
1594.58,115.03760476190489
1596.51,111.60463333333354
1598.44,129.28433809523852
