Raman Shift,Processed Intensity
331.095,-10.658523809523844
333.909,32.514419047619164
336.721,58.207247619047735
339.531,70.20709523809528
342.339,78.01510000000003
345.145,68.08511904761906
347.949,23.991199999999992
350.751,-7.882285714285736
353.55,-17.95898095238094
356.348,-36.61440952380954
359.144,-15.26970476190475
361.937,-1.7260857142857091
364.729,20.31184285714292
367.518,65.18831904761916
370.306,182.91599047619061
373.091,247.0320142857145
375.874,320.98033333333353
378.656,318.3489523809525
381.435,262.44119047619057
384.212,197.5620571428572
386.988,108.68458571428573
389.761,61.25894857142862
392.532,41.0228261904762
395.301,14.286700952380968
398.068,6.3621233333333524
400.833,23.41961714285714
403.596,11.963958571428595
406.358,16.12049428571428
409.117,10.87299095238095
411.874,-5.745878095238103
414.629,-15.797420476190467
417.382,0.4201790476190741
420.133,32.84804428571431
422.882,33.999880000000026
425.629,55.628752380952434
428.374,87.10770000000008
431.117,120.57251428571438
433.858,166.58878571428582
436.597,179.43741428571437
439.334,136.87628571428576
442.069,94.47392857142863
444.802,79.75169523809531
447.533,99.08891904761916
450.262,150.05626666666677
452.989,189.9871047619049
455.714,201.21566666666678
458.438,189.4097142857144
461.159,170.8092476190477
463.878,129.03600476190482
466.595,90.66434761904767
469.31,51.459766666666695
472.024,38.0931190476191
474.735,59.94978571428578
477.444,99.55819523809531
480.152,116.3527333333334
482.857,133.52923809523816
485.561,132.37947619047625
488.262,95.29076190476194
490.962,88.50800000000004
493.659,88.60900000000005
496.355,97.88700000000009
499.048,111.11066666666676
501.74,134.7640952380953
504.43,145.14019047619058
507.118,153.81838095238103
509.804,149.94890476190483
512.488,154.5872857142858
515.17,163.74128571428585
517.85,176.37152380952392
520.528,196.53323809523818
523.204,182.4250476190477
525.878,145.24480952380964
528.551,132.33380952380963
531.221,136.27075238095244
533.89,118.53960952380959
536.556,113.29066666666672
539.221,99.57907619047623
541.883,90.55461904761913
544.544,96.84371428571436
547.203,107.78603809523815
549.86,95.8171333333334
552.515,124.89545714285723
555.168,135.50379047619057
557.819,171.36193333333344
560.469,186.66657142857153
563.116,194.9942857142858
565.761,165.15995238095246
568.405,167.93028571428582
571.047,167.45298095238104
573.687,164.7321476190477
576.324,156.48653333333343
578.96,149.86237619047625
581.594,150.91088571428583
584.227,142.0163095238096
586.857,144.13368571428578
589.485,125.21807619047625
592.112,113.4146095238096
594.737,114.96316190476199
597.359,136.7700666666667
599.98,135.50309523809534
602.599,139.0200952380953
605.216,144.03642857142867
607.831,152.21880952380963
610.445,162.47218095238102
613.056,134.46263333333343
615.666,134.04664761904772
618.274,147.6995095238096
620.88,162.46745714285728
623.484,198.11082380952394
626.086,208.81846666666678
628.686,208.06423809523827
631.284,228.703142857143
633.881,264.3037142857145
636.476,282.4819523809525
639.068,284.94919047619067
641.659,263.8926190476192
644.249,239.35628571428583
646.836,200.81238095238106
649.421,179.16193333333345
652.005,147.2579571428572
654.587,100.81036666666671
657.166,83.19578952380957
659.745,51.26695095238098
662.321,20.542864285714305
664.895,27.54315476190478
667.468,17.92961761904762
670.038,-3.5404519047618983
672.607,4.5569223809523836
675.174,5.931416190476203
677.739,7.81659047619051
680.303,40.77938095238098
682.864,48.9582523809524
685.424,62.1107333333334
687.982,86.99442761904766
690.538,79.89078714285718
693.092,67.22418285714288
695.645,44.03810476190477
698.195,20.757086666666694
700.744,23.710404761904783
703.291,36.60841142857145
705.836,32.20912523809527
708.38,39.318199047619075
710.921,38.45570000000002
713.461,36.71319523809526
715.999,30.991809523809547
718.535,51.097534285714325
721.069,39.884117619047636
723.602,52.824249523809556
726.133,55.86714428571431
728.662,48.4857685714286
731.189,68.77249857142863
733.714,82.48602476190477
736.238,52.242554761904785
738.759,33.324938095238096
741.279,28.159045238095267
743.798,20.599566666666703
746.314,50.549026190476226
748.829,61.95724809523812
751.342,37.679201666666685
753.853,37.61744142857148
756.362,67.19843404761909
758.869,78.94419857142863
761.375,104.80517785714292
763.879,115.16068619047623
766.381,73.72338095238099
768.882,70.20598571428576
771.38,63.035700000000034
773.877,50.25880000000005
776.372,76.92152857142864
778.866,82.26097619047623
781.357,64.22849047619052
783.847,68.34695714285719
786.335,85.0915952380953
788.821,87.03318095238103
791.306,94.93292380952386
793.789,97.55212857142863
796.27,106.31905238095246
798.749,132.99514761904774
801.227,149.3417238095239
803.702,146.45395238095247
806.176,141.8077952380953
808.649,156.92712380952392
811.119,185.90724285714296
813.588,187.12931428571434
816.055,158.831361904762
818.521,151.06162857142866
820.984,158.05817142857154
823.446,181.44080952380963
825.906,165.54316666666674
828.365,150.1753714285715
830.821,114.24287142857148
833.276,82.17520952380957
835.729,54.020552380952424
838.181,61.113295238095276
840.631,52.16864761904768
843.079,82.23514761904767
845.525,76.0283285714286
847.97,70.59694761904765
850.412,65.75180190476195
852.854,54.9227185714286
855.293,48.158780000000014
857.731,34.98519571428572
860.167,16.26062761904764
862.601,26.986694761904793
865.034,43.16500666666669
867.465,46.79728571428575
869.894,56.551952380952415
872.321,58.04983333333337
874.747,59.05472380952385
877.171,66.8542428571429
879.594,70.30749047619054
882.014,110.89255714285723
884.433,135.51633809523818
886.851,136.7520857142858
889.266,152.60221904761914
891.68,148.49733333333342
894.092,159.15371428571441
896.503,204.28789523809536
898.912,193.18770476190483
901.319,160.9978380952382
903.724,151.86391428571437
906.128,131.64493333333343
908.53,142.43837142857154
910.931,163.38941904761913
913.329,155.26214285714295
915.726,143.91557142857152
918.122,161.63809523809536
920.516,163.9552380952382
922.908,156.2980000000001
925.298,155.23995238095247
927.687,132.73545238095244
930.074,122.64359047619057
932.459,120.39517142857149
934.843,97.89669047619053
937.225,97.48385714285722
939.605,122.25364285714292
941.984,118.06506190476198
944.361,117.15819047619053
946.736,101.15388571428576
949.11,80.81570476190481
951.482,70.81216190476195
953.853,78.14459047619052
956.222,59.05286666666669
958.589,52.443238095238144
960.954,36.93623333333336
963.318,57.29509047619053
965.68,80.42592857142864
968.041,100.99653333333339
970.4,110.96042380952386
972.757,90.89010476190478
975.113,45.26272380952385
977.467,49.5078628571429
979.819,47.2454604761905
982.17,42.42860190476193
984.519,46.72471571428573
986.866,29.61061619047622
989.212,39.230003333333386
991.556,85.34505333333338
993.899,97.52781428571433
996.24,97.01680476190481
998.579,91.52670000000005
1000.92,91.67677619047625
1003.25,79.56291428571433
1005.59,81.99452857142862
1007.92,69.4958428571429
1010.25,87.63815238095246
1012.58,115.65971904761913
1014.91,156.70351428571436
1017.24,151.62651428571434
1019.56,151.14319047619057
1021.88,140.58638095238103
1024.2,135.38461904761914
1026.52,147.20452380952392
1028.84,149.47414285714294
1031.16,147.3362380952382
1033.48,170.93323809523818
1035.79,183.6932380952382
1038.1,191.3780952380954
1040.41,234.1298571428573
1042.72,261.61471428571446
1045.03,272.8800000000001
1047.33,265.25814285714296
1049.64,235.51052380952393
1051.94,201.1127142857144
1054.24,193.68285714285724
1056.54,184.69685714285723
1058.84,167.58257142857153
1061.13,160.43433333333343
1063.43,168.0607142857144
1065.72,182.88961904761916
1068.01,201.20576190476203
1070.3,204.34147619047633
1072.59,189.10561904761914
1074.87,179.16357142857154
1077.16,179.65757142857157
1079.44,206.82480952380968
1081.72,216.4260952380954
1084.0,260.698142857143
1086.28,312.7354761904764
1088.56,408.29857142857173
1090.84,516.3391428571432
1093.11,605.2845714285718
1095.38,614.8004285714289
1097.65,578.2186190476193
1099.92,503.3003333333335
1102.19,434.8533809523812
1104.46,393.2103809523811
1106.72,364.4652380952383
1108.98,359.52138095238126
1111.24,385.3776666666669
1113.5,430.0805238095241
1115.76,460.1045714285717
1118.02,516.8775714285717
1120.28,530.5412380952383
1122.53,496.2843333333336
1124.78,448.5347142857146
1127.03,398.14776190476215
1129.28,337.88414285714305
1131.53,312.3619523809526
1133.77,276.34176190476205
1136.02,235.3460476190478
1138.26,199.99261904761914
1140.5,193.89914285714298
1142.74,187.73114285714297
1144.98,205.1064285714287
1147.22,229.30923809523824
1149.45,251.67180952380966
1151.69,239.76419047619058
1153.92,223.63304761904774
1156.15,183.32469523809533
1158.38,149.88550476190485
1160.61,127.17124761904769
1162.83,121.03801904761912
1165.06,116.05615238095245
1167.28,119.12922380952386
1169.5,113.11314285714289
1171.72,75.10204761904765
1173.94,44.285190476190515
1176.16,48.75687619047625
1178.37,73.65887619047626
1180.58,98.56143333333338
1182.8,95.41584761904764
1185.01,73.69732857142859
1187.22,44.643004761904784
1189.42,39.91863809523812
1191.63,40.332971428571454
1193.84,44.313609523809546
1196.04,50.431190476190515
1198.24,62.923121904761935
1200.44,49.931600476190496
1202.64,53.0274523809524
1204.84,36.591167142857145
1207.03,17.669939047619067
1209.23,24.45392904761906
1211.42,4.561960952380944
1213.61,4.660570476190506
1215.8,18.51163523809525
1217.99,28.35337024761907
1220.18,25.947925580952393
1222.36,30.105226400000003
1224.55,6.540037466666684
1226.73,20.824401638095257
1228.91,25.43518843809526
1231.09,42.42082834285717
1233.27,43.8775285714286
1235.44,48.90154285714288
1237.62,41.39879523809527
1239.79,36.46575714285717
1241.96,44.43703333333339
1244.13,80.9331095238096
1246.3,115.8602476190477
1248.47,140.98189523809532
1250.64,162.39513333333343
1252.8,179.10157142857156
1254.96,174.67452380952395
1257.13,198.40147619047633
1259.29,225.85576190476203
1261.44,220.84900000000016
1263.6,243.43100000000018
1265.76,233.60404761904772
1267.91,212.5609047619049
1270.06,196.9702380952382
1272.22,174.83452380952392
1274.37,145.29875238095246
1276.51,126.60344285714291
1278.66,98.98931428571437
1280.81,113.8399857142858
1282.95,131.91957142857152
1285.09,135.6119095238096
1287.23,113.34795238095242
1289.37,100.32094285714291
1291.51,79.91439047619052
1293.65,65.08355714285719
1295.78,58.59273809523813
1297.92,67.01623333333339
1300.05,78.5950238095239
1302.18,116.1412190476191
1304.31,121.46702380952385
1306.44,126.1467571428572
1308.57,118.89731428571436
1310.69,113.48344285714293
1312.82,127.24134285714294
1314.94,144.50683809523818
1317.06,172.90185714285727
1319.18,198.81004761904774
1321.3,201.043761904762
1323.41,187.2724285714287
1325.53,205.30804761904778
1327.64,231.29595238095254
1329.75,282.8580476190478
1331.87,310.6156190476192
1333.98,297.1429523809525
1336.08,279.53795238095256
1338.19,246.99309523809535
1340.3,207.2729523809525
1342.4,184.4752857142858
1344.5,169.12598095238104
1346.6,138.65593333333342
1348.7,125.78186666666674
1350.8,120.93420952380961
1352.9,128.68677142857152
1354.99,132.37474285714293
1357.09,138.0952190476191
1359.18,130.70719047619053
1361.27,128.49857142857152
1363.36,149.6614761904763
1365.45,155.14995238095247
1367.54,147.20366666666675
1369.62,133.82395238095245
1371.7,154.77428571428584
1373.79,168.43704761904772
1375.87,173.0514285714287
1377.95,202.09461904761915
1380.03,203.567761904762
1382.1,186.94790476190488
1384.18,190.14095238095243
1386.25,149.67115714285717
1388.33,103.25353809523817
1390.4,97.36460952380956
1392.47,69.33818095238098
1394.54,56.69831904761908
1396.6,43.540542857142874
1398.67,33.48369523809527
1400.74,43.146761904761945
1402.8,60.19615238095242
1404.86,66.15528571428575
1406.92,69.02357142857147
1408.98,73.32440000000005
1411.04,82.77103809523814
1413.09,93.26732857142864
1415.15,91.95513809523815
1417.2,83.26189523809528
1419.25,81.37667619047625
1421.3,89.82230476190482
1423.35,98.07308571428577
1425.4,105.7466952380953
1427.45,106.7461952380953
1429.49,90.9745285714286
1431.54,83.19158571428575
1433.58,67.91929047619051
1435.62,51.96485714285718
1437.66,57.23110952380957
1439.7,69.47756190476194
1441.74,71.60660761904767
1443.77,58.42534095238097
1445.81,49.31219142857146
1447.84,56.50269238095244
1449.87,64.94654380952385
1451.9,63.8790647619048
1453.93,63.67838380952384
1455.96,56.913028571428626
1457.98,64.43718095238103
1460.01,119.96235238095248
1462.03,148.39026666666675
1464.05,143.19394285714293
1466.07,157.7514761904763
1468.09,209.86895238095252
1470.11,248.35295238095256
1472.13,305.5813333333335
1474.14,336.97947619047636
1476.16,321.44895238095256
1478.17,290.3680476190478
1480.18,275.73333333333346
1482.19,227.39921904761914
1484.2,169.83855238095248
1486.21,104.28636666666671
1488.21,77.88273333333339
1490.22,65.33900476190483
1492.22,90.22380476190482
1494.22,105.82021904761909
1496.22,101.03019523809525
1498.22,50.47018571428572
1500.22,26.756761904761923
1502.22,12.125366666666686
1504.21,24.335680952380986
1506.21,42.81402380952384
1508.2,52.510600000000025
1510.19,49.328140952380984
1512.18,29.312283809523823
1514.17,35.88984380952385
1516.16,47.58281142857146
1518.14,53.43714380952384
1520.13,48.213150476190506
1522.11,48.099869523809545
1524.09,28.619766666666703
1526.07,49.4382904761905
1528.05,36.41136190476192
1530.03,29.06171428571431
1532.01,34.57883809523812
1533.98,44.6285285714286
1535.96,51.35291904761908
1537.93,49.560819047619056
1539.9,38.10880476190479
1541.87,36.663033333333374
1543.84,55.12766666666673
1545.81,81.40716666666674
1547.78,107.35845238095244
1549.74,98.17184285714292
1551.7,114.18027619047626
1553.67,111.2886333333334
1555.63,116.68706666666675
1557.59,135.94703333333342
1559.55,156.25896190476197
1561.5,151.33747619047628
1563.46,144.80152380952387
1565.41,132.79447619047627
1567.37,139.60219047619057
1569.32,148.9389523809525
1571.27,159.80519047619057
1573.22,147.53480952380957
1575.17,132.7472857142858
1577.11,127.63342857142865
1579.06,124.43204761904768
1581.0,123.09580952380958
1582.95,122.57776190476197
1584.89,130.54495238095248
1586.83,139.95085714285722
1588.77,153.795761904762
1590.7,149.6045238095239
1592.64,152.0445238095239
1594.58,149.2592619047619
1596.51,153.15440476190486
1598.44,170.0641190476194
