Raman Shift,Processed Intensity
331.095,51.425660478883856
333.909,13.40847318375927
336.721,-22.583927652028706
339.531,-48.88487022080153
342.339,-46.39910100429597
345.145,-41.198017727891056
347.949,-15.04347374343024
350.751,-19.554439554886812
353.55,-4.20699767736096
356.348,-11.858147019886474
359.144,-16.126750125375565
361.937,-9.250670886758598
364.729,1.7227544035504252
367.518,18.127198385141583
370.306,60.91544300871601
373.091,107.80224181995663
375.874,156.50242033863424
378.656,210.20707167582714
381.435,224.4883235796924
384.212,203.91839119554288
386.988,154.35529649257614
389.761,72.94287340489609
392.532,32.06315392491342
395.301,10.574468482456723
398.068,19.716212990556414
400.833,39.823139700750744
403.596,51.84917293239823
406.358,26.510272421025093
409.117,13.379677619059294
411.874,-25.873990860568938
414.629,-57.10576999226669
417.382,-38.456248837781914
420.133,-38.684894542793245
422.882,-1.5986233418834672
425.629,30.376766770459653
428.374,74.1965873539034
431.117,133.43534589678575
433.858,217.33435919527392
436.597,225.08746197060327
439.334,225.65052501012633
442.069,193.40811616550945
444.802,160.3163518271258
447.533,159.9028912555823
450.262,159.5050261513452
452.989,182.9363416529368
455.714,218.01052019227836
458.438,235.8270501119364
461.159,238.19979142523334
463.878,220.46649395730992
466.595,187.53641072427854
469.31,176.5569589314241
472.024,149.34228573331393
474.735,136.94469113675814
477.444,158.36890804663517
480.152,134.09590612123475
482.857,132.4638384847408
485.561,139.76327415400647
488.262,156.42766856056733
490.962,169.89050073931776
493.659,203.49002956480808
496.355,215.70738332087467
499.048,213.5475064131315
501.74,202.3486775100355
504.43,186.06821816014053
507.118,181.37772521887564
509.804,190.32973184674574
512.488,238.9767494599223
515.17,285.323643014156
517.85,314.9942920029771
520.528,334.7553943130488
523.204,365.6116986509319
525.878,362.3774274460575
528.551,366.24769975369554
531.221,351.4651922531625
533.89,309.74870500793713
536.556,308.95982246386757
539.221,319.9600506378574
541.883,366.7060495446549
544.544,409.2972465760113
547.203,432.3091641655624
549.86,432.98389031083525
552.515,450.23007290479154
555.168,489.95624740069115
557.819,515.6898787626824
560.469,513.291641511622
563.116,491.9077950089759
565.761,452.9225587407291
568.405,464.2438209346351
571.047,465.1602757488886
573.687,428.10332236555314
576.324,438.69467836971216
578.96,412.8892312238513
581.594,378.213127837485
584.227,386.7637688986747
586.857,315.20980320556055
589.485,246.12445533121627
592.112,231.60456757422435
594.737,200.5086895283007
597.359,195.31421527096063
599.98,206.87928245696094
602.599,199.06181426887179
605.216,177.67189470098901
607.831,159.0908105099129
610.445,130.9853312603609
613.056,94.59341794242027
615.666,70.91469349354429
618.274,66.71043713008339
620.88,87.83691201214288
623.484,137.388223940201
626.086,173.74394876997212
628.686,205.9500931606076
631.284,205.10005532289506
633.881,166.2870143388791
636.476,157.03250995767758
639.068,151.71502239129768
641.659,119.47474258664397
644.249,138.4516758308614
646.836,153.69041202332983
649.421,142.71156261433725
652.005,148.511768972317
654.587,124.1351393225109
657.166,65.24468568563816
659.745,28.122332245125108
662.321,34.4308284762451
664.895,42.35661465620478
667.468,71.80030927954704
670.038,68.28148218783372
672.607,59.700570556480216
675.174,38.910318691111115
677.739,33.62055115724979
680.303,13.588660195722241
682.864,7.143426471387102
685.424,6.518363631405919
687.982,9.899349953681849
690.538,0.043689296653610654
693.092,-15.624636810087395
695.645,-49.68162083753168
698.195,-31.560357114974067
700.744,1.163257235520632
703.291,31.770530065693492
705.836,46.92378807610021
708.38,43.523524142266524
710.921,18.18459225988363
713.461,44.71240249000675
715.999,71.86483018995978
718.535,86.97126810138798
721.069,84.40882129544934
723.602,82.88802592752336
726.133,96.54809180145003
728.662,94.05214493376798
731.189,74.25389868937782
733.714,43.67384872673392
736.238,22.023086990654974
738.759,29.965210943224065
741.279,63.11632803279008
743.798,69.90220302011176
746.314,33.41540530450766
748.829,6.462932440480017
751.342,-23.43378539327159
753.853,-29.229357115325
756.362,-17.163950082046085
758.869,-2.096621375791983
761.375,3.3518240406979203
763.879,-3.105931344732653
766.381,-5.18562511983464
768.882,17.58762990682453
771.38,46.87934294159095
773.877,57.59326148907667
776.372,62.01422573074524
778.866,26.23673718921509
781.357,46.736384535422076
783.847,73.03650749101917
786.335,97.04152739744268
788.821,128.4655158802143
791.306,119.59409684657794
793.789,107.66539610218297
796.27,109.01289572967289
798.749,131.113050372036
801.227,125.68052256357942
803.702,123.33484663232275
806.176,125.07661641192135
808.649,144.14462533453752
811.119,135.82538747609715
813.588,170.26265860154672
816.055,151.17171911487185
818.521,122.69651415196176
820.984,141.26679367348515
823.446,126.02668112918536
825.906,99.12038497932463
828.365,95.69219593041043
830.821,64.17219845663885
833.276,69.13341089276264
835.729,101.62511600315338
838.181,104.4109534556278
840.631,112.54034562860579
843.079,103.82468532303756
845.525,74.59923776004325
847.97,56.104090197600726
850.412,39.38891107104428
852.854,52.31294722880057
855.293,60.783116406220415
857.731,48.7063854136959
860.167,49.8469102295403
862.601,34.15936656905933
865.034,34.55085188219118
867.465,42.26183497020429
869.894,48.389962745248795
872.321,45.27100984705294
874.747,71.71697111675576
877.171,51.492249308843384
879.594,48.313652326884494
882.014,27.469438078321218
884.433,37.295502186394515
886.851,46.88966094017087
889.266,81.92117233980434
891.68,72.29739999893945
894.092,90.87809609473516
896.503,88.76111288931588
898.912,111.23478091788502
901.319,89.06362051017959
903.724,98.53595807381771
906.128,107.65439952050974
908.53,121.42154178750616
910.931,116.45901769238117
913.329,133.95987412114118
915.726,98.307616883013
918.122,98.40954127950272
920.516,96.22053886393587
922.908,112.74309467719422
925.298,114.31299876916319
927.687,134.26601010114086
930.074,108.79499663871024
932.459,96.4737421112859
934.843,71.97122896213727
937.225,83.33734986983495
939.605,92.05052403160971
941.984,85.11293249432242
944.361,80.24099158068293
946.736,84.62725488688625
949.11,78.84517242311472
951.482,76.70623070641682
953.853,61.40280713930042
956.222,14.651024388327187
958.589,18.595509524614954
960.954,26.95224840242986
963.318,28.15144150333117
965.68,40.337502637453326
968.041,51.75001002573936
970.4,25.67608595359775
972.757,7.831347853135412
975.113,-2.3543787098512894
977.467,-19.070394667934124
979.819,-21.363223183657965
982.17,-10.469943723888036
984.519,-4.103909162603031
986.866,-2.6928461778343262
989.212,8.478281320264614
991.556,35.69583689561546
993.899,27.53179029132093
996.24,26.367520830141302
998.579,50.15571605308264
1000.92,38.99179695414978
1003.25,38.97106018296631
1005.59,61.760105961673844
1007.92,65.64445647802404
1010.25,84.86189246409162
1012.58,112.12626596546193
1014.91,113.72274168184754
1017.24,104.50780021246464
1019.56,94.43305082522602
1021.88,82.49761565449876
1024.2,53.17670437506558
1026.52,57.13590316179125
1028.84,86.70736841119538
1031.16,103.93744903445054
1033.48,128.87240398847325
1035.79,136.22507218797296
1038.1,139.89868527463614
1040.41,163.03448991012328
1042.72,195.72603673573485
1045.03,191.97156457016558
1047.33,184.8168607977491
1049.64,157.30764556621534
1051.94,148.1562416987333
1054.24,132.50348270119048
1056.54,140.20443029328112
1058.84,134.35218717768998
1061.13,162.70647171403584
1063.43,194.8364783071013
1065.72,203.88278541410932
1068.01,197.46212069485546
1070.3,202.19117378089481
1072.59,163.01993285424237
1074.87,161.5650212260789
1077.16,188.1097005821341
1079.44,179.50863613282104
1081.72,197.33075700147265
1084.0,243.00211661258027
1086.28,250.9487530800227
1088.56,322.07288292863836
1090.84,403.467190053884
1093.11,465.0814956338761
1095.38,511.5322851842893
1097.65,495.48366418468686
1099.92,415.409266085798
1102.19,353.639874602512
1104.46,305.83961743543955
1106.72,293.10120761152234
1108.98,304.6126133960745
1111.24,310.7046805857758
1113.5,299.32732623023117
1115.76,323.0971609249584
1118.02,345.7736825329489
1120.28,373.35451752527524
1122.53,381.98018613122395
1124.78,397.6483912979468
1127.03,358.118783840589
1129.28,322.9605847352798
1131.53,264.600207412112
1133.77,223.9879276671793
1136.02,187.50264881270573
1138.26,171.1900001605045
1140.5,164.61948312448794
1142.74,190.36066494222382
1144.98,207.2212771583986
1147.22,209.1043617273292
1149.45,234.57970282975793
1151.69,234.740972975364
1153.92,227.92002196240583
1156.15,215.5916420278586
1158.38,185.04023775944233
1160.61,133.26459124575376
1162.83,126.69215103591705
1165.06,93.6076068135219
1167.28,57.62908311817364
1169.5,12.993856876572863
1171.72,-2.727353637833403
1173.94,13.845804916708403
1176.16,49.18903981554354
1178.37,47.25436893994106
1180.58,54.66060267278658
1182.8,22.693349603797742
1185.01,-2.2664063366853497
1187.22,-5.647062077244755
1189.42,-11.638770652543826
1191.63,-23.717245258748108
1193.84,-38.691373425940355
1196.04,-33.89368956874341
1198.24,-0.08513582547197984
1200.44,15.068744212116144
1202.64,36.71208421488359
1204.84,38.798688109292925
1207.03,-3.38416589505141
1209.23,7.069983484049317
1211.42,25.782013200363508
1213.61,35.18244812709395
1215.8,36.84478926130623
1217.99,49.10455621407846
1220.18,40.86880589111797
1222.36,41.616127363858595
1224.55,59.01568435961144
1226.73,75.64149584695201
1228.91,47.16290709730106
1231.09,59.963632175073144
1233.27,57.9512726183043
1235.44,49.60493135737511
1237.62,73.3561599670586
1239.79,64.16038210905049
1241.96,21.068316974494337
1244.13,8.55930748841206
1246.3,9.731791371282043
1248.47,22.255676962515054
1250.64,48.65805325139081
1252.8,84.18032947221081
1254.96,107.30204136611928
1257.13,122.74084791911059
1259.29,169.16681381432545
1261.44,174.15478712244294
1263.6,188.89868175397783
1265.76,210.11623610205493
1267.91,197.85853358994837
1270.06,173.17666607575666
1272.22,164.12173059042334
1274.37,134.45911179003315
1276.51,132.76371678906435
1278.66,148.46759094602498
1280.81,118.62181936336924
1282.95,103.4679521969565
1285.09,74.53323948930301
1287.23,58.249675526657484
1289.37,80.09685271987405
1291.51,97.5067202471987
1293.65,67.62548555418743
1295.78,70.98027775840183
1297.92,62.81247772076176
1300.05,63.22057192642728
1302.18,113.06491112758454
1304.31,117.87246898622652
1306.44,120.17017214551356
1308.57,136.056325539226
1310.69,147.72441865359565
1312.82,169.55836036057394
1314.94,200.1800947034751
1317.06,186.92578811118756
1319.18,181.51249280286083
1321.3,197.13338162116156
1323.41,200.45774477029227
1325.53,215.77384369686365
1327.64,226.65557449458242
1329.75,217.91484559465016
1331.87,221.601574503778
1333.98,233.47987501839657
1336.08,215.1232920579057
1338.19,171.43860792649343
1340.3,143.61822000353368
1342.4,105.28299462445511
1344.5,77.72035905684584
1346.6,70.64620300037359
1348.7,103.01439913432296
1350.8,104.01679985560759
1352.9,123.22609115964792
1354.99,100.54817033076597
1357.09,62.93642839448353
1359.18,39.91555637934698
1361.27,71.77201824540975
1363.36,86.6016666698631
1365.45,132.88117238157338
1367.54,144.99183444800133
1369.62,168.7433905621176
1371.7,187.1359225674164
1373.79,213.3598572210235
1375.87,219.31977648061047
1377.95,218.20584683892253
1380.03,196.73191532498277
1382.1,176.70693883862032
1384.18,132.84450872310526
1386.25,113.90570867110955
1388.33,97.93721072591188
1390.4,89.41413318737136
1392.47,95.7638508988507
1394.54,86.2231388674727
1396.6,63.600077789141324
1398.67,65.9407214783239
1400.74,71.10052620259489
1402.8,76.55387525527522
1404.86,73.39407971854598
1406.92,44.80956970275406
1408.98,6.179133204760319
1411.04,-14.928083128944081
1413.09,3.152188665630547
1415.15,13.3698154678641
1417.2,26.484072384429737
1419.25,21.920785724093548
1421.3,13.153286864373285
1423.35,37.03574707057669
1425.4,56.707943085237275
1427.45,56.78573834337203
1429.49,55.64680228297516
1431.54,51.668710607890944
1433.58,44.75275983640768
1435.62,68.75254375460986
1437.66,78.47395844116545
1439.7,71.81806443496112
1441.74,64.30490128369729
1443.77,59.40682590200299
1445.81,67.07232712002406
1447.84,83.20222118438915
1449.87,103.98299011632389
1451.9,110.98202483166392
1453.93,120.05239207040177
1455.96,129.38045846908472
1457.98,131.8192289189326
1460.01,119.4597801620423
1462.03,114.25031343521914
1464.05,152.80568330428378
1466.07,158.2645455459924
1468.09,200.6226955061577
1470.11,222.16164455299577
1472.13,262.40100605429257
1474.14,300.9080242117061
1476.16,347.1071028950771
1478.17,337.1845725719745
1480.18,338.66012390390483
1482.19,293.72014610443625
1484.2,252.31297005922124
1486.21,201.19649239840464
1488.21,145.79532337855426
1490.22,99.3912680979272
1492.22,80.78999818792249
1494.22,60.55915207596672
1496.22,41.790244772204005
1498.22,28.71772051333278
1500.22,24.24276731120517
1502.22,-9.780963736669491
1504.21,6.690741815758884
1506.21,21.94028583549516
1508.2,-3.89269074925096
1510.19,-5.7160658326261
1512.18,1.9433393186391186
1514.17,-26.060236308161166
1516.16,-13.4914904264715
1518.14,5.408802932311573
1520.13,-13.838110860190682
1522.11,6.193889203723529
1524.09,20.407227429474915
1526.07,6.466343366897263
1528.05,2.2262608997914413
1530.03,11.637347811665222
1532.01,18.411980113377695
1533.98,43.834063736486996
1535.96,33.235222893263426
1537.93,14.6138455795558
1539.9,8.111271934802744
1541.87,-9.083445969386958
1543.84,6.02835851649661
1545.81,35.92163117034693
1547.78,46.45235575692732
1549.74,77.2861224101598
1551.7,120.18383887256368
1553.67,118.62077506802257
1555.63,98.59608386503237
1557.59,65.1089885066117
1559.55,38.63497004021929
1561.5,21.41147855719464
1563.46,50.29507300362911
1565.41,69.18998956266637
1567.37,79.95290051299366
1569.32,77.9167207063806
1571.27,75.60489023569153
1573.22,72.2075618648048
1575.17,86.91493131567222
1577.11,88.01247231728348
1579.06,83.35712403558409
1581.0,47.377288027204486
1582.95,9.406158526520585
1584.89,10.348386066045578
1586.83,-0.5104017603187003
1588.77,28.972587132637727
1590.7,50.84492532277932
1592.64,59.58277230645763
1594.58,65.0670618767208
1596.51,57.36921331104418
1598.44,30.98922351144347
