Raman Shift,Processed Intensity
331.095,60.05624848444586
333.909,15.092316264193414
336.721,-11.518701225332734
339.531,-24.276797980431184
342.339,-31.301003609056806
345.145,-23.186520184244273
347.949,-22.64757338325944
350.751,-23.207882674375924
353.55,-13.248274360775667
356.348,5.9933244231624485
359.144,2.5647488584368148
361.937,-22.7718261262944
364.729,-39.444641755753764
367.518,-21.92949226146675
370.306,42.67885255053034
373.091,126.19045873592131
375.874,214.74879934732644
378.656,224.35456366475273
381.435,207.29422833080935
384.212,182.14005705735053
386.988,87.55962414165288
389.761,32.363433220682964
392.532,22.409678882508615
395.301,12.794722563424784
398.068,27.376901778409774
400.833,53.34795839919889
403.596,12.756849175007119
406.358,9.890699110404512
409.117,-19.01091182348273
411.874,-27.56547018322135
414.629,-26.676097129351547
417.382,-9.198213881288666
420.133,5.4414086870556275
422.882,31.05416877527432
425.629,65.83248467872818
428.374,101.73074164918398
431.117,112.7033848789456
433.858,160.60967915164747
436.597,186.16608754067374
439.334,155.94626915518938
442.069,147.57155307665516
444.802,126.9490313429501
447.533,112.50965193250931
450.262,159.39869270083318
452.989,228.3329019836715
455.714,255.64811539068478
458.438,255.29925355148907
461.159,234.95555795693963
463.878,196.66725537184675
466.595,156.67507939054894
469.31,170.45788723057967
472.024,192.68503843110602
474.735,192.4068687894578
477.444,207.14992620241765
480.152,213.53601603131392
482.857,194.18696075283697
485.561,194.62935960984578
488.262,187.15172921456497
490.962,162.9473584374923
493.659,171.44763948678838
496.355,195.36968470193824
499.048,211.85918144266134
501.74,239.29991364448324
504.43,263.4566167076441
507.118,268.5225942907705
509.804,280.83400177121257
512.488,334.8698439910977
515.17,377.0138777652892
517.85,402.0784191512503
520.528,410.54243643319296
523.204,410.7420240585998
525.878,397.20373371761116
528.551,406.50171494621645
531.221,397.9243795389734
533.89,422.99820881886626
536.556,441.77346566906954
539.221,444.06228751710205
541.883,477.77201741421095
544.544,473.333773209994
547.203,443.6072072032134
549.86,473.3566943640444
552.515,496.87037769917833
555.168,495.19826123597386
557.819,522.3903030066176
560.469,497.8297461275183
563.116,477.5664498786996
565.761,496.6978398308115
568.405,539.0355722578602
571.047,558.2483890261256
573.687,547.3859248640279
576.324,468.0215622510468
578.96,421.4429053542599
581.594,400.17558729821576
584.227,393.0308869586197
586.857,379.2962028988727
589.485,359.4493368304211
592.112,311.39658659691895
594.737,277.9013153488622
597.359,237.6791873848906
599.98,218.06483256452475
602.599,169.01184405423191
605.216,123.14039512111412
607.831,113.26104640279618
610.445,113.66045793921012
613.056,108.33948215677583
615.666,133.8703044716117
618.274,121.82501246417905
620.88,137.9184507682121
623.484,149.10345691202383
626.086,183.47562096934416
628.686,190.9875690196709
631.284,218.3537227991078
633.881,228.85982125595683
636.476,222.36291829678203
639.068,218.33899958010215
641.659,214.74012311959495
644.249,186.85155988731003
646.836,161.24417251211753
649.421,122.6315558829192
652.005,45.06051108519159
654.587,13.863424099437452
657.166,-5.294117405128418
659.745,24.681916290937806
662.321,40.075905464788775
664.895,64.50544125433134
667.468,53.349902787838346
670.038,33.89332002783567
672.607,18.324379472137934
675.174,7.8792869977392
677.739,-8.634416914347185
680.303,-12.504516285708632
682.864,-6.018873171764426
685.424,21.010770268501346
687.982,31.344035985611754
690.538,6.550010764399758
693.092,4.340585044049476
695.645,-4.8104939761501555
698.195,4.094288571206107
700.744,-4.13806390924583
703.291,-0.9386724323317139
705.836,-9.929156884240001
708.38,27.983131962781954
710.921,33.55749938906638
713.461,50.077054557178144
715.999,48.30109643679816
718.535,52.846071158184714
721.069,70.09033888943486
723.602,102.55513118993349
726.133,90.09503217333304
728.662,65.08845967052594
731.189,44.72338448785604
733.714,20.854478236759405
736.238,31.288832591964365
738.759,40.78596426399645
741.279,42.91496282880689
743.798,19.578305224086307
746.314,-8.892901183009599
748.829,-19.21510409955681
751.342,-19.057063239135914
753.853,-12.13508344458387
756.362,-1.260630706102802
758.869,18.659668942915232
761.375,19.95736386340559
763.879,-6.321631609005635
766.381,3.9639163211345476
768.882,-17.568485605758724
771.38,-9.967913742986639
773.877,32.76425928089657
776.372,46.293411517691766
778.866,32.570718655163546
781.357,53.071248591695166
783.847,30.079675058559587
786.335,29.356943623143707
788.821,42.37836626360422
791.306,58.61933499114184
793.789,61.317225948464966
796.27,103.42377969873087
798.749,114.4622434192438
801.227,128.67022738087053
803.702,122.90446618936448
806.176,139.4027228838222
808.649,102.35521684467085
811.119,97.90462313022954
813.588,82.19369086089273
816.055,93.74619493664386
818.521,85.32407823076437
820.984,74.5464985454405
823.446,43.31839937689847
825.906,23.116223537685528
828.365,55.79743630275152
830.821,81.8862390317313
833.276,71.66880660074457
835.729,43.002810548480284
838.181,11.745989841328537
840.631,-2.434325980527319
843.079,9.986401581064456
845.525,31.53277646163997
847.97,24.777086418298495
850.412,29.10120712816388
852.854,8.17279200113444
855.293,18.65955723072875
857.731,16.705471606840092
860.167,13.121232042775773
862.601,14.669977197531352
865.034,42.543477288554186
867.465,38.743085809250715
869.894,50.17497696079408
872.321,35.888240226784546
874.747,-7.591786956851138
877.171,-22.02542462719248
879.594,19.255634756528707
882.014,30.443562974980523
884.433,27.968678023683424
886.851,22.404202278431057
889.266,10.990068279767456
891.68,9.013867374603251
894.092,63.14417931021035
896.503,83.76390182822661
898.912,100.11310406816892
901.319,105.24140378047969
903.724,110.38891596814938
906.128,91.31958248071624
908.53,87.74973970350675
910.931,96.15763862782705
913.329,107.54534587353419
915.726,93.58159709256142
918.122,103.74465037243999
920.516,90.17942535411157
922.908,82.0784518735436
925.298,75.15805669858673
927.687,83.27740740868012
930.074,103.48612770313594
932.459,135.59572223322084
934.843,167.84623952948778
937.225,148.6681730243372
939.605,113.0157906460231
941.984,86.70046441265049
944.361,81.10495240712862
946.736,81.56434741878365
949.11,103.84226368021336
951.482,99.8451188422332
953.853,107.47927309168563
956.222,69.60340636448245
958.589,43.59994317770179
960.954,11.041715556928011
963.318,18.501483106440674
965.68,48.69478641274986
968.041,58.33708729069804
970.4,34.57233946593624
972.757,20.877749733578867
975.113,-10.650508502179719
977.467,-32.96396264083751
979.819,-11.490410943061761
982.17,-2.2767794628673528
984.519,20.296588666529942
986.866,20.46830935158505
989.212,30.04833341145286
991.556,41.03699121060936
993.899,78.3392775033767
996.24,145.0981869505042
998.579,158.4566210643186
1000.92,127.46215229673135
1003.25,85.01940717486991
1005.59,72.36625896051714
1007.92,52.502401261925115
1010.25,72.04649307420664
1012.58,79.52187524829196
1014.91,79.49942981702816
1017.24,57.07377265461673
1019.56,61.8632556598634
1021.88,63.248064177518245
1024.2,72.41783822914749
1026.52,96.3240556487583
1028.84,103.34670093271734
1031.16,122.1037912325155
1033.48,138.78471187134573
1035.79,175.53117090829437
1038.1,195.05624894063521
1040.41,189.26344890611404
1042.72,184.72288874238689
1045.03,174.62368452263695
1047.33,156.39300025786383
1049.64,153.5531929372687
1051.94,141.15038614006085
1054.24,132.37351983774602
1056.54,152.26863829164995
1058.84,163.64365414091208
1061.13,151.83025534762828
1063.43,162.39819309437462
1065.72,153.96480777696684
1068.01,164.95693594959994
1070.3,181.0394839366595
1072.59,200.06781096833402
1074.87,190.18296945908673
1077.16,190.85932623850863
1079.44,199.71408854407468
1081.72,231.41206810913764
1084.0,254.4752071556852
1086.28,301.4730567680515
1088.56,361.7370647904406
1090.84,410.1224827720539
1093.11,471.532177674128
1095.38,496.4880626245813
1097.65,488.98824195838347
1099.92,450.26891816268585
1102.19,399.89963215528314
1104.46,335.4023130868877
1106.72,299.67985195292704
1108.98,289.7780085386762
1111.24,291.2187469358164
1113.5,345.23833296376347
1115.76,386.4540030195649
1118.02,409.816347213515
1120.28,422.51407345714915
1122.53,406.4025810750486
1124.78,340.3849153690235
1127.03,339.69748408706687
1129.28,316.671964368491
1131.53,276.54482873668417
1133.77,235.60020442520613
1136.02,196.16987556102254
1138.26,166.9189996334544
1140.5,164.3699192012159
1142.74,200.28311645659983
1144.98,214.70483445633295
1147.22,225.39565073337826
1149.45,223.06857471826402
1151.69,225.62714516041092
1153.92,202.8320989780309
1156.15,177.49184963183438
1158.38,167.12915597492452
1160.61,142.64779110270274
1162.83,89.99921120276849
1165.06,65.42065297624504
1167.28,57.149421535300235
1169.5,22.660987824473978
1171.72,73.00232413724098
1173.94,73.07762058495541
1176.16,65.98162292619213
1178.37,60.28535134846902
1180.58,37.22658115473314
1182.8,8.328894878418168
1185.01,32.40168677944757
1187.22,7.016357816429036
1189.42,0.9348924333744435
1191.63,-11.604421796439738
1193.84,-22.60127380206336
1196.04,-33.72189426316436
1198.24,-2.0609554335094344
1200.44,18.38224084968124
1202.64,28.27519043433108
1204.84,18.190280574237477
1207.03,13.223836030743087
1209.23,-8.527691968441786
1211.42,-6.7296320085160914
1213.61,5.857572661707991
1215.8,13.521218863575314
1217.99,28.02491180826746
1220.18,36.17999115104499
1222.36,54.4169570454942
1224.55,26.594991435861857
1226.73,7.240050777967099
1228.91,0.7353397124866206
1231.09,-4.345358118898048
1233.27,-11.047206400216965
1235.44,9.346633797070808
1237.62,-4.399284587805369
1239.79,3.8130156461556908
1241.96,20.55778906995897
1244.13,28.695086949777078
1246.3,33.989800764361235
1248.47,47.349753341507494
1250.64,47.73045666118446
1252.8,50.18272680152381
1254.96,72.70982269432807
1257.13,90.45791821391799
1259.29,114.33514569455133
1261.44,147.82111563831245
1263.6,151.3002459468173
1265.76,154.25223401005906
1267.91,145.58538593810567
1270.06,121.82708864994379
1272.22,104.45713910517111
1274.37,93.14583544045968
1276.51,70.56349667743802
1278.66,68.38045862105196
1280.81,28.076593567450573
1282.95,34.750830011874314
1285.09,30.83543426129995
1287.23,42.38172061851492
1289.37,66.25052347095357
1291.51,78.11219318906296
1293.65,71.3037348818043
1295.78,58.68594715216227
1297.92,55.881513233601254
1300.05,47.46547307890728
1302.18,60.29855259188389
1304.31,68.14620714475973
1306.44,90.9167127146493
1308.57,80.04211416286626
1310.69,128.9544116094762
1312.82,149.60936585546756
1314.94,171.7722085668322
1317.06,183.20811436340182
1319.18,176.34886338388583
1321.3,170.86426575566634
1323.41,199.23358606459874
1325.53,200.36458687243226
1327.64,221.9744769961344
1329.75,233.73276454911684
1331.87,202.07077664913413
1333.98,181.94356007855617
1336.08,162.97273432559655
1338.19,127.77982081601999
1340.3,145.843381668652
1342.4,139.6894917842344
1344.5,114.4631633152278
1346.6,82.16643680228503
1348.7,63.22980564405498
1350.8,40.46459294793817
1352.9,45.06294742846558
1354.99,21.454982162818624
1357.09,15.784960965401979
1359.18,18.482722857652334
1361.27,46.073201775948974
1363.36,55.414519297788274
1365.45,78.98369826619864
1367.54,89.92428117605596
1369.62,116.90347236992238
1371.7,158.11213737674439
1373.79,198.0743260600707
1375.87,209.0282243377144
1377.95,206.59282018710996
1380.03,186.67266488877772
1382.1,170.31501522216035
1384.18,166.2336423281247
1386.25,154.1421643809906
1388.33,146.18261735579676
1390.4,117.68735912890543
1392.47,84.17906881669819
1394.54,50.608841352365744
1396.6,52.11809158651067
1398.67,27.371886959176663
1400.74,21.273232552829313
1402.8,13.963070431050937
1404.86,8.820278977238331
1406.92,20.604529376158098
1408.98,32.45628635574599
1411.04,23.658714586635597
1413.09,10.542442224541219
1415.15,11.104610166930115
1417.2,8.96125464302645
1419.25,26.966357534712415
1421.3,17.688040673495152
1423.35,38.64666580602807
1425.4,10.600553607248003
1427.45,20.26027412208714
1429.49,13.669603873849837
1431.54,12.729341181590826
1433.58,13.53064528700952
1435.62,17.926470719450663
1437.66,7.150620708516499
1439.7,40.103467263344555
1441.74,56.59005220426684
1443.77,62.12961748809562
1445.81,93.28894505721178
1447.84,87.25379192674973
1449.87,122.97175384321054
1451.9,133.62846227640125
1453.93,128.8380671256673
1455.96,121.64324323564392
1457.98,115.51519691200428
1460.01,93.54414862768976
1462.03,118.77267287199106
1464.05,141.338561809157
1466.07,173.80816512747356
1468.09,232.4144917931094
1470.11,267.2000737087217
1472.13,289.68363889587044
1474.14,322.3839275345715
1476.16,357.4863651457156
1478.17,358.9859262496734
1480.18,362.06809326299776
1482.19,332.91838682369917
1484.2,286.9128484974708
1486.21,233.04661872200677
1488.21,185.98156237037324
1490.22,139.23675145723223
1492.22,135.99799546411646
1494.22,114.4035621408973
1496.22,92.8298983072525
1498.22,73.51068398746725
1500.22,57.67969606904785
1502.22,38.380338627999436
1504.21,50.41803039696538
1506.21,39.312592233365876
1508.2,6.012539349442022
1510.19,-11.485864552940484
1512.18,-31.99574362367798
1514.17,-43.758650359998455
1516.16,-18.968369213527012
1518.14,-0.2947237145897361
1520.13,11.021182893920695
1522.11,17.071724993653106
1524.09,16.04465475475763
1526.07,23.461193881661984
1528.05,36.60460154931798
1530.03,50.42493281563975
1532.01,52.2057017958482
1533.98,24.897211503476456
1535.96,40.35464559613729
1537.93,42.8618744070061
1539.9,58.607641928684416
1541.87,75.11413374944527
1543.84,84.95125927518916
1545.81,61.73664823711624
1547.78,91.37374243748945
1549.74,115.48036368587441
1551.7,156.34109125919167
1553.67,168.2405917427186
1555.63,164.98742506156873
1557.59,145.19975527406882
1559.55,153.73391850799317
1561.5,159.1606099444241
1563.46,144.95535651589307
1565.41,117.11756103310017
1567.37,102.83716535924282
1569.32,102.44702787006827
1571.27,121.51815805677802
1573.22,104.57399874797693
1575.17,78.32851785543676
1577.11,59.400490596045756
1579.06,73.21825790423713
1581.0,68.44829436822624
1582.95,65.1856809281544
1584.89,51.287434717085716
1586.83,45.89631509248102
1588.77,60.48843919148294
1590.7,84.44470701000614
1592.64,70.43175029135591
1594.58,46.78288141484836
1596.51,30.117137522521944
1598.44,34.934515122039556
