Raman Shift,Processed Intensity
331.095,110.13779740547989
333.909,99.30092255470663
336.721,57.1637336370427
339.531,4.7262416659254995
342.339,-38.24961555644313
345.145,-23.382819568457762
347.949,-14.530403092782763
350.751,22.212556986349682
353.55,25.989134744235344
356.348,62.65674887873138
359.144,89.93002303996627
361.937,83.47602711242644
364.729,62.390470877995085
367.518,47.57865958374532
370.306,71.04121141449923
373.091,161.06453687014482
375.874,245.26846100010425
378.656,262.6538456377871
381.435,226.8883068731384
384.212,170.49669442995128
386.988,98.33728532889018
389.761,50.64940612193914
392.532,47.91057893638845
395.301,43.7412865664337
398.068,40.3335470885836
400.833,38.21282181040897
403.596,0.5713517907111054
406.358,-22.350886592686038
409.117,-21.885226075147784
411.874,-27.648590971087742
414.629,-25.16254408327086
417.382,-4.99614563256273
420.133,43.043565556128215
422.882,72.10204032821048
425.629,69.3724488191474
428.374,90.90520017883864
431.117,120.7507956293457
433.858,152.19791961784358
436.597,170.8686738267238
439.334,158.57571594560522
442.069,114.17939844333887
444.802,98.87347876858212
447.533,124.70892478845872
450.262,160.30819641770222
452.989,187.48428915256136
455.714,231.71692046185353
458.438,225.0096685589633
461.159,192.41377784051565
463.878,201.88529765836665
466.595,202.9041258535035
469.31,191.7597189566095
472.024,184.88442143624843
474.735,179.7106044708612
477.444,159.52780472075392
480.152,166.57795833818545
482.857,177.62682545364123
485.561,167.10684323354417
488.262,153.02188369986425
490.962,172.37582107352955
493.659,169.83919435593634
496.355,178.36825086283943
499.048,178.01446594872004
501.74,194.97215796925184
504.43,207.43562705329168
507.118,224.17057958915666
509.804,254.18079080614052
512.488,264.8509578322255
515.17,267.56574322798224
517.85,304.4716756633288
520.528,318.8104791657215
523.204,349.06192617785973
525.878,356.8962144249208
528.551,327.50729616274157
531.221,329.0414455212367
533.89,340.26392108592245
536.556,363.13039038419583
539.221,388.35835437160904
541.883,378.95095287051936
544.544,352.2921985801727
547.203,364.67078251535986
549.86,400.1372127784052
552.515,443.69428666449494
555.168,440.10661038604576
557.819,440.852975939943
560.469,439.31683321288074
563.116,451.64342875336115
565.761,475.97789692465085
568.405,480.32239867678527
571.047,448.6789746042841
573.687,396.95430276577144
576.324,358.7215993607356
578.96,333.03013845391024
581.594,313.9290574139395
584.227,297.08640044729054
586.857,307.6462573702447
589.485,276.65733095232554
592.112,230.3586471168701
594.737,212.56050323683166
597.359,155.1206545258142
599.98,107.182405191018
602.599,93.46031863379858
605.216,97.85926098356822
607.831,84.23630177454925
610.445,76.73404319395104
613.056,67.39966361586266
615.666,49.851580182767975
618.274,52.231825672773084
620.88,97.11080631921504
623.484,106.8206361326379
626.086,86.40752410793357
628.686,102.58416143148224
631.284,115.92020392639597
633.881,118.55656402155864
636.476,119.53875033971644
639.068,134.57877871413848
641.659,112.57898796717564
644.249,110.53680806978628
646.836,118.73524258676161
649.421,98.60001778862988
652.005,70.31863652546735
654.587,58.459432100696176
657.166,27.352526906804542
659.745,18.518410108674743
662.321,11.28699151739329
664.895,17.27379832120323
667.468,15.475221304574916
670.038,14.459000314525383
672.607,7.745187652808909
675.174,24.472827308894466
677.739,39.876159453636774
680.303,34.903682861361176
682.864,45.694360189098916
685.424,30.482394684392602
687.982,-6.069421678332674
690.538,-20.15540768044093
693.092,-13.731739960808682
695.645,-8.564057883052556
698.195,5.0582628074298555
700.744,-4.201688907389325
703.291,-31.871206705099667
705.836,-47.47748097644944
708.38,-9.64282758940817
710.921,29.820079943031033
713.461,39.5272587829827
715.999,65.76151172611753
718.535,68.52004596962206
721.069,41.18113949920553
723.602,59.26604557134124
726.133,46.10565910027253
728.662,37.45956399739998
731.189,33.754128129716264
733.714,53.74916970681852
736.238,21.10938557267218
738.759,17.832922354526545
741.279,27.72756665944962
743.798,70.31550669942817
746.314,79.40476058314471
748.829,105.13679508393352
751.342,69.55795393156086
753.853,32.524219437331794
756.362,-7.63212111889834
758.869,-1.6739043398006288
761.375,-14.935281466422566
763.879,3.1544710537073115
766.381,31.832855284188554
768.882,46.908911140508735
771.38,41.0013090641437
773.877,62.06215698236247
776.372,92.71033107756648
778.866,101.51718750899772
781.357,117.19703603922653
783.847,110.84523270824457
786.335,110.36674869803846
788.821,89.52378681621167
791.306,108.12625512246768
793.789,83.31747865032503
796.27,95.33610160502349
798.749,109.80179908523542
801.227,141.7628935666794
803.702,132.45825710001736
806.176,145.88873731827198
808.649,130.57905963474832
811.119,118.95877705999737
813.588,108.36226763782906
816.055,119.31444616703857
818.521,117.91171401836209
820.984,104.72671847524953
823.446,117.42739778892064
825.906,115.96745480485151
828.365,131.06254487497063
830.821,132.33313043652925
833.276,114.92352606715303
835.729,58.454276873231265
838.181,62.64120354497072
840.631,66.10492360192848
843.079,77.13275359091949
845.525,69.20251604583109
847.97,71.2682512093379
850.412,57.61735732605848
852.854,79.06106426903852
855.293,68.12490716623142
857.731,51.42967621745356
860.167,16.453318892298284
862.601,6.007127842328828
865.034,20.902405003750573
867.465,47.14093522389567
869.894,33.96260334685985
872.321,18.22634463247823
874.747,27.64823803243189
877.171,43.32531375207964
879.594,38.926027478952165
882.014,36.595020325533824
884.433,28.524545438710902
886.851,38.19256127589233
889.266,94.50558678588823
891.68,118.51298516121597
894.092,60.83553330469658
896.503,26.236848438911693
898.912,9.290052810892576
901.319,40.13967649205415
903.724,84.31117922574094
906.128,104.47285415698752
908.53,71.62630299085413
910.931,63.20167305552877
913.329,68.96241817495138
915.726,101.14815477953607
918.122,84.474660874042
920.516,78.18149405305576
922.908,61.079609516480105
925.298,91.97993046597958
927.687,142.59810897761008
930.074,178.03071544588192
932.459,149.56476136115043
934.843,128.6776982774868
937.225,122.89455963768978
939.605,116.69272164591484
941.984,121.78761652126104
944.361,104.89463622754647
946.736,67.68151239356484
949.11,53.339743852393894
951.482,50.060786085463405
953.853,41.13128828567051
956.222,53.02833042049224
958.589,43.371803152246684
960.954,37.49583537738681
963.318,38.40117414676388
965.68,14.8028026811171
968.041,27.891844100861363
970.4,31.716512774915827
972.757,1.420210025119104
975.113,-20.234665883655907
977.467,-25.533385943854228
979.819,-29.189842171398368
982.17,13.272498412810364
984.519,25.615827446515596
986.866,19.364178003853795
989.212,35.231989689676084
991.556,79.45743821068618
993.899,115.18338596751983
996.24,121.02880883729222
998.579,89.8983181942449
1000.92,38.83930197800055
1003.25,14.089541952307172
1005.59,5.172450011391447
1007.92,24.373256867268083
1010.25,40.54853554317651
1012.58,64.03096351408567
1014.91,75.72456354304268
1017.24,98.72375404132663
1019.56,95.50382800003149
1021.88,95.68286049306857
1024.2,116.1169495135116
1026.52,118.85259966707576
1028.84,135.46005824655458
1031.16,136.74760368720672
1033.48,136.5234530697644
1035.79,152.45290771867872
1038.1,176.82026070511984
1040.41,195.67165673093814
1042.72,193.52938058403902
1045.03,169.10614559376654
1047.33,152.82890589580393
1049.64,143.17219250660787
1051.94,155.80097320735877
1054.24,178.52303623744
1056.54,185.431850178398
1058.84,185.8589476474233
1061.13,182.0882137527417
1063.43,164.49874597757116
1065.72,194.6124759688471
1068.01,200.09417227832228
1070.3,195.7038240560505
1072.59,206.1061676010138
1074.87,210.96592719746013
1077.16,209.1382940464864
1079.44,256.7641671023689
1081.72,278.127298670807
1084.0,302.4162019119233
1086.28,340.05748691469876
1088.56,371.7634824856914
1090.84,416.5322388901386
1093.11,463.409435354964
1095.38,492.0598113813146
1097.65,498.00526472375896
1099.92,426.95818746472605
1102.19,359.2024211365581
1104.46,310.4504023197619
1106.72,295.414593955544
1108.98,314.09320237262864
1111.24,332.91303717121787
1113.5,346.1580853926723
1115.76,359.6361809272805
1118.02,368.91710249346283
1120.28,384.23733828363584
1122.53,375.9286601338965
1124.78,313.18003102703847
1127.03,292.7995125955647
1129.28,279.21426786280426
1131.53,261.0419925554504
1133.77,254.0909178446766
1136.02,229.16933689676694
1138.26,166.89513142375063
1140.5,159.7910125197409
1142.74,183.37976149727933
1144.98,209.27947072368056
1147.22,236.63211779070048
1149.45,210.57975873182613
1151.69,160.3121498109897
1153.92,147.25722645414498
1156.15,153.84301075226836
1158.38,161.49761420245545
1160.61,158.45876425854453
1162.83,128.15475945316712
1165.06,98.06161499598784
1167.28,87.84592265766241
1169.5,76.55532970141144
1171.72,67.76139876697539
1173.94,61.035801087900836
1176.16,78.997938280256
1178.37,72.12446889324679
1180.58,38.98740638841559
1182.8,13.682693309311162
1185.01,-9.0745578821668
1187.22,-22.473871588474367
1189.42,-13.228452563270366
1191.63,-20.860897030086107
1193.84,-34.13176339710117
1196.04,-21.89671581544394
1198.24,0.8458538084637439
1200.44,8.859580951910402
1202.64,10.24154790613079
1204.84,8.803227103562222
1207.03,22.403806298106474
1209.23,15.950181449340107
1211.42,21.82552192887829
1213.61,3.2702166791084437
1215.8,19.477106086218555
1217.99,20.25814242464685
1220.18,31.37771730327654
1222.36,24.314560540193725
1224.55,15.071258085068848
1226.73,18.317103274865076
1228.91,36.86428142288696
1231.09,17.191674962610023
1233.27,11.968668591511914
1235.44,39.10276393871368
1237.62,37.83481328024436
1239.79,43.977111603794356
1241.96,42.29434581632131
1244.13,19.40835347547477
1246.3,15.750500568632106
1248.47,41.75215453003125
1250.64,50.463728686471995
1252.8,78.55468066814024
1254.96,109.17065367658643
1257.13,110.07633203840987
1259.29,117.2744872351384
1261.44,125.19645250453345
1263.6,132.3211688704689
1265.76,168.41327879185383
1267.91,158.18979124012753
1270.06,143.17722296723082
1272.22,130.71159691642993
1274.37,118.89082158553447
1276.51,95.76516562819961
1278.66,100.33725626476257
1280.81,81.18112531211318
1282.95,88.15649330881365
1285.09,82.837339354498
1287.23,69.22618523498954
1289.37,56.658855737889326
1291.51,57.090191349120914
1293.65,49.903570473281206
1295.78,56.76805070161072
1297.92,72.73360531806088
1300.05,53.7073121863134
1302.18,81.73906644631825
1304.31,85.73586463940728
1306.44,116.08085073816164
1308.57,130.87140979533797
1310.69,141.30011873564445
1312.82,138.03569714752211
1314.94,155.69919617015967
1317.06,145.67352071384175
1319.18,183.96057072791768
1321.3,199.895525325913
1323.41,178.00398405349415
1325.53,180.33529863262606
1327.64,180.27209518192603
1329.75,167.9112250084413
1331.87,193.68281063752033
1333.98,214.73119660459315
1336.08,215.34351929456807
1338.19,211.99732440027856
1340.3,196.4558034285476
1342.4,156.386839730073
1344.5,128.6487211959718
1346.6,107.19490057337975
1348.7,118.35970816200279
1350.8,93.42977879638124
1352.9,77.54881216148101
1354.99,70.71757120353004
1357.09,81.88911863608882
1359.18,109.96881535088278
1361.27,121.00479501912878
1363.36,95.75939107380759
1365.45,111.66151607289476
1367.54,116.28285058640358
1369.62,144.67117494056674
1371.7,198.0646533429715
1373.79,204.7965941981679
1375.87,220.05735328041715
1377.95,233.75147500168123
1380.03,209.92626225104163
1382.1,180.91463194840526
1384.18,182.09701821725457
1386.25,158.66327555740054
1388.33,144.51743916058535
1390.4,135.61105665466403
1392.47,113.13366270492156
1394.54,79.70325361539358
1396.6,71.03295240637794
1398.67,66.74053103480082
1400.74,57.205551662197195
1402.8,62.18841268460392
1404.86,25.973204286255623
1406.92,9.605802088522069
1408.98,-14.34422967733849
1411.04,-3.688398989546613
1413.09,11.856906547182234
1415.15,35.19422973262499
1417.2,55.79742482876031
1419.25,70.42594462876832
1421.3,73.2677024844968
1423.35,52.224791476785185
1425.4,46.24682263340878
1427.45,46.14045362320576
1429.49,64.28367935497499
1431.54,71.72107495731825
1433.58,100.44951494896645
1435.62,67.2277019329074
1437.66,47.76664767147281
1439.7,52.25348749475529
1441.74,86.16100899473645
1443.77,112.00956167180402
1445.81,141.2242046764984
1447.84,97.84899740841274
1449.87,68.35652821032431
1451.9,91.64791925281088
1453.93,113.90997427600973
1455.96,153.61518347423225
1457.98,184.23601409486037
1460.01,169.19729627534025
1462.03,163.68575173732097
1464.05,166.26904629032128
1466.07,135.65769947824765
1468.09,156.03842279734772
1470.11,202.21698172367905
1472.13,266.0467720262968
1474.14,321.9050151280535
1476.16,334.6927629902116
1478.17,294.1206172827683
1480.18,278.56587712620785
1482.19,256.59635349991845
1484.2,237.4465646029862
1486.21,202.73202645308925
1488.21,150.40163872348694
1490.22,91.40435629429726
1492.22,52.64157508949393
1494.22,33.25285124723064
1496.22,37.615906004453336
1498.22,29.203773438654707
1500.22,16.44194820962798
1502.22,13.136961872649863
1504.21,-6.428374141672975
1506.21,-14.923535071364313
1508.2,-13.351230319419983
1510.19,-18.09501827924123
1512.18,-17.633589390248062
1514.17,7.983044651431555
1516.16,27.08593120572891
1518.14,24.006221814663377
1520.13,9.741836375999355
1522.11,0.7669844597544397
1524.09,11.508353291379763
1526.07,11.202248115894918
1528.05,9.799351687016951
1530.03,6.917102803904982
1532.01,7.1254081812408
1533.98,28.42283050978358
1535.96,36.950871755015896
1537.93,32.9939707415067
1539.9,22.74140549917388
1541.87,32.43014799050434
1543.84,44.630575980628464
1545.81,53.72266109787529
1547.78,45.03882356099052
1549.74,60.197263096832785
1551.7,84.10195652473703
1553.67,125.56170295992206
1555.63,122.71869282642069
1557.59,106.61993401287077
1559.55,79.45534469496738
1561.5,69.70060806267884
1563.46,74.16478895223054
1565.41,89.79985523998812
1567.37,84.89115161729546
1569.32,72.676444793884
1571.27,61.822111558422876
1573.22,73.32789826764065
1575.17,64.1459660497269
1577.11,59.704697912497295
1579.06,40.62298204203307
1581.0,14.091161767988979
1582.95,13.728176005086652
1584.89,38.43869969461139
1586.83,47.7464747220979
1588.77,58.9371646445411
1590.7,31.772637989039822
1592.64,16.633822980005107
1594.58,3.9492765520817557
1596.51,4.1237533630708185
1598.44,24.15725099731594
