Raman Shift,Processed Intensity
331.095,114.44457016748675
333.909,2.743978844100184
336.721,-40.77965497628338
339.531,-39.292986527292214
342.339,-28.27217198601602
345.145,-9.502861182603283
347.949,-3.6992419187927226
350.751,-12.051655715002198
353.55,-14.178975462183189
356.348,31.53806454539017
359.144,43.81401476779638
361.937,20.88728514857121
364.729,-5.575089679989105
367.518,10.141600522744284
370.306,48.89498300150808
373.091,141.6379862580584
375.874,225.89503382788916
378.656,286.3810951998271
381.435,251.7159748308418
384.212,170.6147916370569
386.988,77.45941086570929
389.761,33.67939977663491
392.532,-5.295588104827857
395.301,-4.607238258740836
398.068,-18.82571472718473
400.833,-31.9496573567194
403.596,-11.263322372425591
406.358,6.330084563579476
409.117,-18.643975848751325
411.874,-19.6123333739979
414.629,-24.573159653282346
417.382,0.42783548917441294
420.133,18.01168176868987
422.882,42.65661388523722
425.629,29.17425130009451
428.374,40.23339893232196
431.117,79.07432404570636
433.858,145.41351232922898
436.597,176.15795186200376
439.334,200.21465517345587
442.069,171.34780035111726
444.802,121.17872929127134
447.533,120.7097554734205
450.262,134.41940030617843
452.989,144.1671532826881
455.714,168.7648988027131
458.438,208.88167632806017
461.159,196.56748815705578
463.878,181.82472624662887
466.595,178.79864665344758
469.31,188.5868915940996
472.024,166.2394876957469
474.735,176.33027281820932
477.444,160.9568943046056
480.152,159.7884262796333
482.857,154.35108218592586
485.561,166.40916541565912
488.262,157.20316279929148
490.962,158.2592666657415
493.659,180.43699214065282
496.355,196.35774682561032
499.048,162.69054333450913
501.74,163.6281880204001
504.43,183.0777554166143
507.118,208.23201505885072
509.804,244.61704878345245
512.488,290.8541537399692
515.17,321.13603111801604
517.85,382.03630820745593
520.528,400.31906045860205
523.204,415.3673811614499
525.878,380.85004636301073
528.551,348.10246549893964
531.221,328.6981082156258
533.89,337.73421690658506
536.556,337.1175192488431
539.221,362.2308931202774
541.883,384.07622199314847
544.544,400.98867889905523
547.203,440.35101039390975
549.86,441.7363919514851
552.515,456.5750928807756
555.168,459.6306650528809
557.819,472.666607818363
560.469,490.7320805436534
563.116,501.63809133793393
565.761,474.4336857800181
568.405,465.7392785023785
571.047,452.50855620374705
573.687,443.7427616140967
576.324,443.20497745961484
578.96,408.51536280863365
581.594,366.4368656080369
584.227,330.7323637910972
586.857,295.2122825757874
589.485,252.16316414404173
592.112,248.82385636863228
594.737,235.29027296862205
597.359,222.75348699814504
599.98,220.54734814471476
602.599,176.81514764658823
605.216,115.74771178155788
607.831,107.25006678430645
610.445,95.46524662091952
613.056,90.82191028719626
615.666,83.84386386887581
618.274,81.00720164948234
620.88,102.31173293244774
623.484,110.3762183870549
626.086,107.20027306104566
628.686,107.78341225037411
631.284,106.26790689275867
633.881,122.41497229458264
636.476,189.31905209587921
639.068,226.93162604484405
641.659,259.2516844390143
644.249,203.27810732835133
646.836,147.62871038499497
649.421,70.68310029682061
652.005,27.86838730386353
654.587,13.37346916331353
657.166,34.81569606689163
659.745,31.764681276928968
662.321,59.885160788822304
664.895,53.603666002672526
667.468,25.822818625621494
670.038,13.302292240865427
672.607,-11.579273742377609
675.174,-4.490931567471307
677.739,-1.863700299244556
680.303,-8.319127945398577
682.864,-5.62166357277647
685.424,20.03563704948101
687.982,10.745404934953513
690.538,15.79072697203992
693.092,-2.40246593633492
695.645,4.591751171755277
698.195,-16.991171685893733
700.744,-2.3443477302971587
703.291,-16.470398858807584
705.836,-12.467164753550605
708.38,21.710397298286352
710.921,33.82164421773223
713.461,23.721201484446283
715.999,35.97801272521883
718.535,39.06581787391406
721.069,65.17267895044824
723.602,93.91526774453632
726.133,50.38648683276233
728.662,26.06023345280346
731.189,-14.065741384259582
733.714,6.101597646945265
736.238,42.36961977458532
738.759,62.02193344919215
741.279,50.342196425128805
743.798,37.61411631824967
746.314,15.740498782613486
748.829,36.38610521100418
751.342,30.739558054496683
753.853,33.08476995155115
756.362,22.32475380948472
758.869,31.648290028804695
761.375,39.95849848944681
763.879,48.349029584629534
766.381,43.91358858804142
768.882,40.317364782940786
771.38,30.082746305533874
773.877,63.54170165502819
776.372,73.50244691796524
778.866,60.20182727827614
781.357,66.01960328923496
783.847,58.81178476446439
786.335,70.19634562131478
788.821,77.60084348615737
791.306,85.07194406157532
793.789,86.27542168403488
796.27,101.59139797679609
798.749,125.25719955043405
801.227,172.2721204652762
803.702,162.44504183669096
806.176,170.06109905942185
808.649,154.9769204604836
811.119,129.90634214253168
813.588,130.22993235104514
816.055,139.04261107960656
818.521,107.58222205612947
820.984,93.84858091956676
823.446,51.032047206141215
825.906,46.22781062129752
828.365,60.34065350211995
830.821,89.18018947023347
833.276,110.31800684660448
835.729,83.7543358758644
838.181,43.584715950627924
840.631,55.8095199786726
843.079,57.33395494058868
845.525,67.44425292362894
847.97,89.76005263174648
850.412,50.99630470515285
852.854,21.868034182732572
855.293,26.852245821600718
857.731,32.47363894046566
860.167,10.637941310608312
862.601,4.4890525706705375
865.034,-8.971907596649999
867.465,-2.6485036688541186
869.894,11.555778178762012
872.321,20.54705352757992
874.747,-0.29229423878223315
877.171,-11.865519317483177
879.594,-12.837704583756022
882.014,24.126142520634858
884.433,53.93251669137544
886.851,67.29750681227915
889.266,86.84203086311118
891.68,77.42516606550817
894.092,56.38224093365898
896.503,71.95340351546201
898.912,71.42647534797197
901.319,76.32742446046359
903.724,111.46798123464168
906.128,119.80277807436232
908.53,124.23887002774063
910.931,117.1119220759224
913.329,99.90049165995015
915.726,105.79745406476559
918.122,104.75761827941142
920.516,121.25962857150716
922.908,158.44881844268593
925.298,141.85149315545868
927.687,142.75587892673684
930.074,134.87878640708095
932.459,117.9370360646958
934.843,116.21888356943919
937.225,111.39354041491106
939.605,88.22545644531965
941.984,102.47907857280825
944.361,107.87122854241397
946.736,125.97586164940094
949.11,107.9859683137447
951.482,65.95166613080073
953.853,34.589720493406276
956.222,30.378779499693792
958.589,28.32127552756583
960.954,30.18151728535804
963.318,8.723781862508531
965.68,-5.716259886443368
968.041,8.720834423096676
970.4,28.79922877388617
972.757,9.044948699862289
975.113,-0.6826921698907427
977.467,-23.33395128146003
979.819,-34.81151541510371
982.17,-4.160978062167487
984.519,11.619633056597195
986.866,-0.32491348272696996
989.212,15.150082047193337
991.556,33.04638655362487
993.899,43.651398690154565
996.24,71.53814352002018
998.579,75.75574336991667
1000.92,64.73417439808554
1003.25,55.14140411478911
1005.59,40.740528902781534
1007.92,21.913578204442274
1010.25,13.851985375580625
1012.58,30.223249015427427
1014.91,42.36140603174499
1017.24,57.219410892219
1019.56,46.03580059013393
1021.88,18.429931038628183
1024.2,2.7353087030310235
1026.52,32.14244604273972
1028.84,54.936956945169186
1031.16,83.83289054637817
1033.48,106.30606828000646
1035.79,109.21313521192951
1038.1,108.60108756539103
1040.41,144.18346691279794
1042.72,144.86417341512606
1045.03,147.54699334705128
1047.33,153.37369805063668
1049.64,128.4383333652106
1051.94,93.6919852477256
1054.24,100.08564063120025
1056.54,85.1892387593598
1058.84,101.47738918794516
1061.13,124.75794692887234
1063.43,142.21963521344128
1065.72,149.28919206507044
1068.01,151.9647073482172
1070.3,150.24419791254263
1072.59,161.17323035609434
1074.87,153.9877818837299
1077.16,185.780910689351
1079.44,183.26466443337813
1081.72,178.05579824403958
1084.0,223.91387367103425
1086.28,265.26507192492045
1088.56,335.2498166403043
1090.84,435.0561109247469
1093.11,477.30049345529346
1095.38,485.50423267023734
1097.65,449.0457114370861
1099.92,371.112811720521
1102.19,330.4172040122651
1104.46,292.43244628475827
1106.72,272.584463897213
1108.98,268.9658390254824
1111.24,257.0501000919271
1113.5,280.1679159571845
1115.76,326.2690043976538
1118.02,342.6840405829853
1120.28,368.45799412499105
1122.53,368.6834661265584
1124.78,347.5006928972284
1127.03,306.57374014496577
1129.28,252.0428876441199
1131.53,196.6198710462495
1133.77,166.73074273856628
1136.02,143.65873270238149
1138.26,126.21091889535523
1140.5,106.52775477660634
1142.74,116.0830730222965
1144.98,145.58885114597956
1147.22,159.51902473799942
1149.45,186.7285388001269
1151.69,214.12001812783092
1153.92,215.11996150207779
1156.15,175.20255492874685
1158.38,139.2230086875743
1160.61,83.08422771442315
1162.83,88.2130057930874
1165.06,107.94098165185187
1167.28,98.9332141076718
1169.5,62.71199530558624
1171.72,52.70447348194148
1173.94,36.14741858475645
1176.16,45.70627360837989
1178.37,37.046586880530185
1180.58,7.92925387314358
1182.8,8.448616156084881
1185.01,7.27056035085684
1187.22,17.394427419742215
1189.42,-6.466029562858694
1191.63,-11.93025832358353
1193.84,-39.617566180267204
1196.04,-37.623303321708136
1198.24,-27.423618784594055
1200.44,-18.113554224127483
1202.64,-13.692760949783633
1204.84,13.601160981807197
1207.03,15.625988390826933
1209.23,14.239627708973103
1211.42,2.5858214664929164
1213.61,0.9036658725167399
1215.8,15.67046316378378
1217.99,36.55409803001908
1220.18,50.60350937115595
1222.36,74.86773506097393
1224.55,64.11019480597724
1226.73,69.42773490903687
1228.91,45.01253017589147
1231.09,38.48541439307678
1233.27,39.84825842489795
1235.44,68.38872926279078
1237.62,64.72790621753211
1239.79,63.725039968604506
1241.96,55.85850208974671
1244.13,54.797210764987994
1246.3,63.54348507610371
1248.47,66.38542309959962
1250.64,71.61118476560341
1252.8,72.0804175738981
1254.96,109.50996802424675
1257.13,148.56911685623368
1259.29,171.45100476529433
1261.44,185.72977240446335
1263.6,178.40817657659022
1265.76,148.58425404561513
1267.91,141.64179487164893
1270.06,149.29795860319632
1272.22,135.84136665985898
1274.37,130.560670905518
1276.51,103.83978888817956
1278.66,92.5864724131568
1280.81,113.42278087815703
1282.95,131.39936413217652
1285.09,131.23355485820366
1287.23,105.83317524163863
1289.37,91.9155817339456
1291.51,79.10290029249563
1293.65,106.25535685850764
1295.78,118.85222688261001
1297.92,83.03945151706557
1300.05,70.15344428419144
1302.18,99.34013584001741
1304.31,111.74544730937328
1306.44,142.4676683828825
1308.57,170.12888303299837
1310.69,155.25591903956706
1312.82,170.70891656300932
1314.94,207.06227766988422
1317.06,216.31894919178808
1319.18,230.2913722509113
1321.3,263.6967174998981
1323.41,255.82354893311867
1325.53,239.0556305550963
1327.64,248.53859019178117
1329.75,240.5132499684978
1331.87,251.17276631169761
1333.98,250.329293760238
1336.08,224.17588687190369
1338.19,193.52459260611022
1340.3,187.66359032565947
1342.4,176.2143317984935
1344.5,164.70296691374006
1346.6,144.22700749299952
1348.7,133.69341967305377
1350.8,122.39004962191302
1352.9,136.9856206834313
1354.99,123.72020671239443
1357.09,118.54808636198959
1359.18,135.80440689508782
1361.27,135.205181328854
1363.36,156.37109510317237
1365.45,159.0655984633479
1367.54,147.33776074757975
1369.62,154.04607705538342
1371.7,181.85846539220688
1373.79,212.0617876235708
1375.87,249.1332751911175
1377.95,234.55005006675083
1380.03,240.83674094486946
1382.1,218.80357562508038
1384.18,217.4987591091974
1386.25,231.77989931728666
1388.33,210.64733756561532
1390.4,149.43462190175183
1392.47,127.61802805870843
1394.54,102.81655659956232
1396.6,89.22050149064444
1398.67,83.21049486520383
1400.74,44.78607559660168
1402.8,2.9942578715019863
1404.86,15.54857595353883
1406.92,44.924319423170346
1408.98,42.26329254631651
1411.04,45.27857525540753
1413.09,15.016426987581326
1415.15,11.142000046681915
1417.2,24.748862489075464
1419.25,42.40661779583252
1421.3,48.77995427246856
1423.35,42.00960170295684
1425.4,18.28376419422284
1427.45,26.838124449202724
1429.49,27.336800420859618
1431.54,38.7771133441704
1433.58,61.15626053001756
1435.62,60.18560720669916
1437.66,74.62402598048584
1439.7,100.42076010570077
1441.74,90.3344772309913
1443.77,108.17137076464041
1445.81,97.9756421922666
1447.84,86.26760244214665
1449.87,101.1865351552915
1451.9,110.10975043171243
1453.93,108.12878143383728
1455.96,119.04939051372753
1457.98,87.53443248315921
1460.01,85.43719407417734
1462.03,114.42044768536903
1464.05,123.33740989003763
1466.07,180.46984280151673
1468.09,210.67091734324868
1470.11,238.0795050902916
1472.13,258.0725653489292
1474.14,285.55086556960646
1476.16,295.84374937891675
1478.17,308.8043808020652
1480.18,300.47641705675915
1482.19,270.5225861089991
1484.2,235.31993089553634
1486.21,175.24552973680557
1488.21,117.24793103557386
1490.22,85.70430226130497
1492.22,59.75376941071249
1494.22,43.20218503974206
1496.22,58.56975343841032
1498.22,38.28151294850136
1500.22,18.71496113840658
1502.22,21.247679977970847
1504.21,-7.361705653334866
1506.21,-16.163998029670893
1508.2,-1.4956109277973155
1510.19,-9.978564256837899
1512.18,-17.234766094251427
1514.17,-22.505056778351445
1516.16,-10.887301650105883
1518.14,5.996942970867167
1520.13,37.6690947608829
1522.11,23.174494956246008
1524.09,13.082405536352326
1526.07,0.3907683115492091
1528.05,35.76429734433441
1530.03,38.96304756102472
1532.01,59.93765006947251
1533.98,59.44835700058343
1535.96,62.54122920698342
1537.93,58.262419199781334
1539.9,75.61054932342563
1541.87,63.15575659722367
1543.84,73.08730898544036
1545.81,84.88026928643512
1547.78,88.24787330751906
1549.74,76.61771756361554
1551.7,87.03651840449447
1553.67,106.7891568562859
1555.63,136.1129615582388
1557.59,154.7215155090014
1559.55,145.09036757480453
1561.5,119.504648759558
1563.46,106.0114503797015
1565.41,84.84839271524788
1567.37,80.58647937510818
1569.32,81.5586659481387
1571.27,86.05033341608146
1573.22,96.87071394746408
1575.17,81.97193573911954
1577.11,77.4966392862741
1579.06,78.06368889073406
1581.0,90.33959845478557
1582.95,96.03852870366086
1584.89,95.58895107467424
1586.83,72.99078779683441
1588.77,91.91064720855366
1590.7,84.96753526583348
1592.64,88.4471384790204
1594.58,76.73039256384664
1596.51,56.46014633055756
1598.44,27.80306366828222
