Raman Shift,Processed Intensity
331.095,26.81735876190485
333.909,28.578402333333273
336.721,17.724321333333233
339.531,5.381999095238099
342.339,19.39239514285717
345.145,31.001540428571445
347.949,27.741871142857143
350.751,18.289338571428573
353.55,-3.4413258095238373
356.348,-33.96324128571429
359.144,-32.503023523809524
361.937,-0.23873442857139793
364.729,33.84274980952386
367.518,67.4699925238096
370.306,106.22942085714297
373.091,188.89916190476205
375.874,243.06750000000017
378.656,310.56200952380965
381.435,301.7352714285715
384.212,218.9885952380953
386.988,102.34322190476192
389.761,33.15508857142857
392.532,-34.12387523809522
395.301,-18.99272666666665
398.068,4.717581904761921
400.833,23.70098380952381
403.596,2.605064761904754
406.358,3.602433333333331
409.117,-3.228219999999984
411.874,12.145358571428586
414.629,9.32809238095237
417.382,-4.692909523809536
420.133,-16.07224190476189
422.882,-5.34421904761901
425.629,53.148182857142956
428.374,129.3968823809525
431.117,208.10890380952395
433.858,238.03989047619058
436.597,243.51765714285725
439.334,194.6804761904763
442.069,166.85819047619057
444.802,143.66742857142867
447.533,148.72509523809532
450.262,161.03047619047632
452.989,193.77314285714297
455.714,216.3343047619049
458.438,191.61982857142866
461.159,155.7266095238096
463.878,111.41818095238101
466.595,87.79286666666674
469.31,81.42490476190483
472.024,107.6992190476191
474.735,102.19111428571436
477.444,103.09582380952388
480.152,116.08470476190485
482.857,136.49650000000008
485.561,152.05101904761918
488.262,170.37336666666673
490.962,173.5174476190477
493.659,140.6800571428572
496.355,117.7252571428572
499.048,101.94553809523816
501.74,97.49054285714294
504.43,113.32017619047627
507.118,139.48948571428582
509.804,144.5295000000001
512.488,167.40061904761916
515.17,159.15766666666676
517.85,142.42747619047628
520.528,126.78947619047625
523.204,108.91776190476199
525.878,117.1058000000001
528.551,141.21837142857152
531.221,124.50090952380958
533.89,109.7231285714286
536.556,71.36871904761907
539.221,40.397442857142906
541.883,39.721466666666686
544.544,51.9666428571429
547.203,61.378119047619116
549.86,94.77247619047628
552.515,137.0133761904763
555.168,150.34559047619055
557.819,150.7277523809525
560.469,160.0230761904763
563.116,150.04670476190483
565.761,150.42359047619058
568.405,162.7781047619048
571.047,120.87744285714292
573.687,126.39294285714294
576.324,118.56768571428577
578.96,124.69138095238105
581.594,142.00647619047626
584.227,140.23114761904768
586.857,113.36873809523817
589.485,126.3269952380953
592.112,98.01406666666672
594.737,118.19413809523817
597.359,114.77463333333337
599.98,100.04322857142863
602.599,94.76347142857148
605.216,77.1271666666667
607.831,78.23077333333342
610.445,81.40820904761908
613.056,74.61255619047623
615.666,74.6534766666667
618.274,76.19751809523814
620.88,63.768023333333396
623.484,85.98326857142862
626.086,101.36619047619055
628.686,113.9630952380953
631.284,139.53433809523818
633.881,153.17297142857154
636.476,160.78171428571437
639.068,150.07242857142865
641.659,143.85242857142862
644.249,132.92834285714295
646.836,121.39227619047624
649.421,103.38350000000005
652.005,79.13675238095242
654.587,35.98160000000002
657.166,22.43831428571433
659.745,49.264647619047665
662.321,60.74210952380957
664.895,68.91401904761908
667.468,45.39505714285715
670.038,15.275966666666685
672.607,3.1236285714285925
675.174,43.36181428571435
677.739,75.74786190476196
680.303,112.13410857142863
682.864,97.80149428571431
685.424,57.221417142857156
687.982,31.43653428571433
690.538,44.72772190476194
693.092,54.85220380952386
695.645,70.90037523809525
698.195,53.15316190476191
700.744,30.84393333333336
703.291,31.396476190476214
705.836,34.139590476190506
708.38,56.49728571428575
710.921,47.4174523809524
713.461,40.65758571428575
715.999,50.35630476190479
718.535,59.74753809523813
721.069,39.82722857142859
723.602,41.63911904761906
726.133,31.179309523809557
728.662,58.25390000000007
731.189,100.66883809523816
733.714,116.46843333333337
736.238,93.55426190476194
738.759,54.49476190476192
741.279,48.239157142857195
743.798,55.40405238095243
746.314,76.367580952381
748.829,78.50817142857149
751.342,93.01390000000005
753.853,77.26335238095244
756.362,106.9209571428572
758.869,112.17509047619053
761.375,95.73792857142861
763.879,67.60759047619051
766.381,55.972604761904805
768.882,59.54550476190484
771.38,91.03911428571435
773.877,103.68975238095243
776.372,106.30554761904767
778.866,99.36131428571436
781.357,107.37891904761912
783.847,121.92859047619054
786.335,131.96171428571438
788.821,102.04855238095243
791.306,89.14048571428577
793.789,78.66501904761911
796.27,104.19258095238102
798.749,106.76995714285721
801.227,128.5869333333334
803.702,115.02369047619055
806.176,127.98433333333341
808.649,136.37288095238105
811.119,169.0465238095239
813.588,172.62358095238105
816.055,166.7704857142858
818.521,132.01068571428578
820.984,138.2966571428572
823.446,134.86606666666677
825.906,140.7194380952382
828.365,150.42786666666674
830.821,128.61066666666673
833.276,103.45847619047628
835.729,128.63838095238106
838.181,152.5315714285715
840.631,164.56719047619058
843.079,169.36480952380958
845.525,157.1630476190477
847.97,141.67686666666674
850.412,131.19290476190483
852.854,110.47398571428576
855.293,87.9970428571429
857.731,62.47760476190479
860.167,55.48799047619052
862.601,60.88638571428575
865.034,86.15043619047624
867.465,75.04328857142862
869.894,74.61397238095242
872.321,78.91161619047624
874.747,90.74719619047627
877.171,100.97945047619055
879.594,123.22931238095242
882.014,99.73665714285721
884.433,95.3602095238096
886.851,111.86391428571437
889.266,134.86891428571437
891.68,141.99609523809534
894.092,143.7715238095239
896.503,159.8642380952382
898.912,164.41890476190486
901.319,179.5330000000001
903.724,160.8757857142858
906.128,159.59238095238106
908.53,150.35164285714296
910.931,163.44209523809533
913.329,160.00888095238105
915.726,157.0543333333334
918.122,143.1046857142858
920.516,135.73423333333338
922.908,123.85004761904769
925.298,104.83596666666674
927.687,96.12324761904767
930.074,108.76205238095247
932.459,131.8024095238096
934.843,120.96144761904768
937.225,116.95623809523815
939.605,92.59884761904767
941.984,96.08236190476198
944.361,110.5047190476191
946.736,106.05913809523814
949.11,99.03402380952386
951.482,78.6226666666667
953.853,62.494176190476246
956.222,69.79407619047623
958.589,91.85840952380958
960.954,100.83250952380958
963.318,117.81417142857148
965.68,99.85357619047625
968.041,88.47709523809529
970.4,78.21116666666671
972.757,71.77250000000004
975.113,64.06817619047624
977.467,77.10061904761909
979.819,54.39598571428574
982.17,51.57564761904766
984.519,46.68944761904764
986.866,28.834838095238123
989.212,16.633023809523834
991.556,51.13359523809528
993.899,69.86250476190482
996.24,98.63124761904768
998.579,107.34645238095243
1000.92,101.96228571428574
1003.25,61.38514761904764
1005.59,49.90219523809527
1007.92,48.56268571428574
1010.25,47.08219047619051
1012.58,49.70006666666671
1014.91,60.36980952380955
1017.24,62.13996190476194
1019.56,50.63046190476193
1021.88,49.55631904761908
1024.2,44.060938095238136
1026.52,55.57334761904768
1028.84,74.23688571428579
1031.16,110.57521904761913
1033.48,128.77922857142866
1035.79,156.3723142857144
1038.1,176.06861904761914
1040.41,206.53480952380966
1042.72,202.58004761904772
1045.03,198.10814285714298
1047.33,184.4522380952382
1049.64,153.37314285714294
1051.94,147.58433333333343
1054.24,160.98966666666675
1056.54,142.7787142857144
1058.84,137.759761904762
1061.13,152.4078571428572
1063.43,163.86447619047632
1065.72,182.1760000000001
1068.01,198.2930476190477
1070.3,175.8812380952382
1072.59,148.70090476190484
1074.87,134.9405714285715
1077.16,138.07457142857152
1079.44,149.1965238095239
1081.72,180.92347619047632
1084.0,209.82523809523826
1086.28,266.1857619047621
1088.56,356.7170000000003
1090.84,434.9406190476193
1093.11,508.28314285714316
1095.38,515.7428095238098
1097.65,481.2696666666669
1099.92,409.62376190476203
1102.19,353.0406190476192
1104.46,293.9465714285716
1106.72,277.4346190476192
1108.98,265.74080952380973
1111.24,308.8627142857145
1113.5,351.7506190476193
1115.76,388.2591428571431
1118.02,413.19557142857167
1120.28,440.65295238095257
1122.53,418.5336666666669
1124.78,362.16919047619064
1127.03,298.6047142857144
1129.28,223.40938095238107
1131.53,190.39023809523826
1133.77,197.06904761904772
1136.02,186.63400000000007
1138.26,157.89261904761912
1140.5,146.1762857142858
1142.74,152.3875238095239
1144.98,167.28614285714298
1147.22,180.63209523809536
1149.45,186.23309523809533
1151.69,172.372761904762
1153.92,157.90658095238106
1156.15,145.35630476190482
1158.38,108.81556190476196
1160.61,83.90162857142862
1162.83,74.99403333333338
1165.06,66.66258571428577
1167.28,66.572480952381
1169.5,65.62708571428576
1171.72,55.30131428571431
1173.94,55.21293809523813
1176.16,53.50367714285717
1178.37,37.64869380952383
1180.58,29.599416190476212
1182.8,31.545434761904787
1185.01,41.05745428571433
1187.22,56.42048428571431
1189.42,54.919699047619055
1191.63,23.554652857142866
1193.84,10.84881047619049
1196.04,14.325756666666694
1198.24,30.1282485714286
1200.44,39.3038623809524
1202.64,42.043183809523825
1204.84,21.060704761904766
1207.03,9.59481904761906
1209.23,10.884057142857154
1211.42,16.928947619047634
1213.61,17.68249047619049
1215.8,30.24062380952383
1217.99,34.08037142857145
1220.18,46.440666666666694
1222.36,50.08442380952383
1224.55,44.86979990476191
1226.73,26.797897285714292
1228.91,5.965085523809526
1231.09,-4.198833952380941
1233.27,6.212105523809537
1235.44,14.389680142857163
1237.62,24.906651809523837
1239.79,67.71687333333338
1241.96,77.774080952381
1244.13,82.5083190476191
1246.3,77.7782428571429
1248.47,84.96639047619055
1250.64,84.93146190476199
1252.8,136.43730476190487
1254.96,147.5328095238096
1257.13,156.98165714285724
1259.29,152.5952857142858
1261.44,157.0420476190477
1263.6,162.46661904761916
1265.76,157.0615952380953
1267.91,151.06652380952391
1270.06,139.6263095238096
1272.22,112.21914285714291
1274.37,98.56092857142865
1276.51,112.65395238095245
1278.66,112.3571714285715
1280.81,128.05348095238102
1282.95,125.0782714285715
1285.09,105.14778095238101
1287.23,96.16884285714292
1289.37,93.38164761904768
1291.51,105.7404714285715
1293.65,110.72359047619054
1295.78,98.04734761904766
1297.92,77.99952380952385
1300.05,77.05841428571433
1302.18,80.74963809523817
1304.31,101.36124285714293
1306.44,117.13322380952388
1308.57,134.8296476190477
1310.69,142.6904761904763
1312.82,157.67009523809534
1314.94,148.4846190476191
1317.06,136.51714285714294
1319.18,147.57938095238106
1321.3,168.76828571428584
1323.41,199.08604761904775
1325.53,216.48695238095252
1327.64,224.82976190476205
1329.75,240.54500000000013
1331.87,275.15833333333353
1333.98,293.2903333333335
1336.08,289.56228571428585
1338.19,272.0235714285716
1340.3,256.9615714285716
1342.4,235.0445904761906
1344.5,184.94094761904768
1346.6,136.84265714285718
1348.7,101.13233809523818
1350.8,99.6688476190477
1352.9,110.5962333333334
1354.99,133.8208952380953
1357.09,111.91575714285719
1359.18,106.54851428571438
1361.27,110.5301952380953
1363.36,131.3384476190477
1365.45,122.4503095238096
1367.54,144.4864095238096
1369.62,149.06649523809534
1371.7,164.14410476190486
1373.79,187.57745714285727
1375.87,209.22450476190485
1377.95,213.27647619047633
1380.03,215.30576190476202
1382.1,204.360761904762
1384.18,191.63271428571437
1386.25,183.12214285714293
1388.33,150.8770000000001
1390.4,144.08824761904768
1392.47,119.66102857142863
1394.54,100.45299428571434
1396.6,77.70220619047622
1398.67,47.408850476190494
1400.74,33.90629380952385
1402.8,53.52801238095245
1404.86,90.17844428571435
1406.92,123.42888571428577
1408.98,98.46950571428573
1411.04,71.20471142857146
1413.09,47.72928000000003
1415.15,50.042882857142914
1417.2,74.28754857142863
1419.25,94.17697714285718
1421.3,78.28175238095243
1423.35,87.22022380952386
1425.4,82.80080952380956
1427.45,79.21297619047623
1429.49,59.12226190476192
1431.54,46.76552380952384
1433.58,38.80817142857147
1435.62,64.29646666666673
1437.66,84.324080952381
1439.7,96.84187142857148
1441.74,90.94338095238099
1443.77,76.00774761904766
1445.81,59.74744761904766
1447.84,55.58900952380956
1449.87,56.76866666666671
1451.9,63.18906190476196
1453.93,96.89585714285721
1455.96,95.93432380952386
1457.98,86.39739047619054
1460.01,109.47339523809532
1462.03,143.35047619047631
1464.05,165.69294761904774
1466.07,183.49835238095247
1468.09,186.19285714285726
1470.11,184.20252380952394
1472.13,205.3820952380954
1474.14,223.3481904761906
1476.16,225.2412857142858
1478.17,193.62990476190487
1480.18,187.36913333333345
1482.19,168.36103809523817
1484.2,140.22183809523816
1486.21,132.9493333333334
1488.21,113.3982095238096
1490.22,78.56585714285718
1492.22,68.4977285714286
1494.22,49.76267619047622
1496.22,34.16767619047623
1498.22,50.99631428571432
1500.22,52.15100952380955
1502.22,52.534247619047655
1504.21,58.28670952380955
1506.21,49.977661904761916
1508.2,34.89072380952383
1510.19,35.30961428571431
1512.18,34.23235428571431
1514.17,28.657049523809533
1516.16,26.4866942857143
1518.14,20.957645714285732
1520.13,31.115903809523843
1522.11,44.8170685714286
1524.09,49.58346857142859
1526.07,52.0328047619048
1528.05,51.64002380952384
1530.03,51.880200000000045
1532.01,81.03785238095243
1533.98,71.4931285714286
1535.96,49.67374285714289
1537.93,51.007538095238125
1539.9,38.970133333333365
1541.87,44.41817142857148
1543.84,61.398723809523844
1545.81,87.95931904761912
1547.78,100.67113809523815
1549.74,104.05790476190481
1551.7,95.54839523809528
1553.67,89.19022380952386
1555.63,84.45970952380962
1557.59,121.11930000000007
1559.55,143.9311238095239
1561.5,143.70523809523817
1563.46,149.63282857142866
1565.41,128.1904476190477
1567.37,116.04558095238102
1569.32,101.19910000000006
1571.27,90.55646190476197
1573.22,85.59493809523818
1575.17,101.3631952380953
1577.11,115.3856714285715
1579.06,131.8541095238096
1581.0,128.81730476190484
1582.95,111.18107619047628
1584.89,125.13737142857153
1586.83,126.4017476190477
1588.77,130.21328571428577
1590.7,127.47812857142863
1592.64,116.34039047619055
1594.58,108.87291428571433
1596.51,110.60124285714295
1598.44,126.86032619047654
