Raman Shift,Processed Intensity
331.095,33.32894857142855
333.909,39.34032238095237
336.721,36.11591452380951
339.531,25.28350666666668
342.339,7.18493190476189
345.145,-16.17100857142859
347.949,-23.536495238095227
350.751,-26.42486666666668
353.55,-5.444085714285688
356.348,17.70378571428573
359.144,45.50792857142861
361.937,55.5536885714286
364.729,44.99883619047619
367.518,32.14510571428579
370.306,70.152001904762
373.091,158.7992295238097
375.874,254.15362190476205
378.656,282.8540361904763
381.435,237.68347619047626
384.212,162.18810476190478
386.988,39.1529838095238
389.761,-12.635673333333331
392.532,-42.104222857142865
395.301,-37.74981523809522
398.068,-8.734749523809516
400.833,14.732239999999994
403.596,5.01498666666667
406.358,18.907141904761914
409.117,12.298716190476195
411.874,13.461762380952383
414.629,3.05040333333333
417.382,3.4817100000000076
420.133,-0.4928642857142733
422.882,1.069563333333348
425.629,35.970107142857216
428.374,99.82025523809534
431.117,157.7560961904763
433.858,219.39070095238105
436.597,229.2906000000001
439.334,185.40372380952388
442.069,144.44094761904768
444.802,103.97095714285719
447.533,73.46774761904769
450.262,84.97731904761912
452.989,129.07067142857153
455.714,166.93766190476202
458.438,180.86446666666674
461.159,154.3754952380953
463.878,117.3767571428572
466.595,69.53659047619051
469.31,62.80986666666672
472.024,52.580023809523844
474.735,48.42173333333337
477.444,60.95706190476196
480.152,80.47573333333338
482.857,85.07691904761911
485.561,120.19344285714293
488.262,113.0682190476191
490.962,100.51560000000005
493.659,95.49282380952384
496.355,79.00535714285718
499.048,78.39194761904768
501.74,108.27685238095245
504.43,107.5232476190477
507.118,112.85139047619057
509.804,142.02880476190487
512.488,140.87115714285721
515.17,146.28939523809532
517.85,154.33688095238102
520.528,141.35310476190486
523.204,149.53506533333345
525.878,140.45980914285718
528.551,110.37162304761911
531.221,76.18126895238099
533.89,58.323156380952426
536.556,50.32684723809529
539.221,72.34126533333337
541.883,77.13379047619054
544.544,91.23375238095242
547.203,90.78939047619053
549.86,99.56800000000005
552.515,100.0983714285715
555.168,101.00440952380961
557.819,133.91027619047628
560.469,147.10584761904772
563.116,155.21490476190488
565.761,159.33685714285724
568.405,171.4280000000001
571.047,193.8250285714287
573.687,201.77000952380962
576.324,157.64682380952382
578.96,107.22081428571431
581.594,60.73276666666672
584.227,57.851919047619134
586.857,102.5803857142858
589.485,108.34902380952386
592.112,117.54060952380962
594.737,145.2040571428572
597.359,148.24561904761913
599.98,135.47577619047624
602.599,114.65731428571432
605.216,73.88610952380958
607.831,79.78136190476198
610.445,84.05720476190483
613.056,110.38023809523817
615.666,133.4642190476191
618.274,118.21324761904769
620.88,121.91239047619057
623.484,124.56019047619054
626.086,118.01251428571439
628.686,143.12459047619058
631.284,158.03744761904767
633.881,154.32061904761915
636.476,161.54338095238106
639.068,164.4652380952382
641.659,186.17881904761916
644.249,169.96674285714292
646.836,119.54044285714289
649.421,100.23020952380958
652.005,93.03274380952386
654.587,78.04011761904766
657.166,68.8678161904762
659.745,57.89319666666669
662.321,33.25548761904766
664.895,53.47478809523814
667.468,65.16637142857144
670.038,55.42167904761905
672.607,7.713081904761898
675.174,3.465321904761927
677.739,15.722384761904806
680.303,61.95661809523816
682.864,93.02130952380958
685.424,98.5794142857143
687.982,56.008242857142875
690.538,38.3994285714286
693.092,49.17819523809529
695.645,64.81713428571433
698.195,58.598427142857155
700.744,41.28054952380954
703.291,24.526806190476215
705.836,28.095759047619097
708.38,70.31746047619052
710.921,65.33157714285716
713.461,59.706523809523844
715.999,66.86765238095242
718.535,71.62152380952385
721.069,65.10807142857146
723.602,76.3244285714286
726.133,46.60120000000002
728.662,44.31672857142862
731.189,59.134900000000044
733.714,66.67224285714289
736.238,71.25964761904767
738.759,82.27555714285718
741.279,78.19378571428575
743.798,82.15487619047624
746.314,77.01372857142859
748.829,70.76820000000005
751.342,76.13051428571433
753.853,61.52711428571431
756.362,54.90856666666671
758.869,76.98704761904767
761.375,82.66549047619054
763.879,110.13260476190483
766.381,120.62477619047623
768.882,111.66430476190483
771.38,98.96396190476196
773.877,82.23630476190479
776.372,49.622842857142885
778.866,36.64600000000003
781.357,41.20930476190481
783.847,73.97835238095244
786.335,100.04704285714291
788.821,95.36667142857146
791.306,91.65060952380958
793.789,93.65968095238104
796.27,102.53611428571436
798.749,111.80277619047627
801.227,135.8876476190477
803.702,153.55185714285724
806.176,177.41404761904772
808.649,182.66423809523818
811.119,181.49247619047628
813.588,154.5173333333334
816.055,139.0242857142858
818.521,124.29880952380961
820.984,143.43609523809533
823.446,142.00771428571437
825.906,156.91852380952392
828.365,151.8827238095239
830.821,124.519580952381
833.276,96.16263809523817
835.729,100.1933714285715
838.181,112.04069523809531
840.631,118.27682857142864
843.079,131.94970476190483
845.525,129.58397619047625
847.97,114.94209523809529
850.412,83.21565238095243
852.854,84.31004761904768
855.293,70.98842857142863
857.731,81.6327952380953
860.167,95.05385714285718
862.601,92.82426190476194
865.034,62.27870000000003
867.465,63.656728571428616
869.894,67.10267142857145
872.321,53.999071428571455
874.747,49.72853809523812
877.171,58.9118723809524
879.594,30.217605714285742
882.014,43.79076380952387
884.433,77.44278000000004
886.851,93.17565428571436
889.266,116.75339619047628
891.68,156.1305295238096
894.092,137.45234761904769
896.503,119.91193333333341
898.912,116.17822380952389
901.319,116.1109333333334
903.724,115.80768095238105
906.128,134.4138952380953
908.53,144.78957142857152
910.931,155.55619047619058
913.329,165.24002857142867
915.726,152.98699523809532
918.122,122.89492857142865
920.516,101.34753809523816
922.908,91.01446666666672
925.298,84.13637619047624
927.687,88.62056190476196
930.074,91.23222857142864
932.459,104.35474761904769
934.843,111.46706666666672
937.225,108.28637142857147
939.605,88.00581428571434
941.984,82.6755571428572
944.361,76.06056190476195
946.736,69.97263333333336
949.11,71.1766190476191
951.482,67.72256666666671
953.853,53.1368047619048
956.222,67.51702857142863
958.589,76.91330476190481
960.954,68.18516666666672
963.318,83.38284761904768
965.68,95.36557619047623
968.041,97.37352095238101
970.4,88.36113761904765
972.757,68.8542923809524
975.113,30.093067619047627
977.467,7.222385714285731
979.819,-2.8036771428571234
982.17,33.302230476190516
984.519,41.446440000000024
986.866,48.58280095238098
989.212,48.093603333333355
991.556,52.17060285714288
993.899,38.29104904761909
996.24,62.74178952380956
998.579,77.61873809523814
1000.92,82.54192380952385
1003.25,75.7025047619048
1005.59,80.95823333333337
1007.92,72.64288571428575
1010.25,61.70927619047623
1012.58,66.25272380952386
1014.91,79.2735571428572
1017.24,94.5338095238096
1019.56,101.65250952380957
1021.88,102.15326666666672
1024.2,102.79784761904769
1026.52,109.205161904762
1028.84,123.51781904761913
1031.16,142.02105714285722
1033.48,142.04761904761912
1035.79,148.0252380952382
1038.1,155.19152380952391
1040.41,179.45057142857152
1042.72,184.46847619047628
1045.03,182.05366666666674
1047.33,170.91952380952387
1049.64,141.207880952381
1051.94,123.20357142857154
1054.24,123.1433095238096
1056.54,118.83547619047629
1058.84,137.46940476190488
1061.13,150.47228571428582
1063.43,151.65242857142866
1065.72,176.10376190476197
1068.01,162.1102857142858
1070.3,150.95619047619056
1072.59,138.7352857142858
1074.87,151.6839523809525
1077.16,166.46742857142868
1079.44,203.6079047619049
1081.72,212.5800000000001
1084.0,231.62000000000018
1086.28,264.3926666666669
1088.56,363.94385714285744
1090.84,455.65261904761934
1093.11,547.8982857142861
1095.38,561.964523809524
1097.65,516.6116190476193
1099.92,434.69457142857163
1102.19,360.116142857143
1104.46,297.3029523809526
1106.72,270.58695238095254
1108.98,265.44161904761927
1111.24,303.19890476190494
1113.5,345.42785714285736
1115.76,387.88838095238117
1118.02,395.72161904761924
1120.28,390.401904761905
1122.53,386.6411904761907
1124.78,357.0565714285716
1127.03,307.645761904762
1129.28,255.31195238095248
1131.53,205.2438666666668
1133.77,157.96310476190487
1136.02,145.4677333333334
1138.26,154.4222285714287
1140.5,148.5392095238096
1142.74,178.86443809523823
1144.98,199.5391523809525
1147.22,207.7993809523811
1149.45,218.97642857142867
1151.69,212.59247619047625
1153.92,184.78880952380962
1156.15,164.65847619047625
1158.38,132.390761904762
1160.61,134.0789714285715
1162.83,131.3405333333334
1165.06,105.26927142857147
1167.28,96.53018571428576
1169.5,66.55028095238099
1171.72,55.852080952381
1173.94,67.14830476190481
1176.16,65.58056666666671
1178.37,65.05233809523813
1180.58,54.41951428571431
1182.8,36.68090000000002
1185.01,40.74009523809528
1187.22,51.64364666666668
1189.42,36.342941904761915
1191.63,25.837060000000015
1193.84,35.268067619047656
1196.04,52.20649652380956
1198.24,64.88967759523813
1200.44,63.22173328571429
1202.64,35.63067597619048
1204.84,-0.026811952380940918
1207.03,-2.989102404761886
1209.23,25.076785571428605
1211.42,45.31356857142862
1213.61,66.864110952381
1215.8,71.87133142857144
1217.99,35.621123809523816
1220.18,23.304304761904795
1222.36,24.20700476190478
1224.55,38.663152380952425
1226.73,64.53059523809527
1228.91,77.95303333333335
1231.09,70.50277142857148
1233.27,72.56185714285715
1235.44,60.13140000000004
1237.62,71.83190000000006
1239.79,97.71223333333342
1241.96,106.2024333333334
1244.13,126.54194761904768
1246.3,114.9707857142858
1248.47,121.06199047619056
1250.64,114.91300952380959
1252.8,125.47786666666676
1254.96,111.56830000000006
1257.13,144.1387142857144
1259.29,154.04832857142867
1261.44,179.2515904761906
1263.6,200.132142857143
1265.76,203.59661904761916
1267.91,178.79090476190487
1270.06,175.05063809523818
1272.22,142.09237619047624
1274.37,110.77589523809532
1276.51,100.6754428571429
1278.66,85.50768095238101
1280.81,69.18043333333337
1282.95,69.60110952380958
1285.09,81.01040000000006
1287.23,92.69693333333339
1289.37,103.75880952380959
1291.51,99.72270952380956
1293.65,91.35321352380957
1295.78,59.08208447619051
1297.92,65.34049276190481
1300.05,76.1792431428572
1302.18,98.41062609523816
1304.31,107.18061304761915
1306.44,143.53919447619054
1308.57,130.25142857142865
1310.69,145.2725238095239
1312.82,139.9865714285715
1314.94,138.34857142857152
1317.06,142.88547619047628
1319.18,184.74261904761917
1321.3,189.39904761904774
1323.41,211.28633333333346
1325.53,227.21647619047633
1327.64,232.33500000000015
1329.75,238.73985714285732
1331.87,251.6716666666668
1333.98,239.79990476190488
1336.08,233.79376190476205
1338.19,238.84600000000015
1340.3,230.5305714285715
1342.4,203.6592857142858
1344.5,173.28214285714293
1346.6,147.16314285714296
1348.7,125.06628571428578
1350.8,108.85093809523816
1352.9,100.04286190476195
1354.99,87.78691904761911
1357.09,79.22795714285719
1359.18,93.84369047619055
1361.27,119.8263095238096
1363.36,117.27271904761912
1365.45,121.32744761904769
1367.54,117.8488333333334
1369.62,119.69542857142866
1371.7,142.48745238095248
1373.79,181.22576190476204
1375.87,201.34000000000012
1377.95,240.35504761904775
1380.03,230.5096666666668
1382.1,214.2330380952382
1384.18,160.28770476190482
1386.25,133.5788952380953
1388.33,96.39230476190482
1390.4,98.34719047619056
1392.47,114.06264761904771
1394.54,115.77630000000005
1396.6,90.059480952381
1398.67,72.57859523809526
1400.74,29.61860952380955
1402.8,21.607309523809576
1404.86,67.35350476190482
1406.92,94.71316666666672
1408.98,110.54231904761909
1411.04,103.50632380952383
1413.09,79.36559047619052
1415.15,65.35650000000004
1417.2,45.85838571428574
1419.25,54.67888571428577
1421.3,88.0542333333334
1423.35,95.74402380952387
1425.4,106.365080952381
1427.45,98.01028285714287
1429.49,46.53433523809526
1431.54,19.60141333333335
1433.58,23.399431428571447
1435.62,19.877908571428613
1437.66,56.22458761904768
1439.7,87.76993047619051
1441.74,79.32057619047622
1443.77,57.635519047619056
1445.81,32.28320000000001
1447.84,6.546342857142884
1449.87,19.898176190476228
1451.9,64.09744761904767
1453.93,77.28420476190482
1455.96,92.16972857142862
1457.98,77.98915238095242
1460.01,74.21568571428577
1462.03,79.4177476190477
1464.05,125.44957142857152
1466.07,146.2131095238096
1468.09,183.27673333333342
1470.11,202.7807142857144
1472.13,222.15080952380967
1474.14,226.09857142857157
1476.16,217.76423809523823
1478.17,192.71634285714296
1480.18,165.23818095238104
1482.19,140.04182380952386
1484.2,107.22010952380958
1486.21,93.91365714285719
1488.21,82.6915428571429
1490.22,63.88482619047621
1492.22,54.72973809523813
1494.22,42.79572619047621
1496.22,37.70001619047622
1498.22,26.059944761904777
1500.22,51.25501809523813
1502.22,51.95027190476194
1504.21,48.287208571428586
1506.21,34.07406142857145
1508.2,31.690701904761912
1510.19,17.517100000000035
1512.18,36.31443333333336
1514.17,38.46281904761906
1516.16,25.91403333333335
1518.14,31.810438095238126
1520.13,38.77073333333336
1522.11,54.461290476190506
1524.09,56.26286190476192
1526.07,45.08017809523811
1528.05,26.627499523809536
1530.03,17.095413333333347
1532.01,32.72226238095243
1533.98,55.412951428571475
1535.96,71.88207571428576
1537.93,78.70145428571432
1539.9,63.63341904761907
1541.87,47.44037809523813
1543.84,37.45628285714288
1545.81,34.25306095238099
1547.78,51.545693333333375
1549.74,55.33485142857147
1551.7,72.19263047619053
1553.67,86.88176857142861
1555.63,83.97447619047625
1557.59,81.32868571428578
1559.55,92.89774761904768
1561.5,74.96814761904767
1563.46,97.77877619047626
1565.41,100.18781904761909
1567.37,89.00571904761907
1569.32,67.852480952381
1571.27,70.49117619047624
1573.22,67.63677619047627
1575.17,109.48081428571436
1577.11,119.59588095238101
1579.06,113.69722857142864
1581.0,91.54783809523815
1582.95,90.10108571428577
1584.89,116.35763809523819
1586.83,143.69978571428578
1588.77,124.55714285714289
1590.7,118.88297619047626
1592.64,103.20236666666673
1594.58,107.13503809523812
1596.51,96.15806666666654
1598.44,51.93898571428568
