Raman Shift,Processed Intensity
331.095,80.48563047619032
333.909,33.234256190476074
336.721,17.596050476190385
339.531,18.532626666666673
342.339,12.052972380952381
345.145,-0.04789809523810451
347.949,-14.18831809523812
350.751,-37.45248095238097
353.55,-30.68563333333334
356.348,-25.87494380952382
359.144,-18.197125714285715
361.937,-0.3993390476190388
364.729,1.34368761904764
367.518,36.334506666666734
370.306,95.54302857142866
373.091,157.22628571428584
375.874,223.11834761904777
378.656,249.90684761904774
381.435,210.75661904761915
384.212,181.26202857142866
386.988,111.97045238095242
389.761,58.19280476190479
392.532,30.288485714285734
395.301,22.951504761904793
398.068,19.59121428571432
400.833,41.47509523809525
403.596,30.443019047619064
406.358,37.764690476190495
409.117,24.42513333333334
411.874,7.219989523809511
414.629,-16.577850952380963
417.382,-12.599139999999991
420.133,-20.473622857142846
422.882,18.26525047619053
425.629,83.37081809523818
428.374,118.74008476190487
431.117,184.31886428571443
433.858,219.5775476190477
436.597,185.6064761904763
439.334,163.4014095238096
442.069,141.00665238095243
444.802,81.5623952380953
447.533,89.54290952380958
450.262,105.61386190476199
452.989,154.87006190476205
455.714,193.93031904761915
458.438,197.70009523809532
461.159,154.60932380952386
463.878,102.99284476190479
466.595,50.56732095238098
469.31,38.859165714285744
472.024,25.775960000000033
474.735,32.845018095238146
477.444,85.59409714285722
480.152,107.26539238095243
482.857,116.53019523809533
485.561,150.29785238095246
488.262,142.81155714285723
490.962,126.60018095238104
493.659,144.9551476190477
496.355,124.54872380952388
499.048,97.67264761904767
501.74,87.66599523809528
504.43,67.67797619047624
507.118,78.00030952380962
509.804,130.35352857142868
512.488,174.83928095238107
515.17,200.13066666666677
517.85,205.32933333333347
520.528,168.15635714285722
523.204,147.18935238095247
525.878,129.29180000000005
528.551,105.27971904761912
531.221,89.30220000000006
533.89,82.12742380952385
536.556,54.80922857142862
539.221,49.06784285714289
541.883,66.43304285714291
544.544,81.24408571428577
547.203,84.4591952380953
549.86,113.9409238095239
552.515,138.78998095238103
555.168,116.72600000000006
557.819,109.23002857142862
560.469,89.87869523809528
563.116,75.86712380952389
565.761,111.81870476190487
568.405,162.78515238095247
571.047,163.67557619047628
573.687,139.5413333333334
576.324,137.71973809523817
578.96,128.16634285714292
581.594,126.78910476190484
584.227,126.78135238095244
586.857,129.90761428571437
589.485,99.45593809523815
592.112,94.57155238095243
594.737,110.11333809523815
597.359,92.654480952381
599.98,85.29165238095246
602.599,109.5972047619048
605.216,103.90558095238102
607.831,101.40794285714291
610.445,116.4856190476191
613.056,83.757780952381
615.666,76.03378095238101
618.274,73.97986666666672
620.88,85.50027619047626
623.484,94.88000000000005
626.086,133.59404761904773
628.686,147.35540952380958
631.284,147.87698095238102
633.881,132.82371428571437
636.476,149.43175238095245
639.068,130.08006190476198
641.659,139.86126666666672
644.249,138.05864285714293
646.836,107.81252380952385
649.421,89.97732857142863
652.005,86.97853333333335
654.587,57.52733333333336
657.166,31.14406190476192
659.745,33.34920952380955
662.321,27.044151428571453
664.895,31.46337285714287
667.468,19.6508219047619
670.038,5.174231904761901
672.607,-17.01783047619047
675.174,5.0709252380952705
677.739,42.96034666666671
680.303,64.12277619047622
682.864,55.12575238095239
685.424,31.82250952380953
687.982,19.01883809523813
690.538,34.091790476190525
693.092,70.13266190476195
695.645,82.56625714285718
698.195,72.29350952380955
700.744,48.453557142857164
703.291,33.376166666666684
705.836,32.48613333333337
708.38,52.73230952380956
710.921,45.968370476190486
713.461,29.76228952380953
715.999,25.920279047619065
718.535,23.153353333333364
721.069,22.363174285714322
723.602,60.73718952380956
726.133,64.32008952380956
728.662,64.82330000000006
731.189,80.05360000000005
733.714,74.24644761904764
736.238,52.87548095238098
738.759,46.700147619047634
741.279,28.337119047619076
743.798,39.688690476190516
746.314,64.27661428571433
748.829,74.43213333333338
751.342,71.91500952380956
753.853,72.53302380952387
756.362,95.42689047619055
758.869,119.9756714285715
761.375,135.74925238095244
763.879,108.22209047619049
766.381,72.9642333333334
768.882,61.545595238095295
771.38,86.15512857142865
773.877,88.74388095238099
776.372,85.78673333333336
778.866,77.80650476190482
781.357,73.04020000000004
783.847,64.58182380952385
786.335,88.95437142857148
788.821,87.01403809523813
791.306,84.14100952380957
793.789,96.90620000000004
796.27,109.88021904761911
798.749,106.72905238095245
801.227,136.07127619047628
803.702,123.00166666666672
806.176,121.32925714285722
808.649,136.38738095238105
811.119,186.79460000000012
813.588,186.93170952380962
816.055,199.84620000000007
818.521,160.63336666666675
820.984,150.00750476190484
823.446,143.06391904761915
825.906,145.18356190476197
828.365,113.84304761904768
830.821,118.04226666666673
833.276,99.11536190476198
835.729,118.0624857142858
838.181,127.45549523809531
840.631,129.2473428571429
843.079,108.58155238095243
845.525,103.7442190476191
847.97,98.35528285714292
850.412,74.03429000000003
852.854,77.68714190476196
855.293,68.36199571428574
857.731,54.821775238095285
860.167,48.6864385714286
862.601,41.385533809523814
865.034,27.586820952380997
867.465,44.958172857142884
869.894,49.73869238095242
872.321,69.0248366666667
874.747,69.0559104761905
877.171,63.166390476190536
879.594,76.73860000000005
882.014,78.58337619047624
884.433,83.84492380952385
886.851,83.71505238095243
889.266,100.3857095238096
891.68,104.1438571428572
894.092,119.80061904761914
896.503,127.26206190476198
898.912,128.33941904761912
901.319,140.79592857142868
903.724,153.5381333333334
906.128,126.47226190476198
908.53,106.1238571428572
910.931,117.208661904762
913.329,128.15700952380962
915.726,155.68471904761913
918.122,149.8411190476191
920.516,124.4372095238096
922.908,105.14172857142866
925.298,116.86113333333341
927.687,109.12088571428578
930.074,120.0180571428572
932.459,102.50669523809528
934.843,81.87420000000004
937.225,57.74164285714287
939.605,51.110876190476226
941.984,53.17405714285721
944.361,86.2186571428572
946.736,86.05607142857147
949.11,98.30728571428574
951.482,68.97400000000003
953.853,63.91534761904766
956.222,68.27593809523813
958.589,76.62904761904765
960.954,57.83369047619051
963.318,70.08240952380957
965.68,76.1387571428572
968.041,116.48090000000008
970.4,122.06287904761909
972.757,91.50561476190478
975.113,43.525248571428584
977.467,32.980908095238135
979.819,23.636292857142895
982.17,55.39810809523812
984.519,45.744215714285716
986.866,39.104983809523844
989.212,31.672706190476227
991.556,61.3060228571429
993.899,67.00682380952387
996.24,83.91958571428576
998.579,85.42686666666673
1000.92,104.33955238095243
1003.25,88.99255238095242
1005.59,86.24416190476194
1007.92,77.71495714285717
1010.25,57.120447619047646
1012.58,32.03324761904766
1014.91,44.73983809523814
1017.24,82.05122857142864
1019.56,102.01574761904769
1021.88,124.49124285714291
1024.2,118.76418571428576
1026.52,105.45451428571437
1028.84,116.99109047619056
1031.16,153.3749714285715
1033.48,151.27304761904767
1035.79,163.25666666666677
1038.1,162.56433333333342
1040.41,175.0061904761906
1042.72,187.867761904762
1045.03,183.7682857142858
1047.33,166.04104761904773
1049.64,153.30490476190482
1051.94,134.7980476190477
1054.24,132.56814285714296
1056.54,151.42406666666676
1058.84,142.88930476190487
1061.13,141.67765714285724
1063.43,140.50331428571437
1065.72,147.65151428571437
1068.01,138.7406142857144
1070.3,133.57954285714294
1072.59,121.07230952380962
1074.87,154.2657142857144
1077.16,180.92116666666678
1079.44,227.7521904761906
1081.72,233.66261904761916
1084.0,232.03285714285727
1086.28,265.71857142857164
1088.56,361.8617142857146
1090.84,462.84242857142885
1093.11,533.6595714285717
1095.38,536.2645714285717
1097.65,477.6086190476192
1099.92,383.6428571428573
1102.19,322.1280000000002
1104.46,299.72966666666684
1106.72,280.8749523809526
1108.98,283.943523809524
1111.24,308.7912857142859
1113.5,332.4168095238097
1115.76,367.00923809523835
1118.02,392.7577619047621
1120.28,390.8513809523812
1122.53,353.2412857142859
1124.78,326.4498095238097
1127.03,285.1894285714287
1129.28,256.2208095238097
1131.53,229.20885714285728
1133.77,207.19994285714296
1136.02,157.1450857142858
1138.26,140.09007619047628
1140.5,125.7477238095239
1142.74,150.97374285714298
1144.98,152.24256190476197
1147.22,196.8863238095239
1149.45,193.90333333333342
1151.69,197.24448571428582
1153.92,180.1938095238096
1156.15,135.1783428571429
1158.38,78.62512380952387
1160.61,70.580180952381
1162.83,84.28005714285723
1165.06,99.8662285714286
1167.28,96.95611428571432
1169.5,61.595838095238115
1171.72,44.87926190476193
1173.94,35.90003333333339
1176.16,73.51387428571434
1178.37,77.0526647619048
1180.58,57.991191428571454
1182.8,50.08991142857147
1185.01,41.96650666666669
1187.22,30.524365714285743
1189.42,38.61928571428572
1191.63,24.964270476190475
1193.84,5.7485161904762085
1196.04,25.875581904761923
1198.24,21.296667619047625
1200.44,28.248767619047644
1202.64,29.921279523809527
1204.84,18.360844761904772
1207.03,18.852277619047644
1209.23,35.013844761904785
1211.42,41.41621761904766
1213.61,72.24925523809526
1215.8,57.512406666666685
1217.99,49.586141904761945
1220.18,53.612955238095275
1222.36,50.687794285714325
1224.55,64.09615428571433
1226.73,88.2188828571429
1228.91,74.53212857142861
1231.09,89.84553809523815
1233.27,80.11149523809527
1235.44,71.80657142857149
1237.62,80.45463333333339
1239.79,96.7227333333334
1241.96,98.0399571428572
1244.13,108.07359047619053
1246.3,96.3953952380953
1248.47,94.29194285714291
1250.64,107.76375714285723
1252.8,129.09745714285722
1254.96,147.2465142857144
1257.13,165.25928571428582
1259.29,189.99352380952394
1261.44,211.4029523809525
1263.6,223.96461904761918
1265.76,212.91790476190485
1267.91,210.69247619047636
1270.06,183.5752857142858
1272.22,153.37704761904772
1274.37,149.4805238095239
1276.51,141.8864761904763
1278.66,144.02514285714298
1280.81,165.89776190476198
1282.95,165.22042857142867
1285.09,154.70888571428583
1287.23,134.6981714285715
1289.37,133.76081904761915
1291.51,133.70844761904772
1293.65,150.54248571428582
1295.78,146.07428095238103
1297.92,129.9245428571429
1300.05,92.47590952380959
1302.18,97.39681904761912
1304.31,94.83219523809531
1306.44,112.8789428571429
1308.57,129.15780000000012
1310.69,146.4324285714287
1312.82,171.89514285714296
1314.94,206.9291904761906
1317.06,216.39338095238108
1319.18,203.81357142857152
1321.3,194.0484761904763
1323.41,203.48119047619065
1325.53,236.35166666666683
1327.64,280.75714285714304
1329.75,312.03295238095257
1331.87,327.08542857142874
1333.98,303.7260952380954
1336.08,282.8141904761906
1338.19,263.68490476190493
1340.3,256.7210000000001
1342.4,234.68657142857157
1344.5,215.24957142857153
1346.6,177.7458095238096
1348.7,144.31947619047625
1350.8,128.40142857142865
1352.9,152.94557142857153
1354.99,156.5252380952382
1357.09,161.9514761904763
1359.18,183.84552380952394
1361.27,196.35166666666677
1363.36,204.4717142857144
1365.45,203.92147619047628
1367.54,186.7501904761906
1369.62,185.14980952380967
1371.7,218.64585714285732
1373.79,228.85928571428587
1375.87,236.69614285714297
1377.95,201.11038095238104
1380.03,205.72200000000015
1382.1,230.81804761904777
1384.18,234.06642857142865
1386.25,202.65952380952388
1388.33,166.55071428571435
1390.4,117.0270000000001
1392.47,118.2798095238096
1394.54,117.07196190476193
1396.6,90.30917142857146
1398.67,69.84984761904767
1400.74,64.93283809523815
1402.8,81.3208095238096
1404.86,106.6337333333334
1406.92,103.20554761904766
1408.98,95.51322857142861
1411.04,84.93818095238102
1413.09,72.71905238095243
1415.15,87.71324761904768
1417.2,87.5878428571429
1419.25,112.91471904761913
1421.3,127.74162857142862
1423.35,122.87809523809528
1425.4,101.70515238095243
1427.45,91.22283333333337
1429.49,64.19284761904767
1431.54,71.75805238095242
1433.58,62.29888095238098
1435.62,65.52929047619052
1437.66,74.78213333333338
1439.7,85.96160000000003
1441.74,72.44800476190478
1443.77,58.335819047619076
1445.81,43.1479704761905
1447.84,24.407325238095257
1449.87,34.54139809523812
1451.9,36.168050952380966
1453.93,40.23841714285719
1455.96,62.51309666666671
1457.98,87.46684666666673
1460.01,111.95517142857152
1462.03,131.54795714285723
1464.05,143.14850476190486
1466.07,152.94533333333342
1468.09,166.0321904761906
1470.11,205.02600000000015
1472.13,227.2105714285715
1474.14,207.15561904761915
1476.16,199.8590000000001
1478.17,182.36624761904773
1480.18,152.7232000000001
1482.19,157.21301904761913
1484.2,143.2148857142858
1486.21,113.67919523809529
1488.21,95.55588095238099
1490.22,74.36680476190479
1492.22,48.34786190476194
1494.22,44.06811904761908
1496.22,48.43037142857146
1498.22,41.908700000000024
1500.22,53.643652380952425
1502.22,71.82377142857148
1504.21,69.87554761904765
1506.21,60.177838095238116
1508.2,40.490561904761904
1510.19,22.240285714285736
1512.18,20.18683809523812
1514.17,31.471342857142872
1516.16,33.94903333333336
1518.14,40.951418857142876
1520.13,31.810066952380968
1522.11,31.475629142857155
1524.09,31.42260066666669
1526.07,23.506452952380975
1528.05,30.535076476190497
1530.03,35.506928380952395
1532.01,27.229976190476208
1533.98,25.655119047619067
1535.96,26.066580952380967
1537.93,38.27243333333336
1539.9,32.89036190476192
1541.87,39.395223809523834
1543.84,43.40477142857145
1545.81,42.15590952380955
1547.78,37.12369523809528
1549.74,66.21164285714289
1551.7,61.27600000000005
1553.67,85.36334761904767
1555.63,91.52038095238099
1557.59,96.0796190476191
1559.55,91.7068571428572
1561.5,108.54408571428579
1563.46,113.40031904761912
1565.41,131.51283809523818
1567.37,130.97627142857152
1569.32,122.88522380952386
1571.27,104.42970476190483
1573.22,107.89500476190484
1575.17,111.85203809523817
1577.11,119.39585238095245
1579.06,137.38316190476198
1581.0,132.67085714285722
1582.95,125.44914285714293
1584.89,141.62267619047628
1586.83,131.4768333333334
1588.77,112.58312857142865
1590.7,103.65585238095244
1592.64,103.31381428571436
1594.58,120.36647619047613
1596.51,139.64719047619036
1598.44,152.4892738095238
