Raman Shift,Processed Intensity
331.095,56.37902619047619
333.909,63.39925952380956
336.721,61.591188095238124
339.531,53.58172857142859
342.339,57.4023761904762
345.145,2.798979047619035
347.949,-14.171880476190495
350.751,-26.21497761904764
353.55,-50.84379095238096
356.348,-32.761349047619035
359.144,19.09219571428572
361.937,4.491829047619056
364.729,19.070819047619107
367.518,87.22558095238104
370.306,117.44870000000009
373.091,197.4717571428573
375.874,288.07519047619064
378.656,278.3740000000001
381.435,229.62666190476202
384.212,189.56960476190483
386.988,91.4639666666667
389.761,32.57190000000002
392.532,13.014124761904764
395.301,-3.1350466666666605
398.068,-13.324164761904758
400.833,-10.762248571428586
403.596,-6.514288571428579
406.358,-19.310751428571432
409.117,-14.404613333333327
411.874,-3.428685714285713
414.629,19.747380952380976
417.382,25.350257142857178
420.133,56.36966666666671
422.882,65.034380952381
425.629,81.09830000000008
428.374,114.60150952380963
431.117,183.7761142857144
433.858,216.85458095238107
436.597,219.59442857142867
439.334,167.5156571428572
442.069,132.28221904761912
444.802,107.46305714285722
447.533,129.7236476190477
450.262,157.87284761904772
452.989,198.81518095238107
455.714,197.69404761904772
458.438,201.70114285714294
461.159,168.79011428571434
463.878,129.4870190476191
466.595,101.65203809523817
469.31,105.76400000000007
472.024,102.16005238095244
474.735,95.03464761904766
477.444,102.29673809523817
480.152,86.8082190476191
482.857,87.9549095238096
485.561,113.55183809523818
488.262,120.65213333333338
490.962,115.26162857142864
493.659,126.52942857142862
496.355,97.5091571428572
499.048,91.63574285714293
501.74,119.29718571428577
504.43,113.49980952380957
507.118,105.9648428571429
509.804,96.03265714285718
512.488,76.66251428571437
515.17,105.24265714285724
517.85,147.92290476190485
520.528,168.52008571428578
523.204,147.04126666666673
525.878,120.30297142857148
528.551,90.8361333333334
531.221,90.50496190476197
533.89,94.1733190476191
536.556,88.70559523809527
539.221,59.156004761904796
541.883,57.86443333333338
544.544,53.83757142857147
547.203,77.79590000000006
549.86,81.55531904761908
552.515,89.83648571428577
555.168,89.83539523809529
557.819,100.22451428571435
560.469,115.77147619047628
563.116,134.86219047619056
565.761,144.3592380952382
568.405,156.36275238095246
571.047,142.01977619047628
573.687,130.1444095238096
576.324,125.69322380952389
578.96,110.05102857142865
581.594,135.60239523809534
584.227,160.25540952380962
586.857,146.6795857142858
589.485,145.1636000000001
592.112,142.70970000000008
594.737,137.65364761904772
597.359,143.4255476190477
599.98,140.45580952380956
602.599,120.93603809523816
605.216,94.81979523809528
607.831,81.58380476190483
610.445,67.70473809523813
613.056,81.65888095238103
615.666,89.30315714285722
618.274,119.87511904761914
620.88,114.75488571428578
623.484,130.70349523809531
626.086,130.14807619047627
628.686,138.84921904761913
631.284,168.04304761904777
633.881,183.3462857142858
636.476,198.185142857143
639.068,199.50933333333342
641.659,177.45890476190485
644.249,145.17366666666675
646.836,144.88847619047627
649.421,105.0281190476191
652.005,121.68410476190482
654.587,89.9000523809524
657.166,56.814942857142896
659.745,51.472147619047654
662.321,71.39116857142862
664.895,55.519570952380995
667.468,86.7574228571429
670.038,68.62377190476194
672.607,63.209146666666726
675.174,64.88944238095242
677.739,68.89774476190479
680.303,48.800233333333374
682.864,70.02047619047624
685.424,79.93409523809531
687.982,107.44080952380958
690.538,105.63045714285717
693.092,90.02170000000004
695.645,68.65700952380955
698.195,58.86469428571431
700.744,41.11579666666668
703.291,41.21491714285715
705.836,0.061946190476183105
708.38,-9.824025714285701
710.921,-3.2095271428571213
713.461,34.75826095238101
715.999,72.69406857142863
718.535,81.78429476190477
721.069,75.40617047619052
723.602,84.98438142857147
726.133,88.70583428571435
728.662,87.47201571428575
731.189,68.0414580952381
733.714,44.55392190476196
736.238,46.33996571428577
738.759,62.82510666666673
741.279,100.57812571428579
743.798,116.88212380952388
746.314,125.59169523809531
748.829,137.60948571428577
751.342,98.21904285714288
753.853,52.32295714285716
756.362,50.63375714285719
758.869,66.67310952380959
761.375,95.86786190476198
763.879,113.83556666666672
766.381,109.19374761904766
768.882,89.798180952381
771.38,80.88590000000006
773.877,90.50319047619053
776.372,88.45858571428577
778.866,92.79880952380961
781.357,104.04673333333339
783.847,88.15397619047623
786.335,96.40579047619055
788.821,111.23006190476197
791.306,86.34061428571435
793.789,102.02305238095246
796.27,108.65781428571434
798.749,96.10200952380961
801.227,130.4985476190477
803.702,142.51395238095245
806.176,130.7674380952382
808.649,154.92567619047628
811.119,147.94138095238102
813.588,156.24361904761918
816.055,177.97561904761915
818.521,178.80471428571437
820.984,155.20761904761912
823.446,165.5655238095239
825.906,138.16523809523818
828.365,143.62676190476202
830.821,145.42685714285722
833.276,140.47142857142865
835.729,119.57095238095248
838.181,132.63095238095246
840.631,120.9384476190477
843.079,111.11390000000007
845.525,106.87276190476196
847.97,104.93054761904769
850.412,97.95524761904768
852.854,89.13860000000004
855.293,77.67251904761909
857.731,60.7491047619048
860.167,57.32245714285718
862.601,50.96534285714289
865.034,68.39394285714292
867.465,72.46686666666672
869.894,79.75725714285718
872.321,70.40967142857147
874.747,77.66422380952386
877.171,83.18904285714291
879.594,98.46257142857148
882.014,93.24837142857146
884.433,97.50090000000004
886.851,62.88864761904767
889.266,72.7945952380953
891.68,106.55394285714294
894.092,127.59740000000008
896.503,138.2126571428572
898.912,151.97323809523817
901.319,115.69067619047625
903.724,113.65273333333343
906.128,124.71899047619056
908.53,138.6056571428572
910.931,134.6479571428572
913.329,134.46714285714293
915.726,121.92248095238105
918.122,134.34946666666676
920.516,142.65498571428577
922.908,146.6032714285715
925.298,110.72017142857146
927.687,84.1983190476191
930.074,77.51590476190482
932.459,82.9132952380953
934.843,95.58302857142864
937.225,114.05103333333338
939.605,108.74803333333338
941.984,103.15210476190481
944.361,91.83674761904766
946.736,64.4231666666667
949.11,61.53267142857149
951.482,76.45255238095244
953.853,76.28023333333338
956.222,95.25553809523814
958.589,95.33300000000004
960.954,78.51454285714293
963.318,91.13542857142862
965.68,99.95932857142863
968.041,79.13099047619052
970.4,69.31863809523811
972.757,45.90518571428572
975.113,23.130365638095256
977.467,10.28139201904763
979.819,20.55051546666668
982.17,15.986901695238101
984.519,13.782556419047639
986.866,24.31990344761908
989.212,46.55275706666671
991.556,54.00626952380957
993.899,81.34861238095242
996.24,88.00944285714289
998.579,78.2757047619048
1000.92,68.3389666666667
1003.25,65.96227142857147
1005.59,56.765647619047655
1007.92,40.702609523809535
1010.25,35.91669523809526
1012.58,29.742109523809546
1014.91,22.798595238095267
1017.24,35.324900000000035
1019.56,62.32152857142861
1021.88,60.88412380952386
1024.2,88.58456666666672
1026.52,98.94682857142864
1028.84,99.92336190476199
1031.16,115.41905714285721
1033.48,137.57662857142864
1035.79,151.87200000000013
1038.1,172.63842857142865
1040.41,183.97066666666677
1042.72,196.7732380952382
1045.03,204.66457142857155
1047.33,186.31080952380964
1049.64,173.13980952380962
1051.94,156.81747619047627
1054.24,147.43795238095248
1056.54,147.8100952380953
1058.84,135.31366666666673
1061.13,107.32876190476199
1063.43,101.23538095238102
1065.72,104.07985714285721
1068.01,110.62247619047628
1070.3,130.4814761904763
1072.59,155.79809523809536
1074.87,171.9521904761906
1077.16,187.9897142857144
1079.44,192.0521904761906
1081.72,181.94723809523822
1084.0,190.05457142857156
1086.28,218.80095238095254
1088.56,287.32795238095264
1090.84,381.25252380952406
1093.11,490.57338095238134
1095.38,524.7169523809526
1097.65,508.34800000000024
1099.92,426.17938095238117
1102.19,367.5900476190478
1104.46,309.29247619047635
1106.72,307.80866666666685
1108.98,313.0890000000002
1111.24,325.5602857142859
1113.5,356.45880952380975
1115.76,390.5922380952383
1118.02,401.8634285714288
1120.28,422.60347619047644
1122.53,400.9060000000002
1124.78,365.05457142857165
1127.03,331.5235714285716
1129.28,250.5972380952382
1131.53,188.463761904762
1133.77,179.78809523809534
1136.02,149.8064761904763
1138.26,177.75480952380963
1140.5,185.63185714285723
1142.74,183.81661904761916
1144.98,182.64061904761917
1147.22,196.00709523809533
1149.45,184.3901904761906
1151.69,186.2170952380953
1153.92,169.8195238095239
1156.15,160.33861904761915
1158.38,148.96362857142864
1160.61,127.40710952380957
1162.83,93.85804761904767
1165.06,82.26743333333339
1167.28,75.58630476190481
1169.5,83.81327142857148
1171.72,86.9950666666667
1173.94,73.84468761904765
1176.16,36.50391142857144
1178.37,27.352480000000018
1180.58,24.43721619047622
1182.8,29.80457666666668
1185.01,36.21584761904764
1187.22,35.194033809523816
1189.42,24.500350476190498
1191.63,24.943706190476206
1193.84,27.4283561904762
1196.04,22.429961904761935
1198.24,47.8054666666667
1200.44,70.0781571428572
1202.64,74.39064761904766
1204.84,78.31421904761908
1207.03,51.467861904761925
1209.23,25.99444761904764
1211.42,22.608535238095257
1213.61,20.024406666666675
1215.8,7.528127619047636
1217.99,22.786745714285725
1220.18,21.895984761904778
1222.36,27.284973333333358
1224.55,33.71627333333335
1226.73,23.524023809523822
1228.91,38.47084761904765
1231.09,53.31975714285717
1233.27,40.26230476190478
1235.44,36.25198571428574
1237.62,43.3377047619048
1239.79,49.663633333333394
1241.96,79.65966666666672
1244.13,102.80365714285719
1246.3,95.95443809523815
1248.47,92.92308095238104
1250.64,107.04475238095247
1252.8,134.17868571428582
1254.96,161.89823809523818
1257.13,201.15780952380968
1259.29,205.86433333333343
1261.44,198.68633333333347
1263.6,170.43571428571437
1265.76,148.30514285714295
1267.91,148.058761904762
1270.06,164.12776190476202
1272.22,159.22855238095246
1274.37,139.9827190476191
1276.51,131.39278095238103
1278.66,111.84202380952388
1280.81,108.85686666666675
1282.95,107.344780952381
1285.09,104.3554952380953
1287.23,88.93939047619054
1289.37,108.86089523809528
1291.51,99.21776190476194
1293.65,89.01252380952386
1295.78,72.72385619047623
1297.92,49.97323000000002
1300.05,28.667988571428594
1302.18,25.239270000000033
1304.31,59.355931428571495
1306.44,83.49672523809528
1308.57,92.94969428571432
1310.69,88.90776190476194
1312.82,85.08722857142864
1314.94,96.10965714285723
1317.06,130.54849523809534
1319.18,130.59649523809532
1321.3,130.5414761904763
1323.41,145.1950000000001
1325.53,172.94014285714297
1327.64,203.96971428571442
1329.75,248.85671428571442
1331.87,275.88861904761916
1333.98,271.01976190476205
1336.08,246.29966666666678
1338.19,207.20657142857155
1340.3,157.21809523809534
1342.4,157.71680952380964
1344.5,184.51390476190488
1346.6,189.13466666666676
1348.7,182.6760952380953
1350.8,154.7108666666667
1352.9,106.81157619047626
1354.99,69.64646666666673
1357.09,64.26457619047625
1359.18,83.66685714285721
1361.27,111.33064285714293
1363.36,132.7333714285715
1365.45,121.97110000000006
1367.54,121.09235238095246
1369.62,136.62201428571439
1371.7,164.03711428571438
1373.79,196.52850952380967
1375.87,218.38286666666676
1377.95,213.17209523809538
1380.03,224.80157142857152
1382.1,215.8432857142858
1384.18,185.96400000000008
1386.25,161.54495238095245
1388.33,141.0148761904763
1390.4,120.85032857142865
1392.47,123.14668571428577
1394.54,98.47530952380956
1396.6,61.88343809523813
1398.67,43.84730952380956
1400.74,32.509323809523835
1402.8,41.869304761904814
1404.86,60.59333333333336
1406.92,78.53805333333338
1408.98,67.65520095238098
1411.04,52.75357809523811
1413.09,25.07046571428574
1415.15,31.652654285714316
1417.2,33.78475809523814
1419.25,66.18005333333338
1421.3,67.69448571428575
1423.35,79.6124428571429
1425.4,70.74213809523813
1427.45,70.70118571428574
1429.49,60.440442857142884
1431.54,40.14876190476191
1433.58,36.25310476190481
1435.62,49.180152380952414
1437.66,49.785309523809566
1439.7,70.3047428571429
1441.74,78.35553619047622
1443.77,50.26894571428575
1445.81,54.94772476190479
1447.84,39.15151142857144
1449.87,28.782867619047657
1451.9,46.50611714285719
1453.93,74.74762666666672
1455.96,81.5048952380953
1457.98,103.29916190476197
1460.01,129.41367619047628
1462.03,154.84600000000012
1464.05,177.16495238095249
1466.07,174.9395714285715
1468.09,173.0719523809525
1470.11,186.89257142857159
1472.13,222.5893333333335
1474.14,262.58823809523824
1476.16,267.7435714285715
1478.17,247.62425714285726
1480.18,209.8941857142858
1482.19,160.64570476190485
1484.2,136.92398571428578
1486.21,119.86928095238102
1488.21,108.05037619047627
1490.22,112.41716190476194
1492.22,84.87163809523811
1494.22,46.26830000000002
1496.22,28.176238095238112
1498.22,17.21195714285717
1500.22,31.46831904761908
1502.22,54.56196380952383
1504.21,53.01436857142859
1506.21,46.29944190476193
1508.2,38.03406009523811
1510.19,22.120825095238107
1512.18,17.17672542857145
1514.17,32.8188134761905
1516.16,41.14044257142861
1518.14,55.3302355714286
1520.13,67.76742390476193
1522.11,60.164685714285746
1524.09,73.187180952381
1526.07,62.45255714285716
1528.05,50.05480476190479
1530.03,33.61180952380954
1532.01,26.932038095238124
1533.98,29.395576190476227
1535.96,59.23979047619051
1537.93,69.2259571428572
1539.9,71.6393428571429
1541.87,84.146180952381
1543.84,76.6986666666667
1545.81,83.01090000000005
1547.78,73.32109047619052
1549.74,82.4862952380953
1551.7,93.64963333333343
1553.67,127.62101904761914
1555.63,130.54379523809533
1557.59,150.2754857142858
1559.55,140.95965714285722
1561.5,118.21580000000007
1563.46,102.18774285714291
1565.41,101.73325714285721
1567.37,86.90106190476196
1569.32,104.50162857142865
1571.27,118.82167142857149
1573.22,114.38635238095246
1575.17,119.72077619047626
1577.11,116.49244285714292
1579.06,105.94100952380958
1581.0,121.59147142857151
1582.95,124.20729523809531
1584.89,127.50430000000004
1586.83,118.81730000000005
1588.77,101.67168571428579
1590.7,98.73549047619055
1592.64,113.72456190476198
1594.58,127.37891904761909
1596.51,125.79544761904765
1598.44,96.14251428571423
