Raman Shift,Processed Intensity
331.095,113.37738333333323
333.909,60.601539523809436
336.721,30.469138095238037
339.531,15.772585714285729
342.339,7.375524761904762
345.145,7.6894895238095184
347.949,-3.84952476190474
350.751,13.576077142857141
353.55,-2.8345152380952587
356.348,-19.976572380952387
359.144,-17.601761904761883
361.937,9.729800000000049
364.729,64.64893333333339
367.518,103.35910000000005
370.306,106.54115714285723
373.091,152.4004380952382
375.874,207.90500000000014
378.656,247.02463809523823
381.435,239.30072857142864
384.212,172.94297809523815
386.988,76.82904952380953
389.761,-1.8292628571428597
392.532,-7.200006666666635
395.301,0.9314609523809594
398.068,15.780454285714304
400.833,14.087678095238083
403.596,3.452190476190455
406.358,-29.097047619047625
409.117,-26.38696666666668
411.874,-30.005085714285713
414.629,-0.10911904761903735
417.382,5.668333333333347
420.133,29.98151904761908
422.882,32.866795238095264
425.629,81.17135714285723
428.374,125.07656666666676
431.117,193.95524761904775
433.858,233.6098000000001
436.597,241.8913238095239
439.334,201.17552380952392
442.069,199.4109238095239
444.802,141.68896666666672
447.533,87.19731904761909
450.262,82.60066190476198
452.989,113.27870952380965
455.714,157.46879523809537
458.438,213.74267142857153
461.159,202.81520000000006
463.878,142.9733952380953
466.595,102.12390952380957
469.31,78.31660952380956
472.024,50.45886190476195
474.735,56.173057142857196
477.444,82.1770714285715
480.152,103.61776666666672
482.857,118.83313333333341
485.561,131.8276476190477
488.262,131.55914285714294
490.962,142.55661904761914
493.659,156.15890476190484
496.355,160.60980000000012
499.048,142.43920476190482
501.74,126.36750476190483
504.43,120.35365238095247
507.118,124.40383809523819
509.804,114.76315714285724
512.488,151.3427523809525
515.17,159.62539047619057
517.85,144.52291428571436
520.528,145.7086857142858
523.204,155.3797238095239
525.878,133.0194000000001
528.551,135.58661428571435
531.221,111.32603809523815
533.89,89.91116666666676
536.556,99.7294714285715
539.221,100.12044285714289
541.883,81.70961428571432
544.544,83.07474285714292
547.203,71.79310000000007
549.86,103.25173333333343
552.515,145.6468000000001
555.168,160.4120666666668
557.819,160.31514285714294
560.469,179.0754285714287
563.116,169.45942857142867
565.761,155.3295238095239
568.405,169.975761904762
571.047,182.30687619047626
573.687,156.23199523809532
576.324,145.51651428571435
578.96,139.0685952380953
581.594,100.70120000000007
584.227,106.4170333333334
586.857,116.79028571428579
589.485,133.77560952380963
592.112,161.80406666666676
594.737,170.8296857142858
597.359,146.2350952380953
599.98,121.4498571428572
602.599,104.28457142857151
605.216,93.31130952380958
607.831,118.24495238095247
610.445,120.99041904761911
613.056,110.11930000000007
615.666,115.48803809523815
618.274,110.47711428571434
620.88,96.60959523809534
623.484,132.1221238095239
626.086,168.82300952380962
628.686,181.61550952380964
631.284,214.7358190476192
633.881,219.7054761904763
636.476,234.23657142857158
639.068,229.94585714285725
641.659,218.30661904761914
644.249,191.22109523809536
646.836,167.54327619047626
649.421,147.55537142857153
652.005,117.11125714285717
654.587,59.11252380952383
657.166,40.17461904761909
659.745,34.24625238095241
662.321,64.7047152380953
664.895,85.45083190476193
667.468,73.33791619047621
670.038,45.17167285714287
672.607,37.281762857142866
675.174,5.235535714285733
677.739,22.410332380952404
680.303,38.23072000000004
682.864,61.55005523809528
685.424,47.6027180952381
687.982,37.527913333333345
690.538,21.322052380952407
693.092,24.505457142857185
695.645,52.50334761904766
698.195,90.50293714285718
700.744,73.26297666666669
703.291,45.732787619047635
705.836,38.14747285714289
708.38,42.789832380952426
710.921,55.133290000000045
713.461,65.31794571428574
715.999,75.34121809523813
718.535,64.05759523809529
721.069,58.65500476190481
723.602,83.5597571428572
726.133,90.34072380952387
728.662,75.6622190476191
731.189,77.23637619047622
733.714,65.29898095238099
736.238,49.94318571428576
738.759,68.69090476190482
741.279,95.82554476190482
743.798,86.96436380952385
746.314,70.15306095238098
748.829,70.77087876190481
751.342,53.62544471428575
753.853,41.762650380952415
756.362,66.13298909523812
758.869,46.16372990476192
761.375,37.853346619047656
763.879,54.581461142857165
766.381,55.25130571428575
768.882,49.242481428571466
771.38,83.98218380952386
773.877,78.37408095238098
776.372,73.36938095238098
778.866,48.91933809523812
781.357,36.68963333333336
783.847,42.202942857142915
786.335,68.79189047619052
788.821,85.02681428571435
791.306,107.04999523809529
793.789,83.622580952381
796.27,79.50574761904768
798.749,95.46068571428579
801.227,137.48685238095248
803.702,159.0596380952382
806.176,189.22652380952388
808.649,173.41561904761915
811.119,155.38842857142868
813.588,135.38290476190485
816.055,147.11290476190482
818.521,133.00638095238105
820.984,136.1112857142858
823.446,140.57013333333344
825.906,126.38291904761911
828.365,140.59758095238107
830.821,134.30911428571434
833.276,102.85066190476196
835.729,76.46097142857148
838.181,80.71120476190482
840.631,79.98272380952388
843.079,112.84741904761911
845.525,104.59113333333337
847.97,77.1666428571429
850.412,55.24114285714289
852.854,53.386323809523844
855.293,44.507547619047635
857.731,39.367300000000014
860.167,29.680447619047637
862.601,23.161900000000024
865.034,37.812319047619084
867.465,57.48957619047622
869.894,47.05157619047621
872.321,60.165709523809554
874.747,52.64248095238098
877.171,62.149395238095295
879.594,65.87792857142861
882.014,80.49563809523815
884.433,78.00354761904768
886.851,104.9740571428572
889.266,115.40828095238102
891.68,130.35506666666672
894.092,134.38700000000009
896.503,140.83847619047626
898.912,135.61542857142868
901.319,141.10014285714294
903.724,148.1034761904763
906.128,150.8174761904763
908.53,168.95742857142866
910.931,173.57238095238105
913.329,166.47335238095246
915.726,131.61420952380956
918.122,104.94913333333339
920.516,96.5748571428572
922.908,89.58775238095244
925.298,93.51330952380958
927.687,89.21042380952385
930.074,94.39486190476198
932.459,105.1639238095239
934.843,128.9477095238096
937.225,126.27176666666672
939.605,101.518880952381
941.984,81.11955238095246
944.361,107.31331904761913
946.736,120.53095714285723
949.11,143.3930714285715
951.482,126.42559047619052
953.853,85.8209190476191
956.222,78.96202857142865
958.589,100.46986952380959
960.954,87.63220761904766
963.318,89.78442000000005
965.68,69.83320190476194
968.041,74.87596761904769
970.4,71.86706000000004
972.757,79.38018380952384
975.113,57.79828095238098
977.467,49.21897904761907
979.819,25.882326666666692
982.17,45.17161523809526
984.519,43.61267333333337
986.866,46.49340095238098
989.212,49.67304571428575
991.556,49.29652190476193
993.899,65.55652380952388
996.24,94.16915238095245
998.579,107.08875238095243
1000.92,99.55536190476192
1003.25,49.237414285714294
1005.59,30.994019047619098
1007.92,51.68399523809528
1010.25,56.642114285714314
1012.58,70.58431428571433
1014.91,86.17863809523813
1017.24,79.75979047619055
1019.56,89.56718571428577
1021.88,97.26853333333338
1024.2,92.3883952380953
1026.52,85.59458571428578
1028.84,106.98286190476199
1031.16,123.31617619047627
1033.48,128.16621904761914
1035.79,154.34301428571436
1038.1,170.08475238095247
1040.41,164.58252380952393
1042.72,196.0266190476192
1045.03,192.6079523809525
1047.33,188.23080952380963
1049.64,188.22862857142863
1051.94,149.31546190476197
1054.24,126.25297142857153
1056.54,142.46920476190485
1058.84,147.8209238095239
1061.13,163.59312857142868
1063.43,176.30905714285723
1065.72,167.3488095238096
1068.01,153.14019047619055
1070.3,153.73023809523815
1072.59,127.6418095238096
1074.87,133.9692380952382
1077.16,162.711142857143
1079.44,195.53328571428585
1081.72,206.72009523809535
1084.0,234.46100000000013
1086.28,255.0879523809526
1088.56,318.26609523809555
1090.84,435.18442857142884
1093.11,535.7466666666669
1095.38,557.6655714285718
1097.65,544.3681904761906
1099.92,458.9480952380955
1102.19,368.3083809523811
1104.46,312.3521904761907
1106.72,303.88761904761924
1108.98,287.6746190476192
1111.24,334.0446190476193
1113.5,370.80552380952406
1115.76,393.9081904761907
1118.02,406.2552380952383
1120.28,420.6547142857145
1122.53,403.7233809523812
1124.78,364.8878095238097
1127.03,289.956142857143
1129.28,218.73576190476203
1131.53,169.5103333333334
1133.77,142.84957142857152
1136.02,135.70395238095244
1138.26,142.5000476190477
1140.5,154.85504761904775
1142.74,190.38576190476203
1144.98,175.37623809523816
1147.22,185.39576190476203
1149.45,182.01390476190485
1151.69,186.65766666666676
1153.92,192.84861904761914
1156.15,171.25171428571434
1158.38,143.2937523809525
1160.61,128.92503809523816
1162.83,124.33402857142866
1165.06,117.18600952380959
1167.28,119.38372380952387
1169.5,103.83037619047627
1171.72,122.5716095238096
1173.94,115.17730000000006
1176.16,103.7409952380953
1178.37,93.68978571428575
1180.58,78.49819523809526
1182.8,56.117090476190505
1185.01,32.306652380952386
1187.22,32.589442857142885
1189.42,21.916419047619065
1191.63,28.1909904761905
1193.84,32.50707142857144
1196.04,40.48250476190478
1198.24,10.830404761904775
1200.44,21.54969523809526
1202.64,33.306090476190505
1204.84,46.76537142857146
1207.03,58.926833333333356
1209.23,47.88507142857142
1211.42,22.353928571428597
1213.61,23.809176190476215
1215.8,28.631633333333365
1217.99,44.821185714285754
1220.18,50.996980952380966
1222.36,47.683042857142894
1224.55,49.16542952380955
1226.73,40.87312952380954
1228.91,22.092478095238107
1231.09,27.681308571428595
1233.27,29.164173333333373
1235.44,64.73260571428577
1237.62,87.48269619047623
1239.79,103.12996666666673
1241.96,100.38984285714291
1244.13,105.02539047619054
1246.3,95.3714571428572
1248.47,91.95349047619052
1250.64,87.01080952380958
1252.8,108.9263476190477
1254.96,125.51113809523818
1257.13,162.7192523809525
1259.29,175.124361904762
1261.44,193.34733333333344
1263.6,207.67576190476203
1265.76,212.01631428571437
1267.91,178.13293333333343
1270.06,163.17086666666674
1272.22,130.75154285714294
1274.37,128.2104857142858
1276.51,127.54983809523816
1278.66,132.72431428571434
1280.81,112.78376190476197
1282.95,125.63571428571436
1285.09,131.13976190476197
1287.23,134.4888952380953
1289.37,121.87596190476198
1291.51,110.39902380952387
1293.65,98.10806666666674
1295.78,98.4818857142858
1297.92,117.33257142857148
1300.05,105.51982857142862
1302.18,95.7607333333334
1304.31,100.67682380952388
1306.44,120.74712380952388
1308.57,137.1646476190477
1310.69,152.93183809523813
1312.82,146.2418095238096
1314.94,139.24028571428582
1317.06,179.50109523809536
1319.18,201.83638095238106
1321.3,195.010761904762
1323.41,186.6457142857144
1325.53,181.02938095238108
1327.64,198.06942857142874
1329.75,259.1013333333335
1331.87,295.6510952380954
1333.98,285.29295238095256
1336.08,266.9814761904763
1338.19,229.33795238095252
1340.3,202.50766666666675
1342.4,175.58783809523817
1344.5,146.72326666666675
1346.6,101.91646190476195
1348.7,80.26440000000005
1350.8,72.95983809523814
1352.9,67.05219047619053
1354.99,78.82906666666673
1357.09,94.9589333333334
1359.18,99.96701428571437
1361.27,119.42654285714293
1363.36,122.38678095238103
1365.45,123.84909523809532
1367.54,143.2432380952382
1369.62,165.9992857142858
1371.7,179.83238095238107
1373.79,220.12476190476207
1375.87,233.4966666666668
1377.95,243.90133333333347
1380.03,236.38690476190487
1382.1,203.66850476190487
1384.18,155.07989047619054
1386.25,119.09753809523816
1388.33,105.72210000000008
1390.4,112.66782380952388
1392.47,119.36346666666674
1394.54,118.71382857142862
1396.6,86.29008571428575
1398.67,52.47285238095243
1400.74,57.26182857142862
1402.8,80.84669047619055
1404.86,106.60764285714293
1406.92,116.35332380952384
1408.98,98.93986666666673
1411.04,92.0327714285715
1413.09,86.63103333333339
1415.15,80.49523333333337
1417.2,90.67114761904769
1419.25,103.10989047619054
1421.3,103.19067619047625
1423.35,96.00696190476195
1425.4,84.36654761904767
1427.45,76.74354761904767
1429.49,81.51687619047624
1431.54,85.92283809523813
1433.58,72.76879047619052
1435.62,71.43334761904768
1437.66,77.77166666666673
1439.7,98.59086666666673
1441.74,91.50786666666669
1443.77,79.66320952380956
1445.81,40.62600000000002
1447.84,25.29846666666669
1449.87,25.24994285714289
1451.9,49.049309523809576
1453.93,75.45620476190484
1455.96,103.27782857142864
1457.98,116.1310095238096
1460.01,122.96576190476199
1462.03,154.01766666666677
1464.05,180.9511904761906
1466.07,201.43080952380964
1468.09,213.83500000000015
1470.11,250.35228571428587
1472.13,261.26585714285727
1474.14,290.4780000000001
1476.16,263.1296666666668
1478.17,236.59982857142867
1480.18,184.93378095238103
1482.19,163.5581714285715
1484.2,113.18497142857146
1486.21,87.00250000000005
1488.21,45.48490952380955
1490.22,43.34465809523812
1492.22,23.532060476190495
1494.22,35.09280666666668
1496.22,28.167868095238113
1498.22,42.51731142857146
1500.22,41.663108095238115
1502.22,46.74636285714288
1504.21,40.47964285714288
1506.21,43.76607238095241
1508.2,28.889784285714295
1510.19,33.61114952380953
1512.18,21.500139523809537
1514.17,22.174463809523836
1516.16,39.442327142857174
1518.14,54.35015809523811
1520.13,40.56354476190478
1522.11,23.081447142857144
1524.09,15.998208571428588
1526.07,8.21783380952382
1528.05,11.02531809523811
1530.03,22.324842380952397
1532.01,38.97312095238098
1533.98,45.25550000000003
1535.96,61.98124761904764
1537.93,53.48358095238096
1539.9,35.61961904761907
1541.87,21.008442857142875
1543.84,17.126404761904777
1545.81,16.640414285714314
1547.78,40.16990476190481
1549.74,63.90570000000005
1551.7,94.56242857142863
1553.67,113.23616666666673
1555.63,103.9750571428572
1557.59,92.2082952380953
1559.55,93.84150476190482
1561.5,102.35163809523817
1563.46,117.92994285714293
1565.41,126.0062952380953
1567.37,108.7719571428572
1569.32,97.08519047619053
1571.27,83.99450476190484
1573.22,90.97709523809532
1575.17,105.79610476190483
1577.11,113.97652857142862
1579.06,107.18623333333339
1581.0,107.95030952380958
1582.95,113.60330476190484
1584.89,127.76526190476199
1586.83,117.00918571428576
1588.77,104.4790571428572
1590.7,84.31910952380957
1592.64,72.48288095238101
1594.58,82.06702380952379
1596.51,78.54880238095218
1598.44,43.09604999999968
