Raman Shift,Processed Intensity
331.095,61.65556995828592
333.909,63.854384473153914
336.721,46.693265092575984
339.531,26.00555131336023
342.339,24.743642578302115
345.145,57.33614729681949
347.949,87.92598424651578
350.751,100.51324587951831
353.55,103.8123473430951
356.348,98.58536597647571
359.144,119.49919033147171
361.937,152.36362157405665
364.729,168.70280821927918
367.518,198.4695380090361
370.306,249.90238693271112
373.091,300.0495349144703
375.874,363.1973434053343
378.656,393.6322663085821
381.435,403.92657042895826
384.212,333.8907225885523
386.988,241.43053864743206
389.761,112.64242776238052
392.532,48.575303312289634
395.301,-16.8170299859612
398.068,-8.390155628289449
400.833,16.810008459137407
403.596,-0.73849994470811
406.358,-22.890826652922897
409.117,-10.216249891670941
411.874,-67.42674824416918
414.629,-41.0912852940055
417.382,-15.350095329998112
420.133,-17.676595694929347
422.882,12.646410672683942
425.629,14.907673933764272
428.374,45.062719880603254
431.117,122.92431185698342
433.858,173.5910094409387
436.597,212.39953665132498
439.334,209.7819120591521
442.069,145.59876937512263
444.802,122.4726780371675
447.533,94.88336855988564
450.262,77.07248169350532
452.989,113.32926996379547
455.714,147.0382039738879
458.438,175.58372156323458
461.159,166.01688172847298
463.878,143.3410661633361
466.595,94.60720460808034
469.31,88.96138115129224
472.024,80.59720243645006
474.735,81.56530872563553
477.444,64.05907543942385
480.152,94.74793374440605
482.857,100.11069931667771
485.561,127.10224104220606
488.262,136.6772925743403
490.962,133.21902579607968
493.659,117.96762428234615
496.355,111.78219009559507
499.048,122.80741248618551
501.74,156.90214135466294
504.43,196.2108178568892
507.118,254.54442881869863
509.804,306.5233659124542
512.488,341.9107610240735
515.17,385.56486923911416
517.85,413.1533565907571
520.528,429.77234971254893
523.204,469.5654854911445
525.878,492.9620083381087
528.551,499.9148674617077
531.221,493.94833794823853
533.89,490.967546605249
536.556,486.0679978047633
539.221,485.2974802788931
541.883,480.9417834392498
544.544,497.9532708392262
547.203,489.23659649341107
549.86,504.9344211970106
552.515,530.9512240833456
555.168,558.3342570384971
557.819,572.6068800683265
560.469,574.7209442845478
563.116,584.1044129860306
565.761,552.2327922639079
568.405,547.2481806543201
571.047,549.7687949816159
573.687,525.7937342967998
576.324,481.32202953026217
578.96,479.6859788587876
581.594,400.1701973582958
584.227,394.6782857041835
586.857,371.0661655383474
589.485,378.0944624552503
592.112,400.85707946417824
594.737,448.49548473721006
597.359,440.96061840480934
599.98,504.2509898275971
602.599,519.7936320109884
605.216,541.1583893531497
607.831,578.1055387262945
610.445,601.538172462745
613.056,605.2164861028914
615.666,632.3292090002956
618.274,674.6364634982201
620.88,721.326909820445
623.484,785.3510814382771
626.086,802.3261490089817
628.686,831.6311605046944
631.284,859.6451384841907
633.881,910.8423202217941
636.476,954.887397836279
639.068,957.7783774673971
641.659,886.8942003571642
644.249,809.6137925025719
646.836,697.3160666892522
649.421,586.8561150013361
652.005,489.0890203789272
654.587,385.67938246129006
657.166,288.1965577157671
659.745,247.4003757571545
662.321,176.33637947660964
664.895,143.81201755151415
667.468,113.20617028866673
670.038,106.6596278484385
672.607,95.78937799272808
675.174,128.06956049958944
677.739,125.8314691969058
680.303,111.5016492341556
682.864,44.363803877989994
685.424,17.796891783999854
687.982,-14.582013826749517
690.538,-5.441528119287796
693.092,19.454529998640282
695.645,8.294763772687475
698.195,-18.875033233893646
700.744,-38.91377361472496
703.291,-33.680305053386746
705.836,-16.03340321945666
708.38,20.73965956139409
710.921,36.39930382077637
713.461,73.65840216609058
715.999,62.944183469277505
718.535,65.16013705557339
721.069,55.06696451130165
723.602,45.37781720595876
726.133,79.18686714763044
728.662,102.3502587907833
731.189,94.91467989167586
733.714,83.45069426853001
736.238,72.71940789504401
738.759,55.862944517710275
741.279,43.02349270171112
743.798,39.533781448235914
746.314,36.15517485942064
748.829,34.93481442233224
751.342,31.91990415009468
753.853,24.15771000873042
756.362,-2.637773989333027
758.869,22.009411736818947
761.375,48.67052509676023
763.879,66.2025976809316
766.381,65.17700535093763
768.882,75.06994359175064
771.38,67.97671238771864
773.877,52.754572527149094
776.372,54.64179238308043
778.866,64.4005042178635
781.357,59.41194144011911
783.847,60.29548538551717
786.335,50.337235907069726
788.821,16.013820060668195
791.306,15.659057933467693
793.789,63.84491418655648
796.27,119.19102102620059
798.749,198.9361059369844
801.227,244.6998956054333
803.702,223.53073412934395
806.176,227.4770107509289
808.649,233.77763520900498
811.119,263.33822737689184
813.588,285.3025449955551
816.055,266.2429590257964
818.521,220.20807185758213
820.984,186.67509742413858
823.446,186.35938417318926
825.906,189.35727137152185
828.365,187.33656445718975
830.821,157.72701039170033
833.276,130.72029682173093
835.729,97.07957505037416
838.181,95.52041157981444
840.631,95.04412060636446
843.079,120.22347746788364
845.525,117.20271780548183
847.97,94.41182243950766
850.412,59.32842129315668
852.854,30.76350683988744
855.293,26.52809993179153
857.731,42.43324896130093
860.167,59.194790927650274
862.601,28.81430297953716
865.034,13.91243491016121
867.465,2.062241652261264
869.894,-4.591769941130224
872.321,-3.286022887366016
874.747,8.504986230378336
877.171,-2.883694988417119
879.594,1.121095038462954
882.014,5.473487390337596
884.433,5.127628345081348
886.851,18.942439366289136
889.266,45.91971042377418
891.68,38.96600283787643
894.092,52.416456885681555
896.503,61.034789883422945
898.912,79.72757998317093
901.319,108.1156928266621
903.724,109.2485653419858
906.128,103.98515620693342
908.53,112.66061059805838
910.931,101.46721065402198
913.329,94.45437355798776
915.726,92.48103057240019
918.122,82.02514893090256
920.516,94.94563468263345
922.908,76.05375934605604
925.298,60.684586562772665
927.687,30.935065418017757
930.074,49.6164094754231
932.459,67.68266628797892
934.843,87.373572623281
937.225,73.40502873639639
939.605,55.44528692844369
941.984,23.210187724230536
944.361,20.986967478457018
946.736,35.01520883906437
949.11,59.820172162964354
951.482,59.64136502700512
953.853,50.71825459608294
956.222,25.00455141982161
958.589,16.072969419731862
960.954,43.97236682874859
963.318,52.03726808314923
965.68,49.45929047637719
968.041,32.5252374795316
970.4,30.140906347570308
972.757,12.735848106471622
975.113,37.644318016584066
977.467,25.200511750263786
979.819,-4.213817478107103
982.17,-12.97888463924346
984.519,-1.9035414732254594
986.866,-21.93956455341845
989.212,-0.37213517446730293
991.556,17.132537707670508
993.899,13.860544605980749
996.24,49.1455073564623
998.579,65.79714601940168
1000.92,54.386990031924825
1003.25,36.86742269387901
1005.59,21.619297082284675
1007.92,17.21383768007763
1010.25,33.69835152865221
1012.58,28.167655828793386
1014.91,34.33550727580814
1017.24,35.34412663275634
1019.56,20.62134235129838
1021.88,14.73773419254826
1024.2,1.7875863717326865
1026.52,-8.515871503836706
1028.84,38.683349431233864
1031.16,74.09828754220143
1033.48,93.10855813493686
1035.79,115.14130946810496
1038.1,117.57598828915388
1040.41,120.69672441792113
1042.72,143.50185818738555
1045.03,126.8944202653704
1047.33,119.01546861910401
1049.64,126.86313976550059
1051.94,115.91170002143735
1054.24,114.34964437308258
1056.54,112.41303344045855
1058.84,114.1474018705751
1061.13,132.40776196865886
1063.43,134.57289304366896
1065.72,143.54534503952095
1068.01,149.56096597582996
1070.3,144.95081034104055
1072.59,159.56971415221847
1074.87,164.74867953865623
1077.16,187.5805926588116
1079.44,214.9678463791497
1081.72,239.81282009585334
1084.0,279.6845500327131
1086.28,309.723494777126
1088.56,364.83201510180106
1090.84,454.3410442626521
1093.11,512.2958059157415
1095.38,564.5510558437409
1097.65,550.5329903490685
1099.92,478.5725832184478
1102.19,422.71511316366036
1104.46,367.72016745277415
1106.72,344.39497887470725
1108.98,353.16585794187563
1111.24,347.88772033093437
1113.5,368.60599527590307
1115.76,400.2709149136697
1118.02,450.45180362949804
1120.28,492.05136740253465
1122.53,513.3533164846529
1124.78,481.92713093643783
1127.03,433.9137785441244
1129.28,344.8352422603457
1131.53,281.5469047877375
1133.77,218.99945697206658
1136.02,207.66747286202644
1138.26,184.83512762617033
1140.5,203.69143927937557
1142.74,201.28265326645055
1144.98,248.89319847430556
1147.22,262.9504527679362
1149.45,287.0247466216447
1151.69,278.11508103597316
1153.92,284.36341688320726
1156.15,247.14991663383398
1158.38,236.9500908448956
1160.61,186.477658934067
1162.83,151.68455281086995
1165.06,135.57044431740883
1167.28,128.8017964786343
1169.5,115.37853380022602
1171.72,81.91976018552282
1173.94,56.3780482810248
1176.16,55.229919298084496
1178.37,62.904418072698036
1180.58,58.06883098243452
1182.8,43.819165768132734
1185.01,7.775393260357532
1187.22,-26.96616803699635
1189.42,-40.07094355357799
1191.63,-38.06133632123374
1193.84,-7.935773058270797
1196.04,-12.978230818204565
1198.24,-11.663005876572242
1200.44,-14.083292970471575
1202.64,1.0488055254588744
1204.84,15.116554912804077
1207.03,43.265242951782284
1209.23,48.16407284714387
1211.42,26.339486336500386
1213.61,16.746582016746515
1215.8,7.245295575240789
1217.99,15.124199068606686
1220.18,37.14811142032568
1222.36,46.462852518775435
1224.55,51.976189327397606
1226.73,51.21497247105253
1228.91,14.753701393804477
1231.09,15.30975618337061
1233.27,17.600534157471884
1235.44,-3.180364425882317
1237.62,50.874955665652806
1239.79,66.53154036928845
1241.96,67.50682267659272
1244.13,116.6134780306038
1246.3,152.28323210388476
1248.47,184.5668590527755
1250.64,259.56275120021337
1252.8,320.75025062331997
1254.96,386.3229807409841
1257.13,472.56979694906795
1259.29,535.5890705889426
1261.44,639.050591963645
1263.6,699.3384257349912
1265.76,738.5509091778283
1267.91,725.072079005713
1270.06,661.3335743870712
1272.22,589.7670161518283
1274.37,542.3278145694644
1276.51,465.44754855564565
1278.66,410.4149163074296
1280.81,370.5185907003661
1282.95,317.38055087608404
1285.09,289.38465192510625
1287.23,272.8194802839562
1289.37,257.8783519894014
1291.51,265.8974061707911
1293.65,272.7365556852542
1295.78,259.8271044195601
1297.92,270.0288884015065
1300.05,300.1064645303518
1302.18,289.2529183548718
1304.31,290.8041480418806
1306.44,287.1912435828515
1308.57,280.0833421910095
1310.69,295.6257217936643
1312.82,299.392180238832
1314.94,289.09931926375316
1317.06,276.03511417770164
1319.18,290.9160549733681
1321.3,300.55381124776204
1323.41,332.37903998026763
1325.53,343.53662188211865
1327.64,352.64756441254895
1329.75,345.66614289017093
1331.87,317.92751779483183
1333.98,294.81439968851964
1336.08,281.8522855648364
1338.19,262.1380285318121
1340.3,222.33983606614402
1342.4,216.64964921981482
1344.5,191.54504563624027
1346.6,184.93209494736607
1348.7,180.95488083743498
1350.8,151.75740405913325
1352.9,90.10262830688248
1354.99,77.6105737091791
1357.09,72.66307698759874
1359.18,78.6418849491306
1361.27,90.6429384547057
1363.36,89.38113257819327
1365.45,75.47602914635422
1367.54,88.92804546926504
1369.62,101.02321449932083
1371.7,108.90461165689658
1373.79,115.14378165601761
1375.87,147.83597485382984
1377.95,143.64776455244942
1380.03,150.00752144367357
1382.1,157.29588805368894
1384.18,118.94101509254756
1386.25,100.27570256554918
1388.33,92.2516837417586
1390.4,70.34438531300361
1392.47,63.267211362394164
1394.54,36.06677971379372
1396.6,-10.496127432996445
1398.67,-40.422755724189074
1400.74,-41.52399578224754
1402.8,-8.658477660979543
1404.86,27.79123491684163
1406.92,34.442445653277446
1408.98,40.43612583958429
1411.04,24.38928878356228
1413.09,32.918796284498285
1415.15,30.022307965252594
1417.2,39.84018547404639
1419.25,56.60787619251596
1421.3,82.84639521392955
1423.35,111.31471208330004
1425.4,134.72404229940753
1427.45,132.83309119776754
1429.49,130.01948830979563
1431.54,96.94645981720328
1433.58,70.89616767306575
1435.62,54.722096341935185
1437.66,52.23001096852863
1439.7,65.41605840355737
1441.74,80.60963013432047
1443.77,79.0447966438669
1445.81,73.19364653206435
1447.84,79.29010182714455
1449.87,79.09182853534571
1451.9,79.73738528578565
1453.93,105.31765768962555
1455.96,134.87586412779615
1457.98,157.88375201491772
1460.01,172.90827025369435
1462.03,183.13538454645322
1464.05,229.9891308019196
1466.07,331.2268590181841
1468.09,427.6535247847178
1470.11,540.7407426891507
1472.13,630.7220302002456
1474.14,735.2594801222956
1476.16,841.3009092399996
1478.17,964.2703402966717
1480.18,1022.8299125438791
1482.19,1022.2132208625042
1484.2,990.8443691695302
1486.21,883.4808333486326
1488.21,745.9277527521995
1490.22,616.8950788462098
1492.22,472.18805718844374
1494.22,325.9453284543165
1496.22,239.92464851032832
1498.22,144.74098943990043
1500.22,95.86654533111005
1502.22,76.91645235014971
1504.21,59.17260405288016
1506.21,30.05984764876007
1508.2,23.24122788382624
1510.19,2.5227547331978712
1512.18,-20.76563843022859
1514.17,-19.00818428613229
1516.16,-19.2080374275522
1518.14,-23.558699064989923
1520.13,9.79408009189774
1522.11,30.133252087468236
1524.09,19.83713578215179
1526.07,15.331796183819051
1528.05,-1.337528601809936
1530.03,-16.887381373138396
1532.01,17.775341117711832
1533.98,41.934338788596506
1535.96,62.7305713802441
1537.93,79.495588275817
1539.9,89.70390593952038
1541.87,86.59205202187832
1543.84,94.58713327453415
1545.81,78.83064156028513
1547.78,64.41654557740503
1549.74,72.0579540125409
1551.7,80.42044536027038
1553.67,93.93158821885459
1555.63,123.73331872885046
1557.59,136.44384182123986
1559.55,136.15762770365995
1561.5,145.06445596568028
1563.46,143.83036444598292
1565.41,132.4071695281218
1567.37,129.84198643627474
1569.32,109.84865429290426
1571.27,100.90297070022666
1573.22,96.9569739407309
1575.17,99.77227279674321
1577.11,81.96766208427516
1579.06,44.923881044014934
1581.0,6.021705065650394
1582.95,3.1181326502876345
1584.89,26.73685808715595
1586.83,47.49683936840529
1588.77,71.8741997500506
1590.7,59.9641293129182
1592.64,45.623738904540915
1594.58,40.472056938199785
1596.51,36.43764523958339
1598.44,32.02050060773013
