Raman Shift,Processed Intensity
331.095,126.29504332599026
333.909,140.68753359915672
336.721,140.55313105498954
339.531,134.0585149879248
342.339,137.29896137651212
345.145,132.72692693975887
347.949,143.29491890774898
350.751,153.95550764940663
353.55,172.66133930026444
356.348,200.1270531521377
359.144,248.54357999517788
361.937,260.86386903135144
364.729,281.13623383554295
367.518,292.7900792690398
370.306,303.5882950596847
373.091,393.3415541439417
375.874,468.62261100895785
378.656,513.3377428917725
381.435,480.9172385975776
384.212,361.5058873179787
386.988,220.43918173495604
389.761,116.33856874388721
392.532,48.15908112894476
395.301,21.808397809926646
398.068,-18.329334006154113
400.833,-44.869676673473805
403.596,-40.61836567009277
406.358,-46.380822636164794
409.117,-3.581196910062772
411.874,-19.214744629961388
414.629,-36.32402223204372
417.382,-62.33222316540014
420.133,-70.99556419287
422.882,-39.11758025102745
425.629,10.165145397619199
428.374,37.43057660001523
431.117,89.68548228530017
433.858,140.65112402747172
436.597,164.4775150366263
439.334,188.02910772162204
442.069,157.1228622051308
444.802,117.43298150534929
447.533,80.06231338438056
450.262,101.58994267281514
452.989,135.35687883240007
455.714,184.13269589967376
458.438,180.25836290578536
461.159,134.55097905822322
463.878,100.25612797016129
466.595,60.14308903266283
469.31,39.36195354877873
472.024,38.538836105752125
474.735,51.96632404244747
477.444,52.88916899653714
480.152,63.36141093898641
482.857,47.91303123525222
485.561,37.359468168869626
488.262,32.08732294123229
490.962,78.57816578257143
493.659,103.26567925140625
496.355,118.86899534992517
499.048,135.63079454413082
501.74,136.364928593508
504.43,164.78975766640542
507.118,193.8138684077976
509.804,236.44083962609238
512.488,317.5311508370801
515.17,426.5640908078826
517.85,500.30442800566607
520.528,537.4214619987392
523.204,514.5842653338318
525.878,515.2712111276555
528.551,508.10331018228544
531.221,517.7489766719559
533.89,497.6383176393897
536.556,482.391708206414
539.221,473.81979535600294
541.883,497.68540647621785
544.544,523.655934094631
547.203,518.5414348984555
549.86,474.8184430403903
552.515,500.34425963494914
555.168,525.8331470166945
557.819,551.7610944270455
560.469,569.4610598915579
563.116,561.9324978114805
565.761,561.6032675077026
568.405,564.4724941456525
571.047,546.8724772792384
573.687,521.5639327281242
576.324,470.02171064548156
578.96,447.19670406193245
581.594,452.61109076282355
584.227,442.5964323083581
586.857,408.007963529913
589.485,385.272215359691
592.112,385.8632090889396
594.737,416.6357934833127
597.359,437.11136285061275
599.98,476.52547987043
602.599,515.1612127095023
605.216,590.0634245180222
607.831,674.4197295926124
610.445,749.2747828726274
613.056,772.7683789602766
615.666,786.0878368550248
618.274,814.5632418308514
620.88,829.1436396944673
623.484,886.3970405673326
626.086,946.8437560010066
628.686,999.1944979972627
631.284,1074.1122875520105
633.881,1149.97436319922
636.476,1163.4436133643612
639.068,1170.7542944321326
641.659,1119.9025107189486
644.249,1023.0271706359053
646.836,891.457609518402
649.421,721.9040695986296
652.005,547.2196085494788
654.587,395.01915088559144
657.166,297.7271107929828
659.745,234.43453876817784
662.321,193.70864920973554
664.895,162.02139562881848
667.468,121.51137919309713
670.038,112.55528108017916
672.607,94.29167578342003
675.174,69.62103489392848
677.739,42.20573088256424
680.303,28.422421834322904
682.864,-14.114135245845773
685.424,7.210828370814852
687.982,-8.225991154678013
690.538,-27.285960790106856
693.092,-3.0685004429442415
695.645,18.75559302731699
698.195,25.372723625927847
700.744,61.35031181465001
703.291,27.065373913855183
705.836,-20.58118165730093
708.38,-3.5931152835660214
710.921,-15.926464675320403
713.461,-6.251441266455004
715.999,0.3809111134860359
718.535,-17.17556313688965
721.069,-32.924030456432774
723.602,3.227718565959094
726.133,37.46727314939653
728.662,61.60141234387629
731.189,56.67515347355902
733.714,44.828895818145384
736.238,1.7746119133005323
738.759,-7.299389720352792
741.279,-9.966558991104876
743.798,-15.847817520147828
746.314,-0.04012980474976757
748.829,49.073972230708705
751.342,42.20733926480716
753.853,43.596773656779305
756.362,21.86016995277396
758.869,5.996512534979274
761.375,9.814444699317619
763.879,18.694171066474382
766.381,42.25412189769304
768.882,58.39856979152023
771.38,77.79381780912013
773.877,57.201530456732826
776.372,34.3834932395614
778.866,2.7682769775672114
781.357,7.355997359356479
783.847,60.90878878178046
786.335,107.23651628477569
788.821,96.67296367667382
791.306,111.79011689760887
793.789,84.06482833530299
796.27,82.02167161704688
798.749,134.56627259215134
801.227,196.74721174297247
803.702,240.75602183402907
806.176,310.3081379420778
808.649,316.8333712957103
811.119,343.2854307339944
813.588,344.1895394032158
816.055,353.30909907266437
818.521,321.2171163551809
820.984,309.2962003562727
823.446,274.30998889467014
825.906,239.02219377049164
828.365,206.38707460484147
830.821,181.50181744131237
833.276,146.70177049034646
835.729,172.98901320692949
838.181,167.5561634635169
840.631,150.35780377058222
843.079,122.39619321145369
845.525,104.19745556762518
847.97,99.62110077739499
850.412,111.00287972784145
852.854,95.01192476108235
855.293,74.17455684719971
857.731,46.017140376210136
860.167,36.01846175955916
862.601,33.895441364944645
865.034,27.793607355906033
867.465,37.19185524569616
869.894,31.71196935591206
872.321,15.261477608465611
874.747,8.652696793743416
877.171,6.9360635530465515
879.594,-3.980820353250465
882.014,6.3810953176894145
884.433,12.643735511698424
886.851,17.714754267241688
889.266,37.168484343151476
891.68,76.91260113207454
894.092,99.09288181201009
896.503,97.52177402166785
898.912,90.58315501200673
901.319,102.04185270253811
903.724,105.71030959476889
906.128,119.06762763802817
908.53,132.30718452385736
910.931,114.05091664708152
913.329,111.4921734954396
915.726,127.58619108684115
918.122,114.5262796923364
920.516,115.60096394003403
922.908,106.28921815711738
925.298,96.40332075947322
927.687,94.56504197466029
930.074,86.53897442200855
932.459,44.23253035939365
934.843,49.553081787151086
937.225,78.78891007580933
939.605,85.3711079747693
941.984,101.921195906702
944.361,102.77492873813117
946.736,68.02991207383502
949.11,80.11702807505094
951.482,89.32424223006637
953.853,74.6061244105274
956.222,66.72670326108164
958.589,61.259463446158406
960.954,41.1111524205603
963.318,41.33130148576993
965.68,31.39793732244857
968.041,47.36043638007254
970.4,68.26809355229761
972.757,65.26535751896722
975.113,54.401351802417594
977.467,25.72511010948415
979.819,3.3331926259022566
982.17,-0.820792927388311
984.519,-1.3071464284184913
986.866,-16.458173007089954
989.212,-7.225328400867056
991.556,7.4874450798481575
993.899,29.680857067028455
996.24,52.8316926213397
998.579,36.08328409561386
1000.92,21.674078236417245
1003.25,20.461441380853785
1005.59,14.969274177181205
1007.92,30.34038821018794
1010.25,37.812694196808025
1012.58,14.433486926735668
1014.91,-1.0357936064815476
1017.24,13.68996083041202
1019.56,-3.294758321824702
1021.88,34.39011463702718
1024.2,51.934031149334714
1026.52,40.43106811440066
1028.84,28.260881888964832
1031.16,19.85061466865818
1033.48,13.293943726601356
1035.79,52.20822589009481
1038.1,99.54402496662078
1040.41,117.10892623173413
1042.72,130.04373186932685
1045.03,134.15579926904093
1047.33,134.9190459903482
1049.64,127.23585948853679
1051.94,145.43710207878848
1054.24,162.1868778050209
1056.54,167.0539659753947
1058.84,168.41658803115524
1061.13,147.03384108213777
1063.43,116.04570287084152
1065.72,99.21113197459954
1068.01,128.14616800774706
1070.3,148.41917468093425
1072.59,158.12227333662304
1074.87,172.06182410363408
1077.16,171.28224038502526
1079.44,182.87551763168676
1081.72,234.98123830641111
1084.0,285.16752922892147
1086.28,324.52630463517835
1088.56,401.29231876050176
1090.84,488.3669803274486
1093.11,550.6516908432154
1095.38,593.3335638494266
1097.65,556.9806679814385
1099.92,489.78012717051433
1102.19,417.6809827507425
1104.46,369.4418174707298
1106.72,334.86885569576225
1108.98,329.101682657586
1111.24,345.0894398946639
1113.5,396.8765445019519
1115.76,454.22174171400843
1118.02,505.4076336785861
1120.28,558.7168748968802
1122.53,546.4797962352122
1124.78,509.16964798433014
1127.03,430.3073667282267
1129.28,353.46158030820106
1131.53,286.96289850120866
1133.77,256.7610608410687
1136.02,228.9963701539598
1138.26,233.23779276057485
1140.5,238.34010629732825
1142.74,254.49152372803724
1144.98,295.832745927034
1147.22,315.69506188132095
1149.45,313.8860679403492
1151.69,332.0230061134064
1153.92,337.9137214146365
1156.15,325.89000016042996
1158.38,302.8551939811016
1160.61,243.71279621352323
1162.83,192.08073257946876
1165.06,173.624699483011
1167.28,178.29626421267767
1169.5,171.14239371503868
1171.72,146.8768881301953
1173.94,125.3565762320327
1176.16,103.62893943990343
1178.37,87.5035453541143
1180.58,68.5996717676046
1182.8,59.91774020142725
1185.01,28.648844678332352
1187.22,14.746185258247579
1189.42,-4.693974616711557
1191.63,-16.6703983962816
1193.84,-22.705441403041505
1196.04,-13.606949629495375
1198.24,-11.27777932112349
1200.44,-14.334842753994963
1202.64,-35.966250666450605
1204.84,-46.931313005067295
1207.03,-44.13196973723893
1209.23,-39.8508921758571
1211.42,-10.03720843507108
1213.61,26.93157586792404
1215.8,13.773366905909143
1217.99,19.349080411740715
1220.18,27.47214690919759
1222.36,23.62278025057435
1224.55,43.18605763765231
1226.73,51.21381192695844
1228.91,29.3770025120632
1231.09,26.346657634450366
1233.27,54.079578599149954
1235.44,81.24690409289087
1237.62,113.23410574022796
1239.79,104.66479318347206
1241.96,106.2578524959556
1244.13,123.2083941191072
1246.3,190.80679603761905
1248.47,258.5815564784357
1250.64,334.4421466097381
1252.8,424.01233943039915
1254.96,519.77306246897
1257.13,637.2052504826645
1259.29,763.3136505372988
1261.44,824.2934842300842
1263.6,880.149490864811
1265.76,908.5054468175028
1267.91,872.366065854455
1270.06,833.6884232597979
1272.22,767.2390942487691
1274.37,666.1179590476688
1276.51,605.7581984499918
1278.66,539.6881941344723
1280.81,487.2458099355092
1282.95,462.53076835168235
1285.09,397.3094080066562
1287.23,358.4908696815055
1289.37,359.9842347280039
1291.51,350.8413777676194
1293.65,375.8760098667083
1295.78,401.3303407593214
1297.92,368.73221726048564
1300.05,356.1808331080606
1302.18,340.48958166174
1304.31,325.6146228877608
1306.44,336.84535510552314
1308.57,345.32822006753827
1310.69,356.73336518223823
1312.82,365.44511526059114
1314.94,330.13339664366686
1317.06,328.6584946635396
1319.18,340.02343015180963
1321.3,357.99300261478925
1323.41,388.9033095991606
1325.53,409.66174224812085
1327.64,411.5565046670381
1329.75,422.73279995578423
1331.87,412.4785400505916
1333.98,406.3671984230489
1336.08,389.82923420766747
1338.19,366.29494490087745
1340.3,324.5754142981182
1342.4,262.1006032880773
1344.5,202.58601207550237
1346.6,134.08029478496132
1348.7,109.10811215984154
1350.8,91.43203188040025
1352.9,73.24300031038706
1354.99,43.87462376747271
1357.09,39.80316407939813
1359.18,27.2189627115456
1361.27,56.931202666028184
1363.36,56.177436327113355
1365.45,79.95692563092393
1367.54,70.74493461609882
1369.62,89.8260695934955
1371.7,116.81809550637013
1373.79,171.24337133817062
1375.87,184.10028552032463
1377.95,190.62516753051227
1380.03,163.14943758616755
1382.1,131.05199443322545
1384.18,89.8544602777215
1386.25,102.36404476500843
1388.33,82.53069467325872
1390.4,62.82805313077347
1392.47,34.20584740473191
1394.54,0.2327528804121357
1396.6,-15.713123911967614
1398.67,-10.063282624655585
1400.74,-38.91596163347026
1402.8,-33.226605588016355
1404.86,-27.712619742283778
1406.92,-6.853366635291195
1408.98,11.347928857648412
1411.04,30.364176244958344
1413.09,29.192034463947266
1415.15,59.20905190768872
1417.2,101.0784285701011
1419.25,129.8442573368402
1421.3,153.55057479999846
1423.35,170.33660254898973
1425.4,174.34151227096368
1427.45,181.08538132740318
1429.49,174.13586261643832
1431.54,143.2986639589758
1433.58,138.09374177054087
1435.62,124.23149473312174
1437.66,112.75562413367834
1439.7,99.75742277407903
1441.74,89.13768292865416
1443.77,92.17812811127396
1445.81,126.77951150909576
1447.84,147.36638108297643
1449.87,144.02993990597884
1451.9,112.00423983521318
1453.93,105.28523232653652
1455.96,131.63077163020012
1457.98,180.17966560554896
1460.01,223.30882177380886
1462.03,265.4903933708872
1464.05,297.62511587635413
1466.07,399.9470721138555
1468.09,543.7856002086723
1470.11,677.7081539262281
1472.13,824.1393534867873
1474.14,999.5514649515837
1476.16,1133.9882129422808
1478.17,1249.3504981223396
1480.18,1343.5392575355347
1482.19,1336.9316582778008
1484.2,1253.3811006928904
1486.21,1138.6457929966043
1488.21,968.1506592343562
1490.22,778.034961524444
1492.22,612.1999223013349
1494.22,456.2134894160829
1496.22,332.64367266532554
1498.22,233.3442612726567
1500.22,170.31196994143647
1502.22,125.92453728855298
1504.21,82.36930046865632
1506.21,77.92891265553794
1508.2,56.743250999692464
1510.19,34.57132458588444
1512.18,7.1246109621413325
1514.17,-21.59960733124899
1516.16,-28.080144327981998
1518.14,22.25190281550954
1520.13,39.53696498279078
1522.11,52.72509498010663
1524.09,54.62358747125518
1526.07,-4.3887344208712875
1528.05,-14.171042036553672
1530.03,-12.153833625327252
1532.01,-8.053219627108774
1533.98,2.462409613345926
1535.96,37.15333391337981
1537.93,26.351357246794123
1539.9,50.34075722828129
1541.87,45.358282216910084
1543.84,33.40267222913212
1545.81,46.99656080416912
1547.78,84.51980544082767
1549.74,129.54281803431127
1551.7,154.5884667416051
1553.67,207.4177873706692
1555.63,193.79188524582491
1557.59,170.94812278742438
1559.55,153.79059280580464
1561.5,155.12821084286384
1563.46,156.81756941839467
1565.41,198.2867446573764
1567.37,196.24957910774037
1569.32,164.41996455813364
1571.27,143.94041056997753
1573.22,120.85823205714178
1575.17,96.60173686562143
1577.11,89.12308001988094
1579.06,93.99349892157397
1581.0,96.26045331017508
1582.95,106.40000331884767
1584.89,97.88823514935802
1586.83,89.53459150889944
1588.77,83.19615442786267
1590.7,72.9681185538036
1592.64,74.13616920731374
1594.58,65.03362234265205
1596.51,50.25570736551913
1598.44,28.9690880460696
