Raman Shift,Processed Intensity
331.095,83.47099059530274
333.909,80.07218375584989
336.721,97.05121339699735
339.531,130.40808786034904
342.339,192.88092740879938
345.145,230.803115425309
347.949,238.07949723070988
350.751,229.37686461581006
353.55,188.31444037349502
356.348,154.65436283082636
359.144,177.73026561924553
361.937,197.39966696857982
364.729,208.80588281057408
367.518,248.80660654909752
370.306,285.4024888303479
373.091,327.3561935035318
375.874,402.66859643869657
378.656,409.7692700588377
381.435,385.2783964434402
384.212,347.43534709868163
386.988,260.00345320383076
389.761,156.03191871478566
392.532,75.52249537237913
395.301,-14.046699432172773
398.068,-28.7687933632601
400.833,-9.40338889447321
403.596,-8.090842120283014
406.358,-25.209401727441673
409.117,-46.422825117717366
411.874,-65.9660905957926
414.629,-42.35968363409211
417.382,-7.83817389455271
420.133,13.602152738344103
422.882,15.441371809768043
425.629,17.77875903931863
428.374,54.28515424598845
431.117,104.77437444922725
433.858,153.77462876292384
436.597,174.52850471794818
439.334,163.850097441848
442.069,122.744043600444
444.802,103.02455533942111
447.533,102.8392161306756
450.262,114.33563376152006
452.989,165.23285522864717
455.714,182.8213530606713
458.438,191.39158306923082
461.159,180.13873257628074
463.878,137.54365911759123
466.595,85.42049581290303
469.31,76.53568530751045
472.024,26.369870856701255
474.735,49.30835883876898
477.444,61.49824793469634
480.152,89.08651351391563
482.857,102.41047810608416
485.561,116.71209771659596
488.262,101.28081957066615
490.962,119.12024938121294
493.659,115.4719614738924
496.355,119.9107374835553
499.048,111.72551933641171
501.74,144.30036223220213
504.43,156.0191971501713
507.118,191.02773621217966
509.804,230.51918756962777
512.488,251.68663695705027
515.17,291.05638162665673
517.85,320.67840714003205
520.528,349.07876892173
523.204,354.30721190810755
525.878,337.7466949580662
528.551,324.35148669236787
531.221,331.6471660948564
533.89,336.49252787558135
536.556,388.69863069106486
539.221,402.0764167931361
541.883,390.5795697730059
544.544,377.11403897200125
547.203,380.8237543685045
549.86,380.2811033696398
552.515,387.67740760297056
555.168,411.9181616129554
557.819,427.19446203359485
560.469,421.6972939039424
563.116,439.4746741264662
565.761,431.43165206826825
568.405,407.04459587657993
571.047,430.123097841888
573.687,426.28616547534057
576.324,378.2479363956845
578.96,374.86529797809817
581.594,341.9474117649406
584.227,323.8271426383876
586.857,295.74201180260616
589.485,264.7865783373495
592.112,223.34101122774837
594.737,236.64251853697078
597.359,233.21391943601247
599.98,277.2445971858733
602.599,307.82859497687014
605.216,391.58366414890634
607.831,451.65126479268883
610.445,502.50609016046883
613.056,507.860829172017
615.666,505.4280717777551
618.274,499.68221432186783
620.88,542.0975553816174
623.484,554.2911535114172
626.086,612.8323516535697
628.686,663.0523015490085
631.284,676.9963452908924
633.881,713.0430635448788
636.476,769.9995142455796
639.068,759.7202808168354
641.659,754.155091820563
644.249,698.9678691770241
646.836,590.679585908902
649.421,497.52540959966154
652.005,394.1213696614345
654.587,260.94054841243405
657.166,184.12260548769336
659.745,127.75949272600292
662.321,115.08593096160166
664.895,95.00322014920039
667.468,83.93638282233678
670.038,53.69130755173046
672.607,46.502368594114614
675.174,33.98480744583321
677.739,35.1823524916731
680.303,8.281509973846823
682.864,13.992525075054346
685.424,1.263679881612461
687.982,-4.766312551044393
690.538,3.2793254043908746
693.092,-1.6988350799415457
695.645,-7.27641510040894
698.195,-16.55283254377855
700.744,-12.008430594869424
703.291,-9.266368907120068
705.836,-2.949754610171567
708.38,-19.014965044544624
710.921,-14.132590502179482
713.461,-9.21123441110285
715.999,-6.254648835282296
718.535,2.1144619005572167
721.069,32.2258747402625
723.602,16.74280460050477
726.133,12.138099170273108
728.662,16.360909900829483
731.189,-4.163303670994992
733.714,14.56246849572699
736.238,39.202029364554164
738.759,19.895502954487256
741.279,-3.21685181292537
743.798,-17.804160599822126
746.314,-20.678262662075667
748.829,-1.6508493831452142
751.342,16.180823962662544
753.853,12.481557682097446
756.362,-9.55988715084004
758.869,-13.706978746807408
761.375,-19.913509414929194
763.879,0.43830962338824975
766.381,35.58546633400147
768.882,65.14604967270316
771.38,51.88115138789385
773.877,55.50438687087444
776.372,11.586654101378144
778.866,3.7942259264355016
781.357,17.36493757733797
783.847,57.15580275803222
786.335,49.59539163827344
788.821,62.25525646583219
791.306,49.040404797748806
793.789,55.57024892206391
796.27,94.36907908908233
798.749,137.8660605521593
801.227,179.6333258465811
803.702,203.24311468749852
806.176,244.07729482023205
808.649,267.75593048963356
811.119,285.184898528488
813.588,257.4606473030526
816.055,247.82257470622335
818.521,204.89112043640966
820.984,203.85823922879263
823.446,202.86835027705024
825.906,179.54214379794416
828.365,155.21467331018584
830.821,127.4591621990271
833.276,111.22985789988843
835.729,105.95726703437481
838.181,101.26243816534043
840.631,80.29029217099469
843.079,67.85247642853301
845.525,67.66545709300362
847.97,70.01718280474756
850.412,86.67184363493152
852.854,96.39367765012685
855.293,80.61363461975225
857.731,45.14365877113164
860.167,28.462400115988203
862.601,-5.856217080215629
865.034,6.571288456785169
867.465,29.652237765111295
869.894,22.57969285155059
872.321,23.927691889135758
874.747,34.12743679568007
877.171,35.65776652659292
879.594,21.04515417722064
882.014,31.816085037569792
884.433,16.163720361318838
886.851,30.28122780149738
889.266,52.40939756045282
891.68,71.88425853981244
894.092,48.04183734758817
896.503,77.31339349576456
898.912,96.60636888359181
901.319,136.11390870945866
903.724,139.02914428751774
906.128,120.25947586432176
908.53,104.90276019735325
910.931,123.00921241927131
913.329,125.05759361644436
915.726,144.6218745979586
918.122,120.56170918843554
920.516,97.40338371132225
922.908,67.91124266265729
925.298,83.61149533722141
927.687,73.83983197849375
930.074,70.074754214329
932.459,80.60423882596388
934.843,71.33525865988281
937.225,43.12711306349206
939.605,68.55332974936346
941.984,74.56832856424012
944.361,74.9359900199454
946.736,110.94393811000646
949.11,80.21306122151145
951.482,77.6022711422022
953.853,68.58945254376295
956.222,50.89050770319545
958.589,38.74506789087059
960.954,42.58315713952629
963.318,30.644236965648588
965.68,50.83434632895023
968.041,57.34514635375035
970.4,51.79677457416028
972.757,24.52355632212516
975.113,-6.235521979775513
977.467,-19.81300619218746
979.819,-5.732022519267048
982.17,13.246102348807426
984.519,31.740885639841963
986.866,27.990779921160083
989.212,39.567456350893735
991.556,68.70913554831941
993.899,99.41582603135566
996.24,100.925515035015
998.579,80.5713117108171
1000.92,71.49573318334387
1003.25,62.31737155917904
1005.59,33.702322840604666
1007.92,9.8403777440667
1010.25,-16.221644624219834
1012.58,-28.15132161811175
1014.91,-0.5210984977943554
1017.24,39.048857418805255
1019.56,42.319228077574735
1021.88,56.66963976414013
1024.2,91.0034287539122
1026.52,101.70002600975727
1028.84,91.09115140347012
1031.16,105.12748412773408
1033.48,83.85485691759936
1035.79,69.79521217671913
1038.1,86.18470096073293
1040.41,100.44987719874166
1042.72,128.9219871528785
1045.03,162.5512588778729
1047.33,159.04976310919665
1049.64,156.46284557977629
1051.94,160.16913076527567
1054.24,151.8805256293822
1056.54,165.1660328928981
1058.84,165.9279452552198
1061.13,167.97327771104779
1063.43,182.9661522480635
1065.72,190.4278015922166
1068.01,187.6413348577778
1070.3,209.3184079592952
1072.59,200.02779878545584
1074.87,212.43350618247086
1077.16,214.19951560412892
1079.44,222.32313619042066
1081.72,229.56357594140263
1084.0,267.1562311767718
1086.28,319.76507123354327
1088.56,387.53026125896304
1090.84,457.30626119389717
1093.11,549.2332580895475
1095.38,572.403836519414
1097.65,559.1963156579145
1099.92,507.70332445425265
1102.19,406.92228156817873
1104.46,312.1839705438558
1106.72,286.7239721265737
1108.98,280.4445727699476
1111.24,320.58143504786835
1113.5,374.75122044740897
1115.76,436.713497876018
1118.02,475.0850331210902
1120.28,506.2445545000214
1122.53,508.7137089864507
1124.78,470.5380183365028
1127.03,429.23926378646047
1129.28,344.72025170281813
1131.53,275.2171982799571
1133.77,225.4902094759143
1136.02,219.6328085672053
1138.26,233.1671779893568
1140.5,270.9013059393451
1142.74,272.2147044066087
1144.98,289.39174625167334
1147.22,298.05024038002216
1149.45,307.6652450111976
1151.69,299.9500238050555
1153.92,281.42747817848635
1156.15,243.90634152690927
1158.38,206.81451630289985
1160.61,186.38955395196786
1162.83,175.6310396102399
1165.06,140.82440537356752
1167.28,129.39807689997133
1169.5,121.20919144065829
1171.72,119.11503015674793
1173.94,97.2587361502915
1176.16,96.21217535243181
1178.37,72.21403550680066
1180.58,45.69363943863232
1182.8,23.65190118101873
1185.01,4.804186863069617
1187.22,-28.657776782876
1189.42,-32.30399391404262
1191.63,-32.56143343471854
1193.84,-26.0473611734526
1196.04,-3.9502945979006654
1198.24,25.30332466736263
1200.44,27.572931727756895
1202.64,8.051448420453198
1204.84,-3.020440017205601
1207.03,-9.640008279289304
1209.23,10.86226268593964
1211.42,40.20362951754737
1213.61,48.053838802416294
1215.8,49.93988053464682
1217.99,44.15074157496156
1220.18,7.546921014868985
1222.36,-10.249102078215628
1224.55,-0.8528771063265594
1226.73,15.786772285752022
1228.91,34.6258347010405
1231.09,40.572721202626326
1233.27,18.202543779657162
1235.44,14.852346194294796
1237.62,9.240144352476136
1239.79,3.845873262112036
1241.96,25.33995453639409
1244.13,66.82138864634703
1246.3,101.53203804397867
1248.47,185.33281504733304
1250.64,217.3703459160222
1252.8,255.79125397438497
1254.96,322.7897760679757
1257.13,389.84585521053236
1259.29,468.7251379928482
1261.44,566.8599243725964
1263.6,598.9205936546282
1265.76,609.7679828522273
1267.91,605.9295745721686
1270.06,550.6947325188289
1272.22,515.7337465221035
1274.37,465.669258517707
1276.51,401.26673614651895
1278.66,325.52970825869306
1280.81,274.3188099415738
1282.95,224.35177992857507
1285.09,212.25107705567189
1287.23,223.0200681464703
1289.37,244.9954063734633
1291.51,249.18036200024085
1293.65,242.91148645703356
1295.78,253.95384784482576
1297.92,254.2153140585135
1300.05,238.46083591006777
1302.18,220.836254061217
1304.31,193.29686786089314
1306.44,215.51219465886538
1308.57,240.4850148336634
1310.69,249.598988249076
1312.82,262.23769928207116
1314.94,249.59417804119926
1317.06,230.4804215849881
1319.18,262.13691514034144
1321.3,268.9945342733172
1323.41,278.007875631336
1325.53,291.4171591139659
1327.64,289.1767967103706
1329.75,281.00300895580745
1331.87,278.5166794833608
1333.98,282.24335243281575
1336.08,297.08942033572794
1338.19,279.0564072385823
1340.3,254.19334706405084
1342.4,223.26344768653234
1344.5,162.2678978648355
1346.6,110.35062655581146
1348.7,93.03639556132202
1350.8,72.75460646092438
1352.9,57.07739325884154
1354.99,52.624381697598665
1357.09,24.34840095261893
1359.18,22.10690961252658
1361.27,49.471516897554466
1363.36,57.489887302468105
1365.45,95.92383796608374
1367.54,92.96362651697928
1369.62,108.41842939539038
1371.7,131.38301065130395
1373.79,166.1901050282579
1375.87,152.17232485667319
1377.95,183.37644789955766
1380.03,154.70627662678135
1382.1,149.97025939412333
1384.18,154.54815924135914
1386.25,141.86724649987127
1388.33,94.30706282883216
1390.4,76.81847096566707
1392.47,26.876037809856825
1394.54,5.906607982931519
1396.6,11.622639293224438
1398.67,3.831728676819239
1400.74,-8.277670777883486
1402.8,-13.27910304964007
1404.86,-20.93667629488141
1406.92,-4.205059396796514
1408.98,24.389567704337196
1411.04,30.749513830703336
1413.09,27.300814044633626
1415.15,5.374181412001235
1417.2,5.776434956106186
1419.25,16.504784754398997
1421.3,18.79445091835464
1423.35,46.59485459229222
1425.4,72.09342966000395
1427.45,81.71562681117825
1429.49,93.60110808401555
1431.54,101.7466080745071
1433.58,60.62498562190876
1435.62,45.32808501802356
1437.66,26.566740073625624
1439.7,40.52792104202604
1441.74,52.68426249501431
1443.77,58.50835310357161
1445.81,51.948930180479465
1447.84,37.04993136579287
1449.87,37.85526059801782
1451.9,72.55164932338721
1453.93,80.75437484799568
1455.96,75.9834548804065
1457.98,109.61603255045543
1460.01,141.6959042851929
1462.03,183.6001905419705
1464.05,254.61076844628906
1466.07,300.247609191553
1468.09,356.1735440102541
1470.11,450.90855395467474
1472.13,548.8773930109367
1474.14,651.3143540701808
1476.16,750.9299396616664
1478.17,830.006104114422
1480.18,862.1105433379632
1482.19,877.5728893649068
1484.2,849.6275715602537
1486.21,748.6995349735257
1488.21,630.7851967861466
1490.22,508.1667360921465
1492.22,371.5073360598167
1494.22,272.70833085528034
1496.22,217.6234954231968
1498.22,159.8209543150931
1500.22,138.91651908911672
1502.22,118.52607332884168
1504.21,82.78938623350177
1506.21,57.655830970133366
1508.2,48.55105540666386
1510.19,52.9960337973846
1512.18,21.035642277944362
1514.17,-3.7613370682311142
1516.16,-43.92125976256739
1518.14,-35.54180322142156
1520.13,-21.62529429630513
1522.11,25.826053558439526
1524.09,38.76251827507167
1526.07,32.801149603518525
1528.05,36.98767117710031
1530.03,46.034573054449766
1532.01,43.65444235666223
1533.98,47.36948438063905
1535.96,38.27342466481559
1537.93,32.46007772155235
1539.9,77.78524910286183
1541.87,93.39054222803838
1543.84,100.84621283033607
1545.81,85.53211864174659
1547.78,68.11390717301083
1549.74,64.4953939698205
1551.7,114.29475039282875
1553.67,136.7016437786092
1555.63,146.19152045776013
1557.59,154.3827459158656
1559.55,149.5604116211216
1561.5,149.0572847091114
1563.46,149.44428147709823
1565.41,139.00665516404
1567.37,138.07732658774285
1569.32,148.7987862105906
1571.27,152.02785334812938
1573.22,151.85948299670304
1575.17,131.86485837536884
1577.11,125.47234061066774
1579.06,118.06270413568018
1581.0,99.54056256527429
1582.95,98.76293742849725
1584.89,104.44401737715816
1586.83,97.82182215631315
1588.77,104.89629514618059
1590.7,99.09596733263015
1592.64,78.89700223004934
1594.58,73.27557413754539
1596.51,59.13643687133981
1598.44,26.979587735251698
