Raman Shift,Processed Intensity
331.095,69.4951280875357
333.909,22.324529712470394
336.721,17.560956183956478
339.531,44.87108111280031
342.339,107.65968723617607
345.145,142.66491145700184
347.949,170.31539464520574
350.751,179.94457429615704
353.55,182.21926290337615
356.348,198.3777501407758
359.144,253.3726669496682
361.937,259.91861153053196
364.729,279.8731086681082
367.518,262.6175690565069
370.306,297.8192010052662
373.091,350.57387452636067
375.874,477.4537473259825
378.656,511.6977479391776
381.435,488.11634457877835
384.212,364.90107588908904
386.988,245.62455789004525
389.761,93.24049092138284
392.532,45.988428491562445
395.301,-24.653834825689046
398.068,-44.11311359006004
400.833,-40.339872169540286
403.596,-4.71298231579658
406.358,11.388847619919943
409.117,8.396591232325136
411.874,-26.49672076430079
414.629,-46.90743365291155
417.382,-26.78508184659586
420.133,-21.174300499161745
422.882,51.737542486930124
425.629,101.09652054296066
428.374,172.85831976842837
431.117,273.12155907534043
433.858,421.41350208695894
436.597,528.6900547508449
439.334,575.7643343804543
442.069,576.020952982466
444.802,548.2255386793431
447.533,545.8104476080835
450.262,602.2557139142236
452.989,645.6604759363017
455.714,649.0763071522383
458.438,617.7929280780891
461.159,574.4334419763281
463.878,567.763856278415
466.595,537.4073659121273
469.31,482.55863662889624
472.024,463.7457073787491
474.735,434.35379744716874
477.444,433.4824469252858
480.152,460.18360956103015
482.857,444.1283170388556
485.561,459.2257242118303
488.262,455.1945352861194
490.962,514.8010966721381
493.659,585.4308231690384
496.355,608.3739098634846
499.048,655.9205678379412
501.74,728.9324503551438
504.43,764.2712218997262
507.118,873.2271272198368
509.804,981.9475603687629
512.488,1086.437062317967
515.17,1242.4144614272814
517.85,1380.2652520103188
520.528,1446.7558776617907
523.204,1503.0337288705427
525.878,1540.0557120611625
528.551,1548.4453900641697
531.221,1578.9215511576285
533.89,1613.1077304897062
536.556,1615.770302929814
539.221,1621.4375283007016
541.883,1615.9233585153138
544.544,1562.3274351898308
547.203,1511.5112777329018
549.86,1500.479233339635
552.515,1561.7594269855977
555.168,1658.022806658908
557.819,1752.7974266875685
560.469,1838.3732072572661
563.116,1869.4209796434702
565.761,1964.4686743006591
568.405,2066.472747046802
571.047,2186.8657957240134
573.687,2264.699414954464
576.324,2332.0251461343787
578.96,2416.513522666127
581.594,2469.358829476043
584.227,2467.9457672941344
586.857,2436.801831219502
589.485,2367.454451190528
592.112,2230.0976562645833
594.737,2147.63969127869
597.359,1959.7506335101784
599.98,1812.4814379087725
602.599,1690.5972680429645
605.216,1631.8155889511427
607.831,1602.0442599927205
610.445,1652.3815324611696
613.056,1696.4493805303805
615.666,1766.2030226772204
618.274,1918.3594907231331
620.88,2131.8261988757417
623.484,2425.034274675213
626.086,2734.319508988229
628.686,2997.5414012400456
631.284,3155.845061789431
633.881,3228.851685732139
636.476,3163.753788609186
639.068,2954.31520401987
641.659,2654.394890758612
644.249,2284.4707399517915
646.836,1914.8776679088687
649.421,1585.9980899258944
652.005,1301.0714417080567
654.587,1008.9560817446127
657.166,788.5578603504891
659.745,579.4967839459764
662.321,436.20225076499855
664.895,334.0559056109969
667.468,295.48687556520554
670.038,234.30510093301064
672.607,215.5108566664926
675.174,164.67570235840958
677.739,141.60914652188058
680.303,118.02531087007446
682.864,119.73340411971049
685.424,75.44724341360052
687.982,47.6900138384367
690.538,13.651408894957513
693.092,0.4733499794392628
695.645,20.059520369896745
698.195,16.980138808016363
700.744,-7.099457342536425
703.291,-11.799750637350371
705.836,-33.64607556086139
708.38,-19.211460824128608
710.921,3.3595746928626795
713.461,37.39865086247437
715.999,73.47543891599025
718.535,144.159574050193
721.069,177.35399660536223
723.602,182.8663884813741
726.133,168.0282286014126
728.662,122.36146742330357
731.189,46.62615383180355
733.714,10.10615726897504
736.238,11.799651769336833
738.759,-7.199923814522208
741.279,13.534237270818721
743.798,-25.618634856674817
746.314,-62.7078312507806
748.829,-89.73496581615427
751.342,-83.36825317794865
753.853,-71.32345321808907
756.362,-36.64958662545405
758.869,-36.63369806508854
761.375,-25.991333633148315
763.879,-16.580827835646687
766.381,-38.35568580530162
768.882,-59.555060756485545
771.38,-68.51327905920971
773.877,-51.897936741683225
776.372,-43.28132932620565
778.866,7.383356430182175
781.357,45.61918412837667
783.847,48.90165693894414
786.335,70.89681157575069
788.821,112.55645512674437
791.306,137.97530664662736
793.789,248.77194827335506
796.27,384.7554906303385
798.749,495.3541429905563
801.227,657.9961643930519
803.702,795.3003385689562
806.176,872.7902583913169
808.649,903.8943246106455
811.119,911.9457445904595
813.588,841.8491977094986
816.055,752.080834097269
818.521,665.6406543219678
820.984,570.3858414593624
823.446,494.9831407807151
825.906,450.76600134546425
828.365,392.73457473676353
830.821,333.69857093988185
833.276,295.0867808872631
835.729,267.2327894797895
838.181,270.4702124175601
840.631,230.98983779257424
843.079,192.41105339570595
845.525,139.49613116652472
847.97,122.7216545002616
850.412,102.37375507857178
852.854,117.16715922411731
855.293,121.4832818741861
857.731,115.51308245907285
860.167,93.35230173285072
862.601,98.6205081279395
865.034,77.74681077634932
867.465,83.3984296737699
869.894,101.95688489128906
872.321,106.89894769187686
874.747,109.12997259923623
877.171,91.26961041904997
879.594,59.508949831649716
882.014,63.03908755611883
884.433,86.81303184772787
886.851,104.78379647156135
889.266,142.571066104716
891.68,135.175480786118
894.092,118.26434893777605
896.503,146.40974133840655
898.912,162.99325176373077
901.319,188.8726623886737
903.724,216.9533710943233
906.128,207.14077115585133
908.53,171.14977378756475
910.931,194.8857592593904
913.329,196.25409944192825
915.726,198.39825178007823
918.122,204.55690088571282
920.516,227.3496715589199
922.908,214.06284180924695
925.298,241.2207701626503
927.687,239.53827534940774
930.074,251.82539694440402
932.459,253.08263219789387
934.843,244.8818871519793
937.225,207.8902848999419
939.605,208.2987357503448
941.984,215.44098358160682
944.361,243.412652196585
946.736,241.547434534295
949.11,209.89328188163336
951.482,168.5457359422353
953.853,172.6479275720012
956.222,180.34295646700548
958.589,183.7738898990242
960.954,197.70280907010738
963.318,203.46318880048875
965.68,196.00751531172546
968.041,191.1453802003166
970.4,174.25776488751126
972.757,130.29703935483258
975.113,82.26315135579534
977.467,32.29886324666586
979.819,-3.738820706579645
982.17,6.245153931080949
984.519,26.726747642100236
986.866,48.32473005929478
989.212,58.086393241070255
991.556,63.63041047854176
993.899,64.62302843600037
996.24,68.34949738660362
998.579,72.76169192427278
1000.92,69.14477929462919
1003.25,49.117221059265376
1005.59,63.72601285525934
1007.92,64.39906701183463
1010.25,48.611880881298475
1012.58,63.55420516999038
1014.91,67.08242655494223
1017.24,71.5767122052971
1019.56,76.36958287516109
1021.88,80.65067647264095
1024.2,77.08579734317254
1026.52,93.05501317188782
1028.84,111.36694236218045
1031.16,145.2587556999797
1033.48,171.1104637323183
1035.79,206.30206128875443
1038.1,206.92781485993464
1040.41,203.653407119019
1042.72,198.43022430023802
1045.03,157.68583405364143
1047.33,151.6573204427027
1049.64,171.0103332276385
1051.94,185.69623238682243
1054.24,214.85685168582313
1056.54,247.2054527226187
1058.84,212.16958373472926
1061.13,185.27203364443494
1063.43,178.13083372304936
1065.72,186.5544973504284
1068.01,188.87535501257344
1070.3,200.28288929923383
1072.59,214.34754609198808
1074.87,208.11597432375447
1077.16,196.11102764306315
1079.44,210.4746232211828
1081.72,246.58679103543545
1084.0,319.30377077156163
1086.28,424.0056325356063
1088.56,520.5010404229502
1090.84,572.0272541825775
1093.11,610.0120356432494
1095.38,606.9784122825326
1097.65,583.4970598434438
1099.92,525.2815420939505
1102.19,455.85497915790484
1104.46,394.55004917931274
1106.72,385.2708947485062
1108.98,414.7788388521253
1111.24,492.0733389183465
1113.5,534.772940862099
1115.76,579.4962331302982
1118.02,632.7666102708722
1120.28,678.6313222160825
1122.53,689.5186188039334
1124.78,672.7139419186351
1127.03,607.0742128691618
1129.28,536.1706911963824
1131.53,482.28897633733413
1133.77,441.57186643235764
1136.02,408.3526933227063
1138.26,441.0600861195785
1140.5,493.74178239219646
1142.74,576.7312964987436
1144.98,641.9336355363489
1147.22,670.5395867196307
1149.45,667.6447666640156
1151.69,641.5829563833327
1153.92,539.0213410493252
1156.15,468.4367021321059
1158.38,373.5439904930013
1160.61,296.4391851916798
1162.83,235.45643800756534
1165.06,197.21569415172462
1167.28,168.05126535970567
1169.5,143.8213553653295
1171.72,112.47949013638436
1173.94,95.64594811032066
1176.16,50.655380906139726
1178.37,36.652053083888404
1180.58,48.25651047559495
1182.8,31.51796280191502
1185.01,2.4380948602133685
1187.22,-6.124169906406223
1189.42,-34.166953459116485
1191.63,-36.59304029157238
1193.84,-18.352733305965103
1196.04,-4.777189732631996
1198.24,12.897762607410186
1200.44,22.341140361133967
1202.64,30.031557286672523
1204.84,54.49531156383182
1207.03,49.87780871016594
1209.23,56.038797034968866
1211.42,87.79046023612864
1213.61,103.42122428269022
1215.8,154.07670715456152
1217.99,228.52162096317034
1220.18,261.47310264354974
1222.36,277.55309226546706
1224.55,244.47880658265694
1226.73,200.91987924870728
1228.91,192.06978674724405
1231.09,182.26489336972736
1233.27,193.74635333611695
1235.44,199.1839176774297
1237.62,225.15212207068953
1239.79,311.3207603881583
1241.96,413.3120249132362
1244.13,504.89097988969024
1246.3,644.5369874518419
1248.47,813.6341811737889
1250.64,1020.2809872376879
1252.8,1284.528217030601
1254.96,1567.3314454556303
1257.13,1851.360532100197
1259.29,2139.618666213833
1261.44,2395.5852212097866
1263.6,2499.5967044047234
1265.76,2482.7515162822274
1267.91,2392.909947851553
1270.06,2170.45608276827
1272.22,1931.0120804073008
1274.37,1704.6286494121382
1276.51,1437.594568863114
1278.66,1254.4843046837668
1280.81,1109.7770546186298
1282.95,964.4281741634045
1285.09,872.5834596379827
1287.23,777.3410503070872
1289.37,690.7038066913951
1291.51,725.579307926278
1293.65,767.7798491205467
1295.78,856.6414863342347
1297.92,948.833557746862
1300.05,1002.6443953018838
1302.18,1059.4098934939966
1304.31,1156.8468400612014
1306.44,1245.1481514387729
1308.57,1348.268584403711
1310.69,1453.8771143858535
1312.82,1497.9283613980338
1314.94,1582.5673492995797
1317.06,1669.2723602979008
1319.18,1723.4263608786564
1321.3,1741.8408086883019
1323.41,1706.7080308452087
1325.53,1595.8869355841216
1327.64,1490.6649143768063
1329.75,1341.662601195551
1331.87,1194.0243460623947
1333.98,1049.703926693578
1336.08,885.0359744297252
1338.19,760.8312096898208
1340.3,651.8526298061456
1342.4,550.4821730496847
1344.5,463.43500170315747
1346.6,391.23568989595105
1348.7,301.6467923914256
1350.8,257.0021752789962
1352.9,233.15939428524734
1354.99,230.16635879935302
1357.09,198.49942446990826
1359.18,183.01577151606216
1361.27,146.28673541958733
1363.36,136.12161380743964
1365.45,107.23433047716571
1367.54,87.62438513660345
1369.62,60.38637457215327
1371.7,91.09094238848138
1373.79,140.35620493869465
1375.87,194.32394536857873
1377.95,219.27866480369767
1380.03,214.21901448887047
1382.1,172.9530374514602
1384.18,137.8124577837125
1386.25,123.60506516318537
1388.33,110.90043270651995
1390.4,70.98230148987841
1392.47,35.372393640810515
1394.54,-11.598155522256548
1396.6,-45.50307963625528
1398.67,-25.297164485963094
1400.74,19.73137699443123
1402.8,37.29423842986398
1404.86,64.62682693293345
1406.92,63.4406435752735
1408.98,60.87566770855483
1411.04,63.595598428340054
1413.09,115.7878579427088
1415.15,206.0683568456384
1417.2,320.910068914206
1419.25,439.9287487629299
1421.3,562.9781733076343
1423.35,629.0549070388347
1425.4,657.2983053903718
1427.45,598.5143276318463
1429.49,479.4612545229634
1431.54,364.2306440631137
1433.58,317.2473348600065
1435.62,272.983735212586
1437.66,254.4836360034683
1439.7,221.50507121042847
1441.74,191.139368894075
1443.77,196.47782123314823
1445.81,218.89740217886356
1447.84,211.44172320449115
1449.87,229.01151286445815
1451.9,247.74557254392266
1453.93,292.4017322083514
1455.96,345.5949490102462
1457.98,413.6068344672942
1460.01,513.5285149738545
1462.03,644.2606351695852
1464.05,843.1324089271202
1466.07,1126.1873370064095
1468.09,1456.9927342328765
1470.11,1866.0683042946112
1472.13,2325.5051907300517
1474.14,2760.9183612489874
1476.16,3133.256134910709
1478.17,3369.3716140640654
1480.18,3420.0703067637023
1482.19,3251.300606329167
1484.2,2939.6776042373394
1486.21,2487.38785539582
1488.21,1968.6655719877572
1490.22,1475.6021506499856
1492.22,1103.0985567940472
1494.22,807.0081851176703
1496.22,625.3749582114895
1498.22,472.0999965943347
1500.22,345.0844792247135
1502.22,235.70583734562433
1504.21,179.00823404366042
1506.21,122.3692342842985
1508.2,101.59504637576356
1510.19,73.73004914717671
1512.18,57.29489055527665
1514.17,39.0007767673269
1516.16,13.987570767837497
1518.14,4.966652870041571
1520.13,19.26854313214153
1522.11,25.080999964031662
1524.09,-2.074785528346638
1526.07,-1.629899960552848
1528.05,-21.634370468144425
1530.03,-17.47144676413359
1532.01,-10.857597647963757
1533.98,1.8717759111418673
1535.96,-18.285278903625112
1537.93,7.193207679897796
1539.9,25.0674121720765
1541.87,45.90714290852793
1543.84,58.377550851454316
1545.81,76.47722134336072
1547.78,92.87150395601088
1549.74,124.74965186318809
1551.7,143.6819612134641
1553.67,177.76262478867125
1555.63,220.37163328143447
1557.59,263.12715276317044
1559.55,307.1712354854292
1561.5,360.8364830621804
1563.46,399.6460429854367
1565.41,414.93265275992326
1567.37,388.410064990127
1569.32,323.1730438959171
1571.27,261.17355230435396
1573.22,221.07789102245601
1575.17,210.88574297186597
1577.11,214.31112208542686
1579.06,183.020465060893
1581.0,146.5373897813131
1582.95,128.86173944969823
1584.89,132.5171981522642
1586.83,145.2179540407244
1588.77,144.0115529907655
1590.7,132.85032368910333
1592.64,106.78185033957675
1594.58,86.80611203591593
1596.51,63.61357451546564
1598.44,34.870900960513154
