Raman Shift,Processed Intensity
331.095,38.15488961904736
333.909,0.34549957142851184
336.721,13.24841257142868
339.531,48.98990161904766
342.339,65.52938809523812
345.145,49.58845147619049
347.949,43.3655562857143
350.751,30.53590804761908
353.55,37.20384771428574
356.348,40.04577623809525
359.144,31.310198380952382
361.937,3.6272666666666797
364.729,20.437561904761964
367.518,49.848876190476254
370.306,106.96978095238109
373.091,204.62429047619065
375.874,308.4463904761907
378.656,343.88080952380966
381.435,339.4685714285716
384.212,253.13264761904767
386.988,154.6539952380953
389.761,77.48157142857146
392.532,26.064961904761912
395.301,-4.430509523809518
398.068,-17.314504761904768
400.833,-30.419114285714294
403.596,-15.194361904761907
406.358,1.9111714285714339
409.117,-16.645328571428582
411.874,-10.023980952380958
414.629,-12.193266666666679
417.382,-16.59655238095236
420.133,7.03840000000004
422.882,62.461285714285765
425.629,76.70840000000008
428.374,158.43703333333346
431.117,208.92428095238108
433.858,234.25752380952395
436.597,236.57300952380967
439.334,195.4367000000001
442.069,152.4628285714287
444.802,159.8860142857144
447.533,155.94178095238107
450.262,174.2467476190478
452.989,225.79948571428588
455.714,266.7426952380954
458.438,266.219242857143
461.159,230.08706666666674
463.878,155.77655238095244
466.595,92.1944095238096
469.31,74.05730476190485
472.024,97.13080952380959
474.735,98.65646190476198
477.444,134.40021904761915
480.152,141.60484285714293
482.857,122.0372190476191
485.561,117.08370000000005
488.262,120.2738095238096
490.962,115.75654761904771
493.659,137.77634285714294
496.355,141.33947619047626
499.048,114.64338571428578
501.74,106.93328571428577
504.43,101.54949047619053
507.118,77.64251904761909
509.804,89.98187142857151
512.488,124.76540476190485
515.17,151.19121904761914
517.85,173.93372857142865
520.528,160.23883809523815
523.204,138.87615238095248
525.878,128.42506666666674
528.551,131.70319047619054
531.221,106.90842380952385
533.89,108.81040952380958
536.556,92.65481428571435
539.221,90.9252571428572
541.883,111.86709047619057
544.544,135.77374285714293
547.203,136.12816190476198
549.86,130.6039714285715
552.515,133.73176190476198
555.168,122.04200000000007
557.819,141.35042857142867
560.469,165.42550476190485
563.116,164.32036190476197
565.761,141.18353333333343
568.405,135.06806666666677
571.047,140.9792000000001
573.687,182.20760000000016
576.324,216.09136190476204
578.96,215.20609523809532
581.594,193.27009523809528
584.227,147.62022857142864
586.857,110.45046666666676
589.485,111.24031428571436
592.112,111.56362857142864
594.737,120.99469523809532
597.359,128.24975238095246
599.98,139.1401333333334
602.599,140.0960190476191
605.216,133.452161904762
607.831,134.2088857142858
610.445,115.84347142857148
613.056,99.59389523809531
615.666,94.93652380952386
618.274,102.58513333333339
620.88,91.06311428571435
623.484,116.6071238095239
626.086,136.21628095238106
628.686,176.74568571428586
631.284,211.86057142857155
633.881,215.55861904761915
636.476,215.98052380952396
639.068,214.789761904762
641.659,207.79308571428584
644.249,185.749061904762
646.836,159.08337142857147
649.421,108.22071428571435
652.005,83.4906047619048
654.587,68.26967142857147
657.166,44.55373809523811
659.745,36.719514285714325
662.321,34.71492380952384
664.895,57.34478571428576
667.468,61.55655238095242
670.038,83.01200000000004
672.607,62.23003809523813
675.174,62.633942857142905
677.739,82.50466190476197
680.303,104.55125238095243
682.864,103.86354761904768
685.424,108.53157619047622
687.982,73.59768095238097
690.538,31.961133333333358
693.092,36.90274285714288
695.645,42.79799047619051
698.195,40.83220000000002
700.744,34.714566666666684
703.291,30.91621904761907
705.836,40.57505714285718
708.38,47.97197619047621
710.921,42.24511428571428
713.461,20.104261904761902
715.999,-7.550157142857126
718.535,16.753719047619107
721.069,64.67868571428576
723.602,98.2685190476191
726.133,98.13857619047621
728.662,88.47587142857145
731.189,45.65802380952384
733.714,58.062566666666726
736.238,67.0677047619048
738.759,85.81330952380958
741.279,104.86814285714291
743.798,98.37241428571431
746.314,71.70458571428577
748.829,84.67173904761908
751.342,62.65277714285717
753.853,48.83611619047623
756.362,64.69587047619052
758.869,72.42084000000006
761.375,76.58073428571436
763.879,104.55499142857148
766.381,96.10400476190482
768.882,100.94088095238104
771.38,114.11164285714293
773.877,107.94868571428577
776.372,89.59381428571434
778.866,73.9033666666667
781.357,53.828914285714326
783.847,55.08418571428575
786.335,57.33510000000004
788.821,75.39078571428578
791.306,101.34624285714293
793.789,113.58183809523817
796.27,122.28793809523818
798.749,143.08341904761912
801.227,142.53995238095249
803.702,148.08628571428582
806.176,168.8655714285715
808.649,164.92514285714296
811.119,151.64671428571438
813.588,160.55414285714292
816.055,147.69576190476198
818.521,115.3580714285715
820.984,124.01781904761911
823.446,102.67576190476194
825.906,65.19017619047622
828.365,70.79963809523815
830.821,80.45767142857149
833.276,99.78425238095248
835.729,141.78033809523816
838.181,124.73309047619051
840.631,90.07230476190482
843.079,85.18017619047623
845.525,62.39153809523813
847.97,56.56465238095241
850.412,52.98676190476192
852.854,42.516633333333374
855.293,39.96535238095242
857.731,50.14407142857146
860.167,69.38767333333337
862.601,56.12658761904765
865.034,64.88632761904768
867.465,82.90690761904766
869.894,98.09470857142864
872.321,89.0232590476191
874.747,91.26577333333336
877.171,60.96717619047624
879.594,66.79620952380958
882.014,79.27852380952388
884.433,96.36842380952385
886.851,87.78250952380957
889.266,91.66560476190482
891.68,89.54377619047624
894.092,89.65739523809529
896.503,95.5797952380953
898.912,101.64659047619054
901.319,99.71719523809531
903.724,111.93678095238104
906.128,112.54547619047625
908.53,109.78375238095245
910.931,89.51100476190481
913.329,97.49120000000005
915.726,81.34593333333339
918.122,86.93465714285722
920.516,95.54524761904769
922.908,106.60862380952386
925.298,99.84134761904768
927.687,99.72170476190482
930.074,104.77605714285721
932.459,102.38738571428577
934.843,88.98668095238101
937.225,85.95717142857148
939.605,70.9200285714286
941.984,59.353642857142916
944.361,98.02226666666672
946.736,99.16605714285718
949.11,78.26338333333338
951.482,60.45942857142858
953.853,21.708545238095255
956.222,12.631919047619085
958.589,44.56498333333337
960.954,60.224057142857184
963.318,71.84923809523815
965.68,75.63298571428574
968.041,55.48200952380955
970.4,47.6363523809524
972.757,42.43120476190477
975.113,20.868404761904774
977.467,11.235457142857147
979.819,11.391254285714293
982.17,0.9565328571428646
984.519,11.361539047619065
986.866,17.703116666666673
989.212,12.98283619047621
991.556,29.630730952380986
993.899,44.505396190476226
996.24,62.98907333333339
998.579,87.844980952381
1000.92,73.50292190476193
1003.25,48.58308190476193
1005.59,46.705530476190496
1007.92,26.156993809523833
1010.25,29.795445714285748
1012.58,41.812243333333356
1014.91,61.25563333333339
1017.24,81.6978071428572
1019.56,100.99643333333339
1021.88,82.91394285714289
1024.2,65.54590000000005
1026.52,66.7497333333334
1028.84,90.85908095238102
1031.16,104.35029047619054
1033.48,121.36636190476199
1035.79,128.6215714285715
1038.1,138.78233333333344
1040.41,167.03890476190486
1042.72,199.0104761904763
1045.03,212.0773142857144
1047.33,191.3346238095239
1049.64,159.59143809523817
1051.94,127.6091380952382
1054.24,127.48248571428583
1056.54,151.73489047619057
1058.84,158.41296190476197
1061.13,140.08762857142864
1063.43,117.23406666666673
1065.72,97.28000952380961
1068.01,110.65326666666675
1070.3,135.92455238095246
1072.59,148.33095238095248
1074.87,150.63314285714296
1077.16,155.25861904761913
1079.44,160.25352380952393
1081.72,186.6169523809525
1084.0,224.34790476190497
1086.28,313.96895238095266
1088.56,416.5260000000003
1090.84,543.922666666667
1093.11,633.3954761904764
1095.38,636.0860952380955
1097.65,554.3740000000003
1099.92,471.54371428571454
1102.19,394.64104761904787
1104.46,344.9978095238097
1106.72,328.56457142857164
1108.98,327.33990476190496
1111.24,348.4647142857145
1113.5,390.98566666666693
1115.76,447.56738095238126
1118.02,491.3987142857145
1120.28,507.2871904761908
1122.53,481.1362857142859
1124.78,430.03909523809546
1127.03,355.94661904761927
1129.28,293.285142857143
1131.53,248.2436666666668
1133.77,204.96323809523818
1136.02,158.01338095238106
1138.26,135.82100000000008
1140.5,133.05071428571438
1142.74,145.2721904761906
1144.98,153.10290476190485
1147.22,184.54085714285725
1149.45,180.29833333333343
1151.69,195.18300000000013
1153.92,202.33580952380964
1156.15,191.8504761904763
1158.38,168.82042857142866
1160.61,143.05322380952384
1162.83,97.16620476190481
1165.06,84.68109047619052
1167.28,74.072480952381
1169.5,68.3386571428572
1171.72,93.95413809523815
1173.94,94.25033333333339
1176.16,80.0826428571429
1178.37,80.40188571428575
1180.58,73.53957333333335
1182.8,52.92260942857147
1185.01,44.40662466666668
1187.22,29.799361238095244
1189.42,4.765947714285733
1191.63,22.781179333333363
1193.84,33.0814822857143
1196.04,37.09395752380954
1198.24,39.34097380952383
1200.44,36.63060952380954
1202.64,32.39011476190479
1204.84,32.04675047619048
1207.03,22.789758095238113
1209.23,26.856073333333356
1211.42,21.292255714285726
1213.61,35.240169523809556
1215.8,31.69891952380953
1217.99,27.62007904761907
1220.18,14.62201952380953
1222.36,22.466096190476215
1224.55,19.199573333333376
1226.73,64.01244857142862
1228.91,74.904740952381
1231.09,82.9240123809524
1233.27,53.832290476190494
1235.44,43.248833333333366
1237.62,32.4120428571429
1239.79,55.846080952381016
1241.96,101.98009047619055
1244.13,128.8623714285715
1246.3,114.8270333333334
1248.47,101.82740000000005
1250.64,94.86435238095245
1252.8,109.5103904761906
1254.96,175.76674285714302
1257.13,218.68236190476205
1259.29,233.63933333333347
1261.44,218.8776190476192
1263.6,203.6364285714287
1265.76,184.44114285714298
1267.91,192.43652380952395
1270.06,183.86233333333345
1272.22,181.6250476190477
1274.37,168.48885714285723
1276.51,152.5982857142858
1278.66,143.526761904762
1280.81,174.51461904761916
1282.95,183.6115238095239
1285.09,200.58147619047634
1287.23,192.28400000000008
1289.37,153.5788095238096
1291.51,130.3250000000001
1293.65,131.23961904761913
1295.78,147.08700000000013
1297.92,176.67880952380963
1300.05,163.9224761904763
1302.18,157.77309523809535
1304.31,167.09019047619057
1306.44,170.40042857142868
1308.57,178.37314285714297
1310.69,200.58228571428583
1312.82,202.03052380952394
1314.94,213.1489047619049
1317.06,218.94052380952394
1319.18,215.6461904761906
1321.3,221.93509523809539
1323.41,248.52447619047638
1325.53,276.9409523809525
1327.64,311.5202857142859
1329.75,341.0275714285716
1331.87,336.3222857142859
1333.98,349.1214285714288
1336.08,339.47538095238116
1338.19,332.05390476190496
1340.3,329.3356190476192
1342.4,297.7520000000001
1344.5,247.49590476190488
1346.6,210.42706666666678
1348.7,147.16706666666673
1350.8,126.57575238095245
1352.9,123.36998095238104
1354.99,113.26660952380959
1357.09,120.88711428571438
1359.18,140.32916190476197
1361.27,142.16657142857153
1363.36,147.9730000000001
1365.45,160.6080476190477
1367.54,166.07380952380964
1369.62,171.7055714285716
1371.7,219.5059047619049
1373.79,248.71461904761918
1375.87,254.1910952380954
1377.95,272.4134285714287
1380.03,256.5736666666668
1382.1,237.19747619047632
1384.18,221.90571428571437
1386.25,181.22380952380962
1388.33,176.34410476190487
1390.4,160.64881904761913
1392.47,165.23432380952391
1394.54,151.72114285714292
1396.6,124.63409523809528
1398.67,98.6888428571429
1400.74,89.60066190476195
1402.8,60.13223809523816
1404.86,84.47503333333339
1406.92,88.91532857142865
1408.98,100.31082380952385
1411.04,77.94773571428574
1413.09,58.44547619047623
1415.15,43.1851928571429
1417.2,60.64355238095244
1419.25,88.3442071428572
1421.3,110.286880952381
1423.35,101.70940952380958
1425.4,100.84953809523815
1427.45,73.80199047619053
1429.49,79.42329047619053
1431.54,65.99851904761907
1433.58,60.19324761904766
1435.62,60.292123809523844
1437.66,69.91292380952385
1439.7,57.95894285714289
1441.74,58.28556190476192
1443.77,31.415047619047634
1445.81,13.821595238095256
1447.84,24.31279047619053
1449.87,53.31484761904767
1451.9,90.25410000000005
1453.93,100.41360952380955
1455.96,79.79084285714288
1457.98,66.85904761904769
1460.01,78.75844285714294
1462.03,115.62886666666678
1464.05,178.4674523809525
1466.07,239.55677142857155
1468.09,260.27461904761924
1470.11,292.4270952380954
1472.13,300.3440476190478
1474.14,284.1175714285716
1476.16,278.3152857142859
1478.17,255.9338571428573
1480.18,227.82719047619062
1482.19,211.22976190476203
1484.2,194.70944761904772
1486.21,147.54861428571436
1488.21,130.45751428571435
1490.22,108.67091904761912
1492.22,106.47116666666672
1494.22,107.04510000000006
1496.22,98.19891904761906
1498.22,56.500552380952406
1500.22,42.47038571428574
1502.22,31.48621904761906
1504.21,18.02092380952383
1506.21,19.785647619047626
1508.2,24.443952380952403
1510.19,23.659552380952412
1512.18,43.28666666666669
1514.17,36.989185714285725
1516.16,33.954885714285744
1518.14,49.847852380952425
1520.13,68.42750000000004
1522.11,55.92957142857144
1524.09,38.30419523809525
1526.07,23.358780952380975
1528.05,26.519890476190515
1530.03,51.7380428571429
1532.01,74.44001428571433
1533.98,87.5290190476191
1535.96,103.71775809523815
1537.93,93.43340571428574
1539.9,84.00797333333337
1541.87,69.24976571428574
1543.84,53.25291619047624
1545.81,71.58790095238102
1547.78,114.82503904761913
1549.74,134.3921476190477
1551.7,134.81232380952386
1553.67,126.56105714285721
1555.63,114.49482380952387
1557.59,119.04182857142867
1559.55,133.15355714285724
1561.5,144.21072380952387
1563.46,144.11800000000008
1565.41,145.01785714285722
1567.37,141.05295238095246
1569.32,145.6520952380953
1571.27,152.9575238095239
1573.22,153.92204761904773
1575.17,168.45042857142866
1577.11,172.68552380952391
1579.06,145.00871428571438
1581.0,139.37242857142866
1582.95,140.96757142857152
1584.89,157.50895238095248
1586.83,185.04442857142868
1588.77,197.47938095238106
1590.7,171.24280952380963
1592.64,163.1920476190477
1594.58,141.3282380952382
1596.51,126.84266666666697
1598.44,129.23616666666743
