Raman Shift,Processed Intensity
331.095,74.5268079999997
333.909,19.96067828571411
336.721,2.6502174285713096
339.531,6.053027428571445
342.339,4.316946476190466
345.145,6.566344761904766
347.949,-11.716419047619057
350.751,-4.333965714285718
353.55,-16.278632380952377
356.348,-4.2562457142857015
359.144,7.69494190476194
361.937,42.72799714285718
364.729,68.47320571428578
367.518,98.4186676190477
370.306,137.76792380952395
373.091,209.58271428571447
375.874,280.68758095238115
378.656,343.4795333333335
381.435,338.9280751428572
384.212,240.52738728571435
386.988,132.534926952381
389.761,51.49503223809525
392.532,-9.618325428571413
395.301,-15.06798223809524
398.068,-14.115632476190488
400.833,-27.35494761904762
403.596,-12.330720000000001
406.358,-9.68163714285716
409.117,-10.521256190476198
411.874,-31.62848666666669
414.629,-20.68568476190476
417.382,-16.421484761904754
420.133,3.532052380952412
422.882,45.82968571428579
425.629,106.88960476190483
428.374,141.46420476190488
431.117,215.92629047619062
433.858,236.26857142857156
436.597,224.913761904762
439.334,206.3325238095239
442.069,167.09261904761914
444.802,110.80952380952388
447.533,133.00485714285725
450.262,149.96261904761917
452.989,205.39652380952396
455.714,262.8299047619049
458.438,267.7401047619049
461.159,194.17581904761911
463.878,150.5676952380953
466.595,84.01364285714291
469.31,69.80276190476198
472.024,79.55748571428578
474.735,88.0916190476191
477.444,104.50519047619056
480.152,139.37440952380962
482.857,155.89536666666677
485.561,157.12172380952387
488.262,142.63109523809533
490.962,144.57272380952392
493.659,148.04888571428577
496.355,139.73301428571438
499.048,117.96576666666671
501.74,87.75478571428577
504.43,66.3935476190477
507.118,103.60395714285723
509.804,142.72718571428584
512.488,185.3904761904763
515.17,206.1258095238096
517.85,192.7030952380953
520.528,159.41642857142864
523.204,135.41661904761912
525.878,129.18819047619056
528.551,113.12023809523816
531.221,103.74467142857148
533.89,84.49781428571436
536.556,80.53073333333339
539.221,69.89867142857149
541.883,96.56209523809531
544.544,87.33772857142863
547.203,91.56653809523817
549.86,107.5888476190477
552.515,140.84042857142867
555.168,157.85182857142868
557.819,172.34411428571437
560.469,166.99000000000012
563.116,161.70061904761914
565.761,172.10095238095246
568.405,191.86338095238108
571.047,193.75514285714297
573.687,210.06723809523825
576.324,234.51814285714298
578.96,200.4934761904763
581.594,193.42604761904775
584.227,177.89109523809532
586.857,149.7492380952382
589.485,158.90877142857153
592.112,149.7056047619048
594.737,120.80910476190485
597.359,113.65000952380957
599.98,106.08741904761911
602.599,87.78941904761909
605.216,83.70974285714291
607.831,78.7541095238096
610.445,102.35180000000007
613.056,119.31257142857152
615.666,115.49342380952388
618.274,116.79880000000007
620.88,103.75174761904768
623.484,112.68486666666676
626.086,135.50163333333342
628.686,169.77204761904773
631.284,188.68449523809534
633.881,204.6655904761906
636.476,196.236761904762
639.068,208.20500000000015
641.659,216.61457142857157
644.249,207.84347619047628
646.836,184.55514285714293
649.421,150.65066666666672
652.005,107.17399047619051
654.587,88.9782685714286
657.166,66.15427142857145
659.745,31.935830476190485
662.321,8.366365714285733
664.895,19.869543809523847
667.468,35.5836790476191
670.038,77.93240476190482
672.607,100.95853619047625
675.174,111.03806790476196
677.739,90.49930766666668
680.303,55.670515333333356
682.864,37.64188138095241
685.424,38.170101047619085
687.982,41.48828861904766
690.538,63.448501238095275
693.092,44.90284761904763
695.645,59.46528095238101
698.195,55.51196533333335
700.744,38.37139961904763
703.291,20.276999238095243
705.836,22.747973714285727
708.38,4.4941182857143165
710.921,35.46338533333334
713.461,22.08025580952381
715.999,17.435880952380977
718.535,21.145347619047655
721.069,55.30023333333339
723.602,81.80142857142863
726.133,91.74061904761909
728.662,83.25716190476194
731.189,77.49055238095242
733.714,72.2470190476191
736.238,84.85691428571434
738.759,97.6503190476191
741.279,94.10050952380958
743.798,89.15699047619051
746.314,71.34081428571433
748.829,78.93490476190482
751.342,75.98440952380956
753.853,71.91539523809529
756.362,85.63022380952384
758.869,77.88848571428575
761.375,69.87844761904768
763.879,74.07408571428574
766.381,55.66395238095242
768.882,57.693571428571495
771.38,93.82804761904768
773.877,102.44635238095243
776.372,99.35639047619053
778.866,103.79446666666672
781.357,93.37827619047624
783.847,99.9636095238096
786.335,109.88259047619053
788.821,97.13379523809527
791.306,68.14459523809529
793.789,83.19956666666674
796.27,110.44054285714294
798.749,146.6289380952382
801.227,186.04924761904772
803.702,181.36733333333345
806.176,206.01128571428583
808.649,195.12347619047625
811.119,201.65538095238105
813.588,184.32138095238105
816.055,185.21595238095247
818.521,155.10061904761915
820.984,169.7374761904763
823.446,155.84038095238103
825.906,162.2665714285715
828.365,143.44480952380962
830.821,139.23200952380958
833.276,115.67593809523817
835.729,98.82468571428578
838.181,107.0593476190477
840.631,138.18978095238106
843.079,152.2642714285715
845.525,155.6640571428572
847.97,140.58019047619055
850.412,121.20403809523818
852.854,102.77453095238101
855.293,84.29213214285717
857.731,46.32944523809526
860.167,28.791955952380984
862.601,31.01389761904766
865.034,56.234465476190536
867.465,97.64539285714292
869.894,114.96203809523816
872.321,119.47139523809533
874.747,138.31770476190485
877.171,142.40685714285723
879.594,139.2642857142858
882.014,147.4628095238096
884.433,134.19447619047625
886.851,119.365761904762
889.266,128.50219047619058
891.68,152.03399047619055
894.092,138.67730000000006
896.503,145.9098857142858
898.912,145.40055714285722
901.319,143.00826666666677
903.724,149.8302523809525
906.128,163.24965714285722
908.53,135.22085714285723
910.931,145.69819047619058
913.329,125.0651190476191
915.726,122.99053333333342
918.122,110.47677142857151
920.516,100.7644476190477
922.908,122.42718095238105
925.298,147.89601904761912
927.687,136.64965238095246
930.074,145.5002952380953
932.459,133.6410476190477
934.843,113.74142857142866
937.225,145.13709523809533
939.605,154.116761904762
941.984,163.58766666666673
944.361,166.41009523809532
946.736,146.4439571428572
949.11,108.40660476190482
951.482,92.3008523809524
953.853,39.84408095238098
956.222,33.32506190476195
958.589,56.5087952380953
960.954,88.92235238095246
963.318,122.94962857142863
965.68,141.45110952380958
968.041,91.62049523809527
970.4,75.08019238095243
972.757,53.59516142857145
975.113,38.9308323809524
977.467,23.47107666666667
979.819,6.171670476190476
982.17,2.4643947619047992
984.519,36.40000190476195
986.866,66.83892857142862
989.212,105.06980476190482
991.556,121.66704285714292
993.899,99.39552380952385
996.24,90.35337619047624
998.579,76.97194761904767
1000.92,68.34935714285719
1003.25,62.01180952380955
1005.59,59.58086190476193
1007.92,54.86840000000004
1010.25,53.44807619047622
1012.58,42.941095238095265
1014.91,45.063571428571464
1017.24,76.81748095238102
1019.56,90.77580000000005
1021.88,100.93999523809528
1024.2,84.0733142857143
1026.52,76.65325714285721
1028.84,90.72806666666676
1031.16,145.3942380952382
1033.48,174.74773809523816
1035.79,186.5509714285715
1038.1,170.51866666666675
1040.41,172.36561904761916
1042.72,189.7104761904763
1045.03,198.64914285714295
1047.33,183.99100000000007
1049.64,165.44990476190483
1051.94,142.26385714285723
1054.24,137.05142857142866
1056.54,141.14528095238106
1058.84,126.83087619047625
1061.13,107.34530000000007
1063.43,96.68740952380959
1065.72,128.19010952380964
1068.01,173.85187619047633
1070.3,213.05263809523822
1072.59,222.50552380952396
1074.87,210.2567142857144
1077.16,180.82852380952392
1079.44,194.98176190476204
1081.72,202.52400000000017
1084.0,257.02485714285734
1086.28,340.5303333333336
1088.56,435.5145714285718
1090.84,561.452047619048
1093.11,661.0075238095242
1095.38,659.2741428571433
1097.65,606.5829523809527
1099.92,510.1700952380955
1102.19,397.41404761904784
1104.46,343.17019047619067
1106.72,330.3882380952383
1108.98,325.25623809523836
1111.24,365.152904761905
1113.5,418.4565714285717
1115.76,458.3074761904765
1118.02,493.89395238095267
1120.28,482.87966666666694
1122.53,446.9765714285717
1124.78,405.32485714285735
1127.03,362.1598571428574
1129.28,304.85980952380964
1131.53,261.1363809523811
1133.77,207.46295238095252
1136.02,190.6944285714287
1138.26,175.77985714285725
1140.5,194.62161904761916
1142.74,210.5499523809525
1144.98,220.1336666666668
1147.22,231.60800000000017
1149.45,240.78004761904776
1151.69,235.40857142857155
1153.92,221.34847619047625
1156.15,192.0253333333334
1158.38,158.0080000000001
1160.61,132.96020000000007
1162.83,102.59350952380957
1165.06,99.66714285714289
1167.28,87.46445714285719
1169.5,63.316133333333376
1171.72,68.07695238095243
1173.94,85.26796190476195
1176.16,80.17237173333338
1178.37,70.7401066857143
1180.58,66.63546099047622
1182.8,37.427500361904784
1185.01,19.590279085714307
1187.22,27.54999049523812
1189.42,31.018744114285727
1191.63,30.137249523809558
1193.84,38.427244761904774
1196.04,29.696241428571433
1198.24,17.942337142857156
1200.44,15.068472857142874
1202.64,23.834849523809552
1204.84,30.620795714285727
1207.03,40.85339428571431
1209.23,18.197885714285718
1211.42,31.510394285714312
1213.61,23.31345380952382
1215.8,41.415708571428596
1217.99,30.625942380952395
1220.18,40.22936666666668
1222.36,26.701752857142893
1224.55,43.04315809523812
1226.73,35.5390866666667
1228.91,46.52308190476193
1231.09,53.61453809523814
1233.27,48.95682380952384
1235.44,62.83638095238099
1237.62,62.92069047619051
1239.79,80.16290476190484
1241.96,109.7549095238096
1244.13,121.65030000000006
1246.3,96.51703333333342
1248.47,112.8807476190477
1250.64,113.31423809523818
1252.8,144.5337380952382
1254.96,202.2079523809525
1257.13,209.33895238095246
1259.29,204.6429047619049
1261.44,230.02719047619058
1263.6,222.6842857142858
1265.76,201.09314285714296
1267.91,190.63742857142867
1270.06,180.41509523809538
1272.22,187.85709523809538
1274.37,201.20480952380964
1276.51,191.36547619047627
1278.66,152.05652380952387
1280.81,114.75736190476199
1282.95,91.80452857142863
1285.09,101.53443809523819
1287.23,118.7601857142858
1289.37,137.19920000000008
1291.51,150.61672857142867
1293.65,146.63512380952386
1295.78,115.7818428571429
1297.92,105.96512380952386
1300.05,83.95044285714292
1302.18,81.4080095238096
1304.31,110.29382380952389
1306.44,115.0400095238096
1308.57,135.93610476190486
1310.69,171.55701904761915
1312.82,154.81124761904772
1314.94,147.369161904762
1317.06,172.32965714285723
1319.18,178.7440190476192
1321.3,206.7585809523811
1323.41,236.66262857142874
1325.53,246.17423809523825
1327.64,257.2971904761906
1329.75,288.32061904761923
1331.87,297.0576666666668
1333.98,299.4164761904763
1336.08,277.4482857142859
1338.19,269.1088571428573
1340.3,252.35385714285732
1342.4,245.99615238095254
1344.5,199.56260476190485
1346.6,148.48527619047624
1348.7,94.48158571428576
1350.8,55.459419047619086
1352.9,57.65974761904769
1354.99,88.4666952380953
1357.09,89.12102380952388
1359.18,101.53023809523816
1361.27,101.55424761904767
1363.36,91.7194095238096
1365.45,109.31400000000009
1367.54,137.81640000000007
1369.62,150.22908095238105
1371.7,178.3159142857144
1373.79,208.6029047619049
1375.87,225.04428571428588
1377.95,260.11819047619065
1380.03,258.01642857142866
1382.1,223.07428571428582
1384.18,185.1500476190477
1386.25,161.3880000000001
1388.33,156.21765714285723
1390.4,151.73532380952386
1392.47,133.75147619047624
1394.54,108.50479523809528
1396.6,90.28137142857149
1398.67,67.7006571428572
1400.74,75.81028571428575
1402.8,53.46749523809528
1404.86,67.29132857142861
1406.92,55.18594285714289
1408.98,63.817504761904786
1411.04,45.09002857142859
1413.09,54.716752380952435
1415.15,49.26803809523814
1417.2,70.4091952380953
1419.25,67.18633809523813
1421.3,72.74056190476195
1423.35,61.879419047619095
1425.4,85.02950476190482
1427.45,78.33132476190481
1429.49,66.16337714285716
1431.54,45.71364000000001
1433.58,20.45555619047621
1435.62,6.862506666666694
1437.66,26.360300952380975
1439.7,48.850458095238125
1441.74,56.94887619047623
1443.77,70.69989047619052
1445.81,62.43346190476192
1447.84,57.860447619047655
1449.87,46.4534904761905
1451.9,45.35184285714289
1453.93,54.45657619047624
1455.96,67.62111428571434
1457.98,77.69881904761911
1460.01,99.44770952380958
1462.03,112.76883809523818
1464.05,138.3724857142858
1466.07,174.20710476190487
1468.09,221.64990476190493
1470.11,261.93476190476207
1472.13,267.05795238095254
1474.14,262.72976190476203
1476.16,261.089142857143
1478.17,241.79885714285726
1480.18,254.66476190476203
1482.19,232.39719047619056
1484.2,196.94494285714293
1486.21,145.39939523809528
1488.21,119.94740000000007
1490.22,96.44247619047626
1492.22,89.69069047619051
1494.22,77.54578571428576
1496.22,66.29008571428574
1498.22,46.68232857142861
1500.22,54.86216190476193
1502.22,36.588523809523814
1504.21,29.048990476190504
1506.21,28.097933333333348
1508.2,29.875585714285755
1510.19,50.046114285714324
1512.18,71.55956666666671
1514.17,57.93749523809526
1516.16,45.606414285714294
1518.14,29.32623809523813
1520.13,48.19049047619053
1522.11,67.81640571428575
1524.09,63.29761285714289
1526.07,67.06121428571431
1528.05,39.391566190476205
1530.03,23.71599333333337
1532.01,40.22395285714289
1533.98,50.77144000000003
1535.96,64.69087428571436
1537.93,96.93381238095242
1539.9,91.30905238095242
1541.87,65.05405238095241
1543.84,58.83501428571432
1545.81,49.84196190476196
1547.78,80.07434761904769
1549.74,102.91308095238102
1551.7,137.83426666666676
1553.67,157.88529523809532
1555.63,171.113961904762
1557.59,162.18666666666675
1559.55,159.9605714285715
1561.5,135.24585714285723
1563.46,150.51923809523822
1565.41,175.9238000000001
1567.37,160.2219190476191
1569.32,139.98512380952388
1571.27,146.7379857142858
1573.22,133.86226666666676
1575.17,142.88249047619058
1577.11,148.2758476190477
1579.06,141.37633333333343
1581.0,140.75600000000009
1582.95,160.27333333333343
1584.89,149.97666666666674
1586.83,143.96219047619056
1588.77,127.99342857142867
1590.7,138.30938095238105
1592.64,143.24433333333343
1594.58,145.68088095238105
1596.51,135.5248095238096
1598.44,105.44395238095241
