Raman Shift,Processed Intensity
331.095,6.816981666666689
333.909,19.080200238095216
336.721,22.241801666666625
339.531,21.09295761904763
342.339,19.996068095238115
345.145,37.78999571428574
347.949,34.81433714285717
350.751,47.55215190476193
353.55,37.05863047619047
356.348,5.056380952380945
359.144,-18.540742857142863
361.937,-15.103699999999993
364.729,1.5211904761905188
367.518,31.25056190476196
370.306,74.66839523809536
373.091,182.16956190476208
375.874,300.5307000000002
378.656,367.0058285714287
381.435,366.3737238095239
384.212,261.461780952381
386.988,120.47937142857147
389.761,39.304084285714296
392.532,1.8621009523809573
395.301,-32.77615761904761
398.068,-10.062913333333318
400.833,9.598310952380954
403.596,8.091211428571437
406.358,17.110291428571422
409.117,-1.6962495238095538
411.874,-36.96459047619049
414.629,-29.043841904761912
417.382,-34.948440952380956
420.133,-14.310721904761873
422.882,43.809900000000056
425.629,85.06968095238103
428.374,145.2211285714287
431.117,184.82723809523816
433.858,191.40466666666677
436.597,177.0902380952382
439.334,181.78384761904772
442.069,146.43389523809532
444.802,137.9418857142858
447.533,138.6864380952382
450.262,160.14236190476203
452.989,198.35680000000013
455.714,250.37760952380967
458.438,235.58652380952392
461.159,203.22323809523817
463.878,177.1948476190477
466.595,128.40890000000007
469.31,104.53533809523815
472.024,73.91139523809528
474.735,78.11306190476199
477.444,109.8118142857144
480.152,187.1083190476192
482.857,217.38890476190488
485.561,224.65987619047627
488.262,201.4514285714287
490.962,194.53238095238106
493.659,185.33804761904773
496.355,175.54250000000008
499.048,137.81976190476198
501.74,114.0821571428572
504.43,92.0518714285715
507.118,100.21324285714294
509.804,127.47870000000009
512.488,150.99931428571438
515.17,184.35496666666677
517.85,204.9823238095239
520.528,187.65147619047627
523.204,162.70430000000007
525.878,121.72016666666671
528.551,79.89779523809528
531.221,55.721619047619086
533.89,60.676223809523876
536.556,82.95956190476197
539.221,96.48432380952389
541.883,137.35364285714294
544.544,135.95603809523814
547.203,129.8702761904763
549.86,131.34193333333343
552.515,140.8541333333334
555.168,138.9373523809525
557.819,158.97940000000006
560.469,174.98685714285725
563.116,178.8703333333334
565.761,187.63576190476203
568.405,196.38423809523817
571.047,164.5017857142858
573.687,130.94580952380963
576.324,132.10235714285722
578.96,138.02342857142867
581.594,159.37983333333344
584.227,165.22323809523817
586.857,140.89051428571435
589.485,109.43232380952387
592.112,102.85163809523819
594.737,107.0083571428572
597.359,107.0950095238096
599.98,120.78040476190485
602.599,151.16154285714296
605.216,177.09673809523824
607.831,181.63435714285723
610.445,150.82292380952384
613.056,117.13853809523816
615.666,86.01012857142864
618.274,77.38976190476197
620.88,88.94349047619053
623.484,93.95612857142865
626.086,121.90267142857152
628.686,150.97163333333344
631.284,195.39965714285728
633.881,209.85114285714297
636.476,223.75223809523823
639.068,239.05304761904773
641.659,251.321561904762
644.249,199.5070380952382
646.836,169.9397714285715
649.421,114.94915238095244
652.005,84.95994761904767
654.587,63.49211428571432
657.166,63.92202857142857
659.745,16.3883380952381
662.321,17.64855714285717
664.895,20.412100000000017
667.468,24.817100000000025
670.038,42.47773142857146
672.607,44.3889742857143
675.174,40.355324761904804
677.739,55.4668923809524
680.303,46.14704380952383
682.864,38.29534095238099
685.424,52.52557523809526
687.982,35.070541428571445
690.538,26.544035238095255
693.092,20.464610952380966
695.645,34.588916190476226
698.195,38.10227952380954
700.744,45.904324761904775
703.291,33.609033333333336
705.836,16.06861904761906
708.38,10.754400000000022
710.921,15.185395238095232
713.461,3.1665428571428627
715.999,-0.4971761904761829
718.535,20.475519047619088
721.069,44.318542857142894
723.602,74.78970380952384
726.133,63.932625238095255
728.662,50.743498095238124
731.189,33.36144619047622
733.714,46.639960000000045
736.238,52.86138714285719
738.759,75.78427047619053
741.279,80.78633809523815
743.798,108.24567809523816
746.314,97.77826619047623
748.829,82.61937047619051
751.342,39.575933809523825
753.853,28.121294285714328
756.362,46.729604285714345
758.869,85.68436380952384
761.375,79.93566190476193
763.879,76.91007142857146
766.381,53.081933333333374
768.882,53.83020000000006
771.38,73.5345571428572
773.877,86.2409047619048
776.372,74.28121428571434
778.866,84.84477142857149
781.357,84.64460000000005
783.847,92.15590952380958
786.335,94.99670476190482
788.821,111.97580000000008
791.306,106.99710000000007
793.789,108.48872380952386
796.27,112.92623809523818
798.749,134.30915238095247
801.227,162.0181095238096
803.702,171.81506190476196
806.176,168.3666095238096
808.649,152.10105238095244
811.119,152.87570476190487
813.588,160.83351904761915
816.055,184.26047619047625
818.521,151.8236476190477
820.984,128.61881904761913
823.446,115.83655238095247
825.906,106.38244761904768
828.365,110.82895238095247
830.821,134.84302857142865
833.276,122.7590047619048
835.729,117.91097142857149
838.181,112.91901428571434
840.631,100.02233333333339
843.079,111.60332857142865
845.525,131.6626952380953
847.97,114.05890952380958
850.412,112.65037142857148
852.854,107.91466666666672
855.293,82.75797619047624
857.731,70.89624761904767
860.167,69.71186666666671
862.601,57.68256190476196
865.034,67.52442380952387
867.465,99.04840476190483
869.894,91.16121428571434
872.321,90.34065238095243
874.747,88.77921904761911
877.171,101.95506666666674
879.594,104.25096190476198
882.014,109.43053809523818
884.433,106.97232857142865
886.851,107.78271904761912
889.266,110.91155714285723
891.68,136.36100476190484
894.092,139.08536190476198
896.503,127.84900000000007
898.912,120.98728571428578
901.319,131.83580952380962
903.724,158.92038095238107
906.128,188.71957142857153
908.53,179.90219047619055
910.931,158.7565238095239
913.329,138.99880952380963
915.726,142.44096190476202
918.122,136.2280095238096
920.516,137.5530952380953
922.908,121.18020952380958
925.298,99.25457619047624
927.687,103.73097142857151
930.074,99.84959523809529
932.459,77.9938333333334
934.843,76.88066190476196
937.225,84.84520476190482
939.605,90.08054285714293
941.984,121.87462380952388
944.361,132.56302666666673
946.736,100.38615761904765
949.11,79.67979142857146
951.482,53.255399523809544
953.853,40.59170095238099
956.222,38.9764766666667
958.589,46.26907428571431
960.954,58.23371904761912
963.318,107.87239047619056
965.68,105.56819047619054
968.041,120.84709047619056
970.4,121.66332647619053
972.757,90.20955076190482
975.113,78.4879205714286
977.467,61.833559714285705
979.819,15.200803428571446
982.17,-4.598880666666659
984.519,6.0075683809523985
986.866,15.26017904761909
989.212,51.49415619047625
991.556,89.71115904761912
993.899,127.38885904761912
996.24,157.19548095238105
998.579,173.7992095238096
1000.92,144.91579047619055
1003.25,100.30867619047622
1005.59,63.40772380952384
1007.92,40.975971428571484
1010.25,57.44309523809529
1012.58,83.47680000000004
1014.91,88.55419523809529
1017.24,93.48567142857148
1019.56,97.12912857142862
1021.88,90.39004761904768
1024.2,78.41185714285719
1026.52,82.90932380952387
1028.84,94.93059523809532
1031.16,128.7616714285715
1033.48,147.97436666666675
1035.79,169.14019047619058
1038.1,171.9735238095239
1040.41,190.9984761904763
1042.72,213.73861904761918
1045.03,234.24142857142868
1047.33,221.69747619047632
1049.64,205.39204761904773
1051.94,184.46766666666676
1054.24,174.2100000000001
1056.54,171.23742857142867
1058.84,166.4542380952382
1061.13,153.33628571428582
1063.43,139.16828571428582
1065.72,154.94957142857155
1068.01,182.7746666666668
1070.3,194.78590476190487
1072.59,210.31576190476204
1074.87,215.60138095238108
1077.16,223.26066666666682
1079.44,246.5308095238097
1081.72,278.4107142857145
1084.0,307.6133809523812
1086.28,390.56642857142884
1088.56,500.221047619048
1090.84,616.8140000000003
1093.11,689.5820000000003
1095.38,690.0954285714289
1097.65,613.3049523809527
1099.92,538.8284761904764
1102.19,445.28338095238115
1104.46,389.9061428571431
1106.72,370.3618095238097
1108.98,364.60161904761924
1111.24,381.2903333333336
1113.5,458.2834285714289
1115.76,499.4839523809527
1118.02,541.3664761904765
1120.28,564.5958571428575
1122.53,523.3132857142859
1124.78,467.08795238095263
1127.03,415.5849047619049
1129.28,353.7072857142859
1131.53,293.16723809523825
1133.77,224.43904761904773
1136.02,174.28285714285727
1138.26,153.31557142857153
1140.5,169.29742857142872
1142.74,223.13104761904776
1144.98,259.76671428571444
1147.22,263.7261904761906
1149.45,266.2930952380954
1151.69,258.27490476190496
1153.92,236.38400000000013
1156.15,221.61819047619056
1158.38,200.54704761904773
1160.61,170.4538095238096
1162.83,151.14595238095248
1165.06,146.95474285714295
1167.28,117.21164761904768
1169.5,103.24772380952388
1171.72,111.39441904761912
1173.94,102.83978095238102
1176.16,96.867580952381
1178.37,86.95177619047624
1180.58,80.18555238095244
1182.8,59.804761904761946
1185.01,67.85507619047624
1187.22,73.5248485714286
1189.42,57.097703333333364
1191.63,42.333478095238135
1193.84,51.37290142857145
1196.04,53.9282352380953
1198.24,88.85477000000006
1200.44,107.62658666666673
1202.64,117.33692380952388
1204.84,113.88885238095244
1207.03,122.18530476190483
1209.23,106.65297619047624
1211.42,90.62378571428575
1213.61,96.47716190476197
1215.8,76.87822380952383
1217.99,47.492566666666704
1220.18,45.27142380952381
1222.36,43.16610000000006
1224.55,50.55683809523817
1226.73,98.20515714285719
1228.91,110.06270476190483
1231.09,118.31984761904769
1233.27,127.02397142857151
1235.44,152.93735238095246
1237.62,161.44090476190485
1239.79,139.6303333333334
1241.96,145.31557142857153
1244.13,143.97366666666676
1246.3,143.22438095238107
1248.47,165.83080952380962
1250.64,189.55566666666675
1252.8,178.49557142857157
1254.96,210.69928571428585
1257.13,227.64457142857157
1259.29,240.571142857143
1261.44,264.33776190476203
1263.6,272.27957142857156
1265.76,273.4940952380954
1267.91,282.03042857142873
1270.06,281.8434285714288
1272.22,248.5065238095239
1274.37,213.64104761904775
1276.51,179.8207142857144
1278.66,177.7626666666668
1280.81,177.08804761904773
1282.95,186.13338095238106
1285.09,156.9010000000001
1287.23,145.01266666666677
1289.37,150.70923809523822
1291.51,163.7557142857144
1293.65,175.4880000000001
1295.78,188.10009523809532
1297.92,169.35657142857153
1300.05,152.26061904761912
1302.18,158.67257142857153
1304.31,180.4526666666668
1306.44,217.17523809523829
1308.57,271.51042857142875
1310.69,281.508761904762
1312.82,282.126142857143
1314.94,275.4612380952383
1317.06,272.7553809523811
1319.18,275.5355714285716
1321.3,277.18604761904777
1323.41,281.56714285714304
1325.53,308.49171428571447
1327.64,354.4867619047621
1329.75,373.50795238095264
1331.87,379.7489523809526
1333.98,348.45109523809543
1336.08,343.0941904761907
1338.19,340.966904761905
1340.3,345.31038095238114
1342.4,324.508523809524
1344.5,286.7073809523811
1346.6,240.90995238095252
1348.7,206.59566666666677
1350.8,173.43380952380963
1352.9,148.1417142857144
1354.99,149.34104761904774
1357.09,143.7965238095239
1359.18,171.55852380952393
1361.27,189.72495238095246
1363.36,184.20309523809536
1365.45,189.0904285714287
1367.54,200.81804761904777
1369.62,212.14995238095258
1371.7,256.945523809524
1373.79,301.87361904761923
1375.87,303.55542857142876
1377.95,307.802142857143
1380.03,285.99685714285727
1382.1,264.61728571428586
1384.18,241.8074761904763
1386.25,219.188142857143
1388.33,181.5225238095239
1390.4,166.66890476190486
1392.47,151.77145714285723
1394.54,143.59292857142864
1396.6,127.0386190476191
1398.67,83.44279285714288
1400.74,54.32962380952385
1402.8,46.22324047619052
1404.86,57.600185714285765
1406.92,73.031830952381
1408.98,95.89902380952385
1411.04,65.77292380952385
1413.09,79.31970000000005
1415.15,89.11014761904767
1417.2,89.23869047619054
1419.25,111.27585714285722
1421.3,113.12517619047624
1423.35,104.07089047619057
1425.4,123.7781095238096
1427.45,136.054961904762
1429.49,119.9947333333334
1431.54,103.30982857142861
1433.58,75.56942380952385
1435.62,77.05684761904769
1437.66,108.29368095238105
1439.7,126.46814285714291
1441.74,114.4822571428572
1443.77,83.80944761904765
1445.81,88.7802952380953
1447.84,94.77283333333341
1449.87,119.83180476190482
1451.9,116.668480952381
1453.93,103.42248095238101
1455.96,87.23349047619057
1457.98,110.09825238095246
1460.01,117.15671428571439
1462.03,167.69100000000014
1464.05,221.5073333333335
1466.07,269.3643333333335
1468.09,301.4963809523811
1470.11,316.5667619047621
1472.13,285.6675238095239
1474.14,270.36661904761917
1476.16,259.47028571428586
1478.17,251.4037619047621
1480.18,253.78223809523826
1482.19,255.6024761904763
1484.2,228.90880952380962
1486.21,177.12683809523818
1488.21,130.39617142857148
1490.22,74.90398571428577
1492.22,54.40893333333338
1494.22,69.52700000000004
1496.22,61.16009523809526
1498.22,51.54340476190479
1500.22,58.10267142857146
1502.22,44.025671428571464
1504.21,42.97644761904764
1506.21,50.333493333333344
1508.2,15.427738571428582
1510.19,14.923420000000043
1512.18,49.29461380952385
1514.17,67.58682952380958
1516.16,86.27421476190482
1518.14,95.92626000000004
1520.13,86.92204952380958
1522.11,67.64068285714288
1524.09,61.27112285714289
1526.07,47.90699809523812
1528.05,33.02307904761906
1530.03,15.522753333333338
1532.01,15.976204761904768
1533.98,13.953758095238122
1535.96,22.978202857142882
1537.93,50.71526095238099
1539.9,60.40224666666669
1541.87,49.7052047619048
1543.84,66.00427142857149
1545.81,105.01359523809532
1547.78,122.16111428571438
1549.74,156.065661904762
1551.7,164.82221904761911
1553.67,154.71666666666678
1555.63,137.60600000000008
1557.59,142.10938095238106
1559.55,132.94109523809533
1561.5,141.8157142857144
1563.46,146.3049523809525
1565.41,153.218761904762
1567.37,146.55785714285724
1569.32,150.4652857142858
1571.27,145.84661904761913
1573.22,140.75042857142864
1575.17,138.65342857142866
1577.11,153.74673333333345
1579.06,140.79349523809532
1581.0,150.41370476190485
1582.95,154.27493333333342
1584.89,153.09284761904775
1586.83,155.963161904762
1588.77,162.03001904761913
1590.7,139.53280952380965
1592.64,141.33004761904772
1594.58,141.25650000000007
1596.51,148.45657142857158
1598.44,166.43176190476217
