Raman Shift,Processed Intensity
331.095,59.284878571428386
333.909,0.7100752380951789
336.721,-22.370140476190464
339.531,-21.832791904761898
342.339,-12.531331428571427
345.145,-1.0569847619047636
347.949,-3.928653809523811
350.751,1.0973757142857186
353.55,13.741821428571448
356.348,14.488128095238096
359.144,22.772954761904778
361.937,9.700588571428565
364.729,-2.7190047619047437
367.518,12.334766666666724
370.306,67.63572380952391
373.091,148.86368095238112
375.874,266.31850476190493
378.656,336.11067619047634
381.435,337.4944380952382
384.212,252.10670000000007
386.988,164.8710095238096
389.761,72.52173333333337
392.532,23.98491904761908
395.301,21.045004761904778
398.068,14.297080952380941
400.833,-14.614328571428572
403.596,-17.233963809523843
406.358,-36.86723000000001
409.117,-41.57991047619048
411.874,-3.5316042857142707
414.629,8.262283809523808
417.382,11.882949047619054
420.133,20.031958095238124
422.882,23.602631428571467
425.629,53.10838095238104
428.374,129.87365238095248
431.117,180.9857142857144
433.858,244.4379000000001
436.597,265.70039047619053
439.334,225.29247619047626
442.069,161.495761904762
444.802,133.78371428571438
447.533,123.4399523809525
450.262,159.79652380952393
452.989,215.85271428571443
455.714,265.276142857143
458.438,271.63881904761917
461.159,229.65690476190485
463.878,162.57085714285716
466.595,85.859580952381
469.31,67.81222857142865
472.024,70.14750476190483
474.735,110.77427619047629
477.444,144.07880952380964
480.152,179.3520476190477
482.857,183.02840952380961
485.561,185.2092095238096
488.262,147.66299047619057
490.962,131.9204095238096
493.659,109.46493809523815
496.355,107.54172380952389
499.048,87.96804285714292
501.74,98.18047619047627
504.43,106.37718571428582
507.118,116.89972380952389
509.804,129.18517142857152
512.488,165.5750761904763
515.17,182.4110380952382
517.85,182.9400238095239
520.528,157.78924761904767
523.204,107.20547142857147
525.878,72.05464761904767
528.551,65.0119571428572
531.221,82.94262857142863
533.89,88.80770000000005
536.556,109.61559047619055
539.221,96.85057619047625
541.883,99.0922857142858
544.544,95.20589047619052
547.203,98.77032380952387
549.86,89.1268714285715
552.515,118.04481904761913
555.168,115.43631904761912
557.819,138.30865714285721
560.469,159.43022380952394
563.116,201.90293333333344
565.761,190.68554285714293
568.405,186.92670476190483
571.047,150.87069523809532
573.687,122.4753238095239
576.324,135.84116190476203
578.96,169.16363809523818
581.594,163.78057142857153
584.227,160.26771428571436
586.857,135.91471428571435
589.485,128.58247619047629
592.112,128.65538095238102
594.737,128.51719047619054
597.359,118.78966666666676
599.98,135.23709523809532
602.599,145.194761904762
605.216,172.99742857142866
607.831,191.17015238095246
610.445,165.9044761904762
613.056,109.77241904761908
615.666,60.06009523809526
618.274,35.24351428571434
620.88,53.08391428571437
623.484,99.58086666666674
626.086,150.59025714285724
628.686,190.68221904761916
631.284,222.95038095238107
633.881,200.63052380952388
636.476,203.86328571428584
639.068,192.36052380952395
641.659,200.07152380952394
644.249,187.51752380952388
646.836,175.12376190476198
649.421,121.93396190476197
652.005,108.32542380952387
654.587,85.62761904761909
657.166,52.40773333333334
659.745,24.42377619047621
662.321,34.43297142857147
664.895,38.621252380952406
667.468,40.69848571428573
670.038,48.993309523809536
672.607,29.92951428571431
675.174,27.121323809523847
677.739,49.5161142857143
680.303,48.49002380952384
682.864,44.13334761904764
685.424,41.774400000000014
687.982,34.50336761904764
690.538,22.743805714285728
693.092,16.109668571428596
695.645,39.83395619047622
698.195,37.816327619047634
700.744,29.099281428571445
703.291,22.153914285714283
705.836,14.927524285714306
708.38,7.22456571428574
710.921,38.08760904761908
713.461,53.65448761904765
715.999,51.634514285714324
718.535,55.07031428571433
721.069,62.05246190476195
723.602,92.00422857142865
726.133,129.73052857142866
728.662,143.655080952381
731.189,108.82078571428575
733.714,96.36575238095242
736.238,70.71424285714292
738.759,89.28961904761911
741.279,104.80220476190483
743.798,111.77129523809529
746.314,88.71640952380956
748.829,85.39517142857146
751.342,59.18450476190479
753.853,58.55629523809528
756.362,62.93552857142862
758.869,78.79460952380957
761.375,73.36801904761909
763.879,70.36657619047622
766.381,64.35847619047625
768.882,98.72121428571435
771.38,120.07113333333339
773.877,95.64350476190478
776.372,64.67378095238098
778.866,48.06439523809529
781.357,57.717695238095324
783.847,117.48861428571438
786.335,140.5185476190477
788.821,138.1868857142858
791.306,158.34925714285725
793.789,159.19496190476198
796.27,152.77026666666677
798.749,170.69350476190488
801.227,162.2974285714287
803.702,183.295761904762
806.176,205.25971428571438
808.649,186.85590476190484
811.119,154.75071428571437
813.588,160.84933333333345
816.055,158.53280952380962
818.521,175.37290476190486
820.984,163.608761904762
823.446,158.76504761904772
825.906,142.84219047619058
828.365,169.8415714285715
830.821,167.24033333333344
833.276,168.08738095238104
835.729,145.098761904762
838.181,134.7045714285715
840.631,132.04890476190485
843.079,151.51471428571438
845.525,151.62795238095245
847.97,136.43807142857148
850.412,128.1376095238096
852.854,111.44314761904769
855.293,111.02344761904769
857.731,106.40480476190481
860.167,93.39944761904766
862.601,78.6286952380953
865.034,86.14272857142862
867.465,75.27772857142861
869.894,87.65553809523817
872.321,88.99324761904766
874.747,70.1031952380953
877.171,83.55985714285721
879.594,89.27089047619053
882.014,71.57266190476197
884.433,98.8493476190477
886.851,114.19925714285722
889.266,132.48272857142868
891.68,174.94109523809533
894.092,165.91080000000008
896.503,146.204761904762
898.912,139.3025714285715
901.319,143.159761904762
903.724,159.20809523809535
906.128,190.1652857142858
908.53,182.89195238095246
910.931,172.05790476190487
913.329,164.4760857142858
915.726,148.19740000000007
918.122,122.55841428571436
920.516,113.03897142857149
922.908,107.7850714285715
925.298,111.41882857142865
927.687,120.99113333333338
930.074,104.74338571428575
932.459,75.63108095238098
934.843,48.37174285714289
937.225,49.349252380952436
939.605,60.995342857142916
941.984,93.88443809523817
944.361,111.97185714285719
946.736,106.21277619047625
949.11,108.46729047619054
951.482,87.11899523809527
953.853,59.40866666666672
956.222,66.6723428571429
958.589,60.483923809523844
960.954,60.179185714285765
963.318,74.61775714285717
965.68,65.70659047619051
968.041,50.49546190476193
970.4,42.89128095238097
972.757,33.99123809523812
975.113,44.84485714285717
977.467,35.21586219047621
979.819,26.724987666666674
982.17,11.088061047619053
984.519,1.7351823333333485
986.866,12.143865809523842
989.212,37.886863857142885
991.556,66.96520504761911
993.899,79.8086428571429
996.24,100.17996666666673
998.579,98.74671428571433
1000.92,95.74767142857148
1003.25,83.61203333333339
1005.59,89.91160476190481
1007.92,91.12309047619053
1010.25,88.00861428571433
1012.58,92.61605238095245
1014.91,90.65977619047625
1017.24,109.80637142857152
1019.56,114.48445238095245
1021.88,121.88436190476197
1024.2,116.86290952380959
1026.52,147.27699047619058
1028.84,153.36430476190486
1031.16,159.17187619047627
1033.48,150.31795238095245
1035.79,141.51642857142866
1038.1,163.43304761904776
1040.41,193.40028571428581
1042.72,210.94147619047632
1045.03,216.34128571428585
1047.33,204.07461904761914
1049.64,186.52176190476203
1051.94,181.87195238095245
1054.24,160.36157142857155
1056.54,140.41838095238103
1058.84,135.61247619047626
1061.13,135.79942857142868
1063.43,141.263761904762
1065.72,169.14704761904773
1068.01,177.97133333333343
1070.3,190.59233333333344
1072.59,200.8656190476192
1074.87,215.3130000000001
1077.16,214.74257142857158
1079.44,223.343142857143
1081.72,224.97019047619068
1084.0,278.19328571428593
1086.28,344.29623809523844
1088.56,455.65838095238126
1090.84,600.9919523809527
1093.11,676.0096190476194
1095.38,700.5187619047623
1097.65,662.2316666666669
1099.92,550.908285714286
1102.19,469.0233333333336
1104.46,424.57452380952407
1106.72,387.65519047619074
1108.98,370.64423809523834
1111.24,392.8253809523812
1113.5,422.2917142857146
1115.76,487.0890000000003
1118.02,517.786666666667
1120.28,534.2398095238098
1122.53,483.30371428571453
1124.78,439.9290952380955
1127.03,372.7328571428573
1129.28,320.47452380952393
1131.53,274.5331904761906
1133.77,249.7166190476192
1136.02,208.1179523809525
1138.26,193.68790476190486
1140.5,179.80557142857157
1142.74,195.13566666666682
1144.98,219.05723809523823
1147.22,253.56866666666684
1149.45,251.14428571428584
1151.69,239.97271428571443
1153.92,224.67128571428583
1156.15,224.85771428571442
1158.38,201.7202857142858
1160.61,192.40074285714292
1162.83,144.6116952380953
1165.06,117.06583809523818
1167.28,101.61897142857148
1169.5,97.69836190476198
1171.72,98.58806190476196
1173.94,89.42992857142862
1176.16,73.22257619047623
1178.37,54.39327619047621
1180.58,40.22676666666669
1182.8,26.10289523809526
1185.01,28.734961904761924
1187.22,16.360092857142867
1189.42,22.739304761904766
1191.63,13.300354761904776
1193.84,18.661538095238114
1196.04,27.631726190476215
1198.24,37.3531523809524
1200.44,35.73005714285716
1202.64,36.76196666666668
1204.84,19.16280476190476
1207.03,3.741785714285718
1209.23,-0.8822285714285654
1211.42,-1.1379333333333124
1213.61,30.069942857142898
1215.8,49.1224142857143
1217.99,54.019666666666694
1220.18,64.80960285714288
1222.36,52.39734571428573
1224.55,27.783377142857162
1226.73,31.92064000000002
1228.91,34.666929523809564
1231.09,52.02302666666671
1233.27,74.18030285714289
1235.44,70.18730476190478
1237.62,56.235623809523844
1239.79,65.89753809523816
1241.96,100.9842095238096
1244.13,127.1157952380953
1246.3,123.91276666666673
1248.47,124.66221428571437
1250.64,111.22291428571437
1252.8,133.9773380952382
1254.96,172.0224857142858
1257.13,187.9791142857144
1259.29,204.75376190476203
1261.44,220.49109523809537
1263.6,228.6219047619049
1265.76,219.90990476190484
1267.91,187.35709523809533
1270.06,154.39414285714295
1272.22,146.8801904761906
1274.37,138.6747142857144
1276.51,158.54209523809536
1278.66,148.72242857142865
1280.81,131.78985714285724
1282.95,142.8412857142858
1285.09,163.2126857142858
1287.23,154.71604285714295
1289.37,146.258561904762
1291.51,139.12844285714294
1293.65,104.66161904761911
1295.78,99.0031571428572
1297.92,117.06062857142862
1300.05,108.16982857142864
1302.18,110.85677142857152
1304.31,145.21934285714292
1306.44,161.30785714285724
1308.57,184.88685714285728
1310.69,188.0542380952382
1312.82,162.9553333333334
1314.94,160.6399523809525
1317.06,165.72995238095248
1319.18,175.37061904761916
1321.3,200.27876190476204
1323.41,209.5999047619049
1325.53,230.95542857142874
1327.64,300.20485714285735
1329.75,324.3988095238097
1331.87,331.06295238095254
1333.98,336.2950952380954
1336.08,323.09771428571446
1338.19,297.7587142857144
1340.3,287.8515714285716
1342.4,251.23590476190492
1344.5,214.2469047619049
1346.6,190.88698095238104
1348.7,144.06326666666675
1350.8,106.9683714285715
1352.9,87.27071428571433
1354.99,84.11501904761911
1357.09,95.55061904761912
1359.18,129.722561904762
1361.27,128.96574285714294
1363.36,145.8533142857144
1365.45,144.8155238095239
1367.54,154.75876190476203
1369.62,174.87480952380966
1371.7,229.5463809523811
1373.79,249.77447619047635
1375.87,276.2270952380954
1377.95,286.14371428571445
1380.03,281.1442857142859
1382.1,245.61052380952393
1384.18,218.16261904761916
1386.25,162.89647619047628
1388.33,155.38442857142866
1390.4,145.8175238095239
1392.47,156.57679047619055
1394.54,133.9485333333334
1396.6,104.83804761904766
1398.67,71.95960952380958
1400.74,80.45646666666671
1402.8,62.42346666666672
1404.86,83.38404761904766
1406.92,79.19525714285719
1408.98,79.47569047619054
1411.04,73.32002857142862
1413.09,83.68012857142863
1415.15,63.22168571428574
1417.2,50.515176190476225
1419.25,46.797723809523845
1421.3,68.9726952380953
1423.35,84.08635714285721
1425.4,100.89911428571432
1427.45,82.31403333333336
1429.49,72.8057333333334
1431.54,68.13415714285719
1433.58,59.487576190476226
1435.62,65.57843809523814
1437.66,76.83291428571432
1439.7,82.86771904761912
1441.74,86.8711285714286
1443.77,83.79288095238098
1445.81,59.10666666666671
1447.84,68.04801428571433
1449.87,67.85229047619052
1451.9,75.80248095238099
1453.93,83.75306666666673
1455.96,92.89157619047624
1457.98,89.88178095238102
1460.01,94.62529047619054
1462.03,103.69100952380961
1464.05,125.59936190476202
1466.07,177.72869523809538
1468.09,213.1712380952382
1470.11,247.35257142857157
1472.13,255.0788571428573
1474.14,262.49057142857157
1476.16,268.5363809523811
1478.17,261.11857142857156
1480.18,257.282142857143
1482.19,236.69057142857153
1484.2,201.15028571428581
1486.21,161.61130476190485
1488.21,132.6896714285715
1490.22,88.47815714285719
1492.22,62.26000476190478
1494.22,50.460961904761945
1496.22,33.31660000000002
1498.22,34.25315714285718
1500.22,36.411290476190494
1502.22,38.83637809523812
1504.21,20.335851904761924
1506.21,38.76488476190478
1508.2,42.26438523809527
1510.19,47.21355095238098
1512.18,33.51543380952382
1514.17,31.97794904761906
1516.16,19.599580952380975
1518.14,28.04558047619051
1520.13,39.886021904761925
1522.11,28.691122380952383
1524.09,15.26926285714287
1526.07,17.857541428571444
1528.05,16.93121904761906
1530.03,18.537106666666674
1532.01,13.817329523809525
1533.98,7.6760290476190605
1535.96,11.30318952380954
1537.93,23.65077857142859
1539.9,30.099441904761925
1541.87,22.458466666666684
1543.84,35.7277190476191
1545.81,73.5740190476191
1547.78,104.5684857142858
1549.74,138.66389047619057
1551.7,161.33649523809532
1553.67,151.7772380952382
1555.63,143.70058095238105
1557.59,133.53587619047624
1559.55,103.37847619047625
1561.5,83.61019523809529
1563.46,77.6126190476191
1565.41,79.29108095238102
1567.37,113.2174857142858
1569.32,134.91700476190485
1571.27,147.72368571428578
1573.22,141.2573333333334
1575.17,131.80490476190482
1577.11,111.70047619047628
1579.06,129.61166666666674
1581.0,122.34942857142865
1582.95,133.15300000000008
1584.89,147.49930476190485
1586.83,148.10413809523814
1588.77,131.73075238095245
1590.7,129.61829047619054
1592.64,118.72033333333341
1594.58,124.30028571428562
1596.51,116.19257142857123
1598.44,78.39839047619022
