Raman Shift,Processed Intensity
331.095,97.89366666666642
333.909,45.82023333333321
336.721,29.767169047618964
339.531,32.85825714285716
342.339,21.359995238095255
345.145,29.039057142857143
347.949,8.281733333333326
350.751,-9.810942857142857
353.55,-14.375504761904766
356.348,-2.9764342857142827
359.144,-5.939489047619045
361.937,1.7912171428571586
364.729,16.938993809523843
367.518,41.608750476190544
370.306,104.19233476190487
373.091,191.2247609523811
375.874,276.7662190476192
378.656,345.1633619047621
381.435,351.001761904762
384.212,288.7728495238096
386.988,197.01707571428577
389.761,81.46597047619049
392.532,9.519429047619065
395.301,-1.8502866666666478
398.068,-7.860271904761899
400.833,7.797630476190478
403.596,-4.9480190476190735
406.358,-11.214919047619054
409.117,-40.11956380952384
411.874,-41.633732857142874
414.629,-43.77562761904762
417.382,-17.70480809523809
420.133,-18.722275714285697
422.882,15.586604285714312
425.629,54.73288428571436
428.374,125.65779904761916
431.117,190.30377571428585
433.858,222.8527304761906
436.597,213.153761904762
439.334,182.77185714285724
442.069,158.79676190476198
444.802,167.03323809523818
447.533,155.57314285714295
450.262,158.22328571428582
452.989,192.17200000000014
455.714,218.7519047619049
458.438,213.48663809523822
461.159,182.5671857142858
463.878,123.94718095238102
466.595,110.3903857142858
469.31,110.13741904761915
472.024,145.19151904761915
474.735,169.74678095238102
477.444,157.52157142857152
480.152,148.61561904761916
482.857,163.41523809523818
485.561,165.25885714285727
488.262,192.96238095238107
490.962,191.34139047619055
493.659,160.40241428571434
496.355,129.1997333333334
499.048,113.97877619047625
501.74,96.07985238095245
504.43,111.98720476190483
507.118,99.70810952380958
509.804,100.15505714285725
512.488,126.90728095238106
515.17,186.2588666666668
517.85,203.7415523809525
520.528,202.93498095238104
523.204,172.41847619047627
525.878,148.1522857142858
528.551,143.47823809523823
531.221,175.023561904762
533.89,141.12932380952387
536.556,119.37495238095246
539.221,94.29176666666673
541.883,98.60154285714295
544.544,116.64541428571437
547.203,130.90680476190482
549.86,113.91660476190485
552.515,114.20582380952386
555.168,98.16180952380961
557.819,122.88648095238105
560.469,146.6242000000001
563.116,165.5714857142858
565.761,192.54358095238106
568.405,191.4984285714287
571.047,198.29795238095252
573.687,209.2331904761906
576.324,207.07057142857153
578.96,190.19519047619056
581.594,173.80142857142866
584.227,160.8455142857144
586.857,134.37791904761912
589.485,127.4494857142858
592.112,93.39610952380956
594.737,112.74365714285724
597.359,124.73227142857152
599.98,178.79203809523824
602.599,174.11456666666675
605.216,180.7482952380953
607.831,141.1222238095239
610.445,150.6651714285715
613.056,142.23409047619057
615.666,145.63763809523817
618.274,124.35115238095246
620.88,140.51625714285723
623.484,137.08362857142865
626.086,151.62302857142865
628.686,179.51274285714297
631.284,189.9409047619049
633.881,187.90433333333345
636.476,227.20957142857156
639.068,227.99580952380964
641.659,228.78352380952396
644.249,219.94909523809534
646.836,191.67889523809532
649.421,141.11108095238103
652.005,113.76478571428575
654.587,92.92040476190482
657.166,87.71610571428577
659.745,60.95575333333336
662.321,70.53834952380959
664.895,77.02989904761908
667.468,85.04355428571435
670.038,78.19223904761907
672.607,68.7558342857143
675.174,33.29960000000004
677.739,55.48393333333339
680.303,81.8742571428572
682.864,93.98814761904765
685.424,74.15287619047623
687.982,76.36218571428574
690.538,72.0387666666667
693.092,48.60532380952383
695.645,57.77014761904765
698.195,36.384942857142875
700.744,39.96800952380957
703.291,39.847214285714294
705.836,57.58903809523811
708.38,21.093300000000006
710.921,20.783738095238103
713.461,10.70378571428573
715.999,18.992052380952394
718.535,31.692352380952435
721.069,71.37238571428576
723.602,81.83827142857147
726.133,91.18205714285719
728.662,82.35319047619052
731.189,51.11083809523813
733.714,50.54778571428575
736.238,48.56640952380957
738.759,63.78364761904767
741.279,74.14997142857148
743.798,74.23506190476195
746.314,65.41832380952386
748.829,80.79368571428577
751.342,99.59783809523817
753.853,99.5917571428572
756.362,94.58410000000005
758.869,65.43126666666669
761.375,50.89454761904767
763.879,75.16399047619053
766.381,80.6677428571429
768.882,81.73915238095245
771.38,87.28285238095242
773.877,63.58465238095243
776.372,76.40650000000007
778.866,102.41540285714291
781.357,72.08804809523814
783.847,73.94859142857146
786.335,69.9501185714286
788.821,69.61714857142864
791.306,66.66465761904766
793.789,81.66500285714292
796.27,103.5236857142858
798.749,140.05122857142868
801.227,175.0107238095239
803.702,195.1177333333334
806.176,189.75410476190487
808.649,172.9212476190477
811.119,159.14397142857152
813.588,125.18603809523817
816.055,121.2392095238096
818.521,118.87662857142865
820.984,150.86147619047628
823.446,156.95731428571435
825.906,128.7370428571429
828.365,115.34547619047626
830.821,92.16521428571433
833.276,75.3411333333334
835.729,82.8272333333334
838.181,104.72077142857151
840.631,115.45202857142864
843.079,130.59448571428575
845.525,93.19775238095241
847.97,71.40678095238098
850.412,53.31859619047623
852.854,45.364067619047646
855.293,37.06884952380953
857.731,31.816108571428597
860.167,43.41759238095243
862.601,54.73236761904766
865.034,87.33416761904768
867.465,80.32016190476193
869.894,71.31171428571434
872.321,78.12025238095244
874.747,91.60541428571435
877.171,81.57868571428578
879.594,88.89958571428576
882.014,82.95113809523815
884.433,92.06889047619053
886.851,88.82617142857147
889.266,98.65380000000006
891.68,100.0301190476191
894.092,98.86185714285722
896.503,127.96077619047627
898.912,134.80514285714293
901.319,122.5875714285715
903.724,116.21475238095245
906.128,107.64094285714292
908.53,87.0585571428572
910.931,85.42194761904767
913.329,82.20934761904766
915.726,80.61311428571433
918.122,85.73017619047627
920.516,103.9906952380953
922.908,114.77749523809531
925.298,94.52102857142862
927.687,87.46091428571432
930.074,71.36077142857147
932.459,84.4124476190477
934.843,96.42698095238102
937.225,111.73911428571434
939.605,91.68369047619053
941.984,79.26180000000004
944.361,69.09390476190481
946.736,79.27626666666671
949.11,65.42913333333337
951.482,71.45829523809529
953.853,63.03139047619051
956.222,67.05397142857149
958.589,83.90804761904768
960.954,97.64177142857147
963.318,101.20808571428579
965.68,117.75050476190482
968.041,87.74566666666671
970.4,85.05107619047625
972.757,81.52439523809528
975.113,74.26084285714289
977.467,60.30810476190478
979.819,60.9519761904762
982.17,20.859047619047633
984.519,15.981576190476208
986.866,12.89084761904764
989.212,32.87207619047623
991.556,52.78244285714291
993.899,93.85946666666672
996.24,106.29347619047626
998.579,94.17927142857147
1000.92,96.13561428571435
1003.25,98.39978571428578
1005.59,104.35253809523817
1007.92,118.46941428571434
1010.25,119.2260571428572
1012.58,98.81233333333341
1014.91,95.98963333333339
1017.24,105.23355238095246
1019.56,106.8290333333334
1021.88,105.15661904761912
1024.2,119.78655714285722
1026.52,129.14702857142868
1028.84,129.2372285714287
1031.16,167.19937142857154
1033.48,195.08004761904772
1035.79,185.6879047619049
1038.1,193.11709523809537
1040.41,212.51019047619062
1042.72,228.86628571428585
1045.03,247.4699047619049
1047.33,254.03461904761915
1049.64,217.22600000000008
1051.94,202.51900000000015
1054.24,217.19880952380967
1056.54,220.5024285714287
1058.84,213.4287142857144
1061.13,199.45300000000012
1063.43,188.71704761904775
1065.72,197.6959047619049
1068.01,205.05547619047633
1070.3,219.79442857142874
1072.59,227.86428571428587
1074.87,234.12095238095253
1077.16,253.32523809523826
1079.44,254.809523809524
1081.72,274.28704761904777
1084.0,332.8038571428574
1086.28,405.78790476190505
1088.56,470.57104761904793
1090.84,588.8668095238099
1093.11,668.3881428571433
1095.38,686.372285714286
1097.65,658.3890000000004
1099.92,583.1520000000003
1102.19,474.37395238095263
1104.46,423.81600000000026
1106.72,414.762666666667
1108.98,416.6416190476194
1111.24,433.6894761904765
1113.5,457.714666666667
1115.76,468.23985714285743
1118.02,483.216523809524
1120.28,513.119666666667
1122.53,518.6627142857145
1124.78,494.7491428571431
1127.03,449.28252380952404
1129.28,394.16642857142875
1131.53,350.2573333333335
1133.77,309.22066666666683
1136.02,278.48395238095253
1138.26,243.2369047619049
1140.5,233.09723809523828
1142.74,259.349523809524
1144.98,282.70761904761923
1147.22,290.45614285714305
1149.45,281.02242857142875
1151.69,245.8344285714287
1153.92,232.65257142857158
1156.15,234.95252380952397
1158.38,227.97166666666678
1160.61,201.42347619047626
1162.83,161.54495238095245
1165.06,125.24015238095244
1167.28,88.31760476190482
1169.5,81.06263809523816
1171.72,90.61708095238102
1173.94,95.36130476190482
1176.16,107.67532857142862
1178.37,102.36819047619052
1180.58,87.77252380952386
1182.8,73.69744761904767
1185.01,62.57070000000003
1187.22,62.67750761904766
1189.42,52.112579047619064
1191.63,31.304015238095257
1193.84,34.346573333333346
1196.04,28.19218952380954
1198.24,19.173786666666693
1200.44,21.624318095238102
1202.64,31.68633904761907
1204.84,35.88337380952383
1207.03,23.977067619047624
1209.23,14.062510952380965
1211.42,15.472955238095258
1213.61,21.208432857142896
1215.8,30.126242380952405
1217.99,52.988686666666695
1220.18,49.22457571428575
1222.36,55.35825333333339
1224.55,68.7236528571429
1226.73,84.55964571428575
1228.91,57.24805238095241
1231.09,53.88520952380955
1233.27,52.7577285714286
1235.44,54.62871428571432
1237.62,40.928004761904795
1239.79,65.03790000000005
1241.96,60.43611904761909
1244.13,84.50510476190483
1246.3,101.86551428571434
1248.47,111.66202857142862
1250.64,100.22980000000007
1252.8,109.52286666666673
1254.96,117.5433000000001
1257.13,155.95946666666677
1259.29,184.20233333333346
1261.44,198.178761904762
1263.6,202.3671904761906
1265.76,176.67461904761913
1267.91,168.05580952380964
1270.06,162.7988095238096
1272.22,156.95357142857154
1274.37,147.23676190476198
1276.51,130.65095238095242
1278.66,127.10360000000009
1280.81,124.12100000000007
1282.95,109.84879047619053
1285.09,100.24143809523815
1287.23,107.63551428571435
1289.37,114.36680952380961
1291.51,129.342880952381
1293.65,102.23307142857146
1295.78,62.37348571428574
1297.92,56.62383333333339
1300.05,52.55867142857148
1302.18,94.60923333333342
1304.31,121.34958095238102
1306.44,125.16349523809532
1308.57,134.7679857142858
1310.69,159.97524761904774
1312.82,146.64533333333344
1314.94,173.63814285714298
1317.06,179.76600000000008
1319.18,176.17452380952392
1321.3,188.53285714285724
1323.41,213.17680952380965
1325.53,234.29961904761922
1327.64,278.85623809523827
1329.75,296.51609523809543
1331.87,306.8530000000002
1333.98,314.10761904761927
1336.08,293.9012857142859
1338.19,283.1888571428573
1340.3,261.21080952380964
1342.4,215.15961904761917
1344.5,172.51376190476196
1346.6,138.5136571428572
1348.7,92.20903809523816
1350.8,90.12560952380959
1352.9,85.74173333333339
1354.99,100.67816190476196
1357.09,99.36540476190483
1359.18,113.66247619047627
1361.27,116.09453809523818
1363.36,126.28214285714293
1365.45,121.70313809523819
1367.54,145.50197142857155
1369.62,170.25100000000015
1371.7,204.14228571428583
1373.79,221.84328571428586
1375.87,247.974142857143
1377.95,246.3929047619049
1380.03,261.10047619047634
1382.1,265.4304285714287
1384.18,243.62156190476205
1386.25,185.15072857142863
1388.33,144.87526666666673
1390.4,111.65284285714293
1392.47,102.95939047619055
1394.54,100.08049047619055
1396.6,85.44440000000002
1398.67,60.14619047619052
1400.74,60.851947619047664
1402.8,59.46606190476195
1404.86,62.08272857142862
1406.92,103.74882666666672
1408.98,93.60603380952385
1411.04,85.17695809523815
1413.09,77.55552333333334
1415.15,62.78789142857147
1417.2,48.82488142857149
1419.25,81.66495047619053
1421.3,81.54424285714289
1423.35,76.74660000000003
1425.4,62.17478571428575
1427.45,51.49337142857144
1429.49,42.27162380952383
1431.54,36.173900000000025
1433.58,36.959771428571464
1435.62,53.103095238095285
1437.66,83.4107095238096
1439.7,100.59454761904769
1441.74,126.89014571428577
1443.77,95.19960285714289
1445.81,72.5202628571429
1447.84,42.70660666666669
1449.87,40.42231523809528
1451.9,43.37910285714291
1453.93,72.28850761904768
1455.96,82.24287142857149
1457.98,109.04905238095245
1460.01,123.18020476190486
1462.03,142.395561904762
1464.05,163.1686190476192
1466.07,192.87747619047633
1468.09,210.99557142857157
1470.11,234.18661904761922
1472.13,242.06676190476202
1474.14,250.29995238095256
1476.16,254.50295238095254
1478.17,250.05380952380963
1480.18,218.7119047619049
1482.19,194.61714285714294
1484.2,165.7670857142858
1486.21,139.39728571428577
1488.21,110.17232285714289
1490.22,69.75622285714287
1492.22,23.670436190476202
1494.22,5.912586666666694
1496.22,16.385179047619072
1498.22,25.99096571428575
1500.22,50.442132380952415
1502.22,68.68906761904765
1504.21,54.206041428571446
1506.21,49.80077333333336
1508.2,37.56672523809526
1510.19,39.35937333333337
1512.18,43.462836666666696
1514.17,63.208958095238124
1516.16,52.31063333333336
1518.14,45.95699142857144
1520.13,22.76585809523811
1522.11,23.831243523809533
1524.09,9.628272333333344
1526.07,13.346396095238113
1528.05,22.36562909523812
1530.03,36.87555228571431
1532.01,41.01823042857147
1533.98,67.17383209523814
1535.96,56.484519047619074
1537.93,63.71171428571434
1539.9,68.8547428571429
1541.87,86.05599142857147
1543.84,69.69592952380955
1545.81,72.91704952380955
1547.78,53.671503809523855
1549.74,88.29210666666675
1551.7,121.778681904762
1553.67,160.79759619047627
1555.63,165.87248571428577
1557.59,145.051080952381
1559.55,123.76192380952389
1561.5,119.1476333333334
1563.46,113.82730476190486
1565.41,130.51503333333343
1567.37,155.6394857142858
1569.32,135.343761904762
1571.27,150.15166666666676
1573.22,147.73033333333342
1575.17,142.27009523809534
1577.11,154.96191428571439
1579.06,142.80591428571432
1581.0,118.8024952380953
1582.95,134.85646666666676
1584.89,146.44454285714295
1586.83,164.5193904761906
1588.77,182.65305714285725
1590.7,178.94109523809536
1592.64,170.76495238095248
1594.58,166.5535000000001
1596.51,156.71207142857153
1598.44,137.74116666666671
