Raman Shift,Processed Intensity
331.095,69.85967317811628
333.909,7.030537210920556
336.721,0.688472680752966
339.531,28.833486572178117
342.339,58.394171267465936
345.145,86.91818772164424
347.949,122.83417720897341
350.751,154.14224449798712
353.55,192.12825055035592
356.348,256.03048617212744
359.144,247.80158376020154
361.937,222.3942385726291
364.729,192.42788237984087
367.518,197.33154759209674
370.306,250.01054091072638
373.091,337.65597412224406
375.874,374.2209615591414
378.656,396.1825318463739
381.435,372.8273491716768
384.212,305.8707678891983
386.988,210.4568395040974
389.761,117.25355775236085
392.532,39.07191320444281
395.301,12.294471678429545
398.068,4.589666938918981
400.833,2.292760062571233
403.596,-18.68939167252711
406.358,-33.830708283033346
409.117,-48.84302223946224
411.874,-52.057025245799196
414.629,-51.51750472607091
417.382,-13.173824468966814
420.133,8.786730939441895
422.882,48.6532240157444
425.629,86.52437826699907
428.374,177.45141695450184
431.117,257.81900268868094
433.858,346.5833293375654
436.597,406.12926155430705
439.334,420.5084266856393
442.069,414.9630209660654
444.802,422.9734252358503
447.533,415.9724873256796
450.262,422.5836139651292
452.989,478.5255293577966
455.714,510.1837004231138
458.438,530.4674763238636
461.159,497.810085136568
463.878,458.74005909328525
466.595,442.6431360138936
469.31,481.7146369288548
472.024,479.57851036864895
474.735,485.00161474845936
477.444,438.5603817052179
480.152,419.16462229181025
482.857,423.39085698078
485.561,451.5775504299618
488.262,454.25367958143534
490.962,485.85301604620463
493.659,504.7141227745883
496.355,549.6517792980394
499.048,607.7665022090587
501.74,675.920732307769
504.43,745.6912122246927
507.118,834.9404116625524
509.804,888.7212859714232
512.488,956.8010823429308
515.17,1066.8994317187326
517.85,1164.5931073656616
520.528,1268.982688212795
523.204,1374.216365045641
525.878,1416.7756514622547
528.551,1453.1896662578974
531.221,1508.9398920001918
533.89,1502.9363621756856
536.556,1486.66051500309
539.221,1480.0223329608034
541.883,1444.5984346953865
544.544,1425.5844526443157
547.203,1426.4616963730377
549.86,1428.6638159120193
552.515,1457.0529889033087
555.168,1485.5389648899554
557.819,1528.698109605427
560.469,1583.8686397392225
563.116,1640.1030005596244
565.761,1729.0250054412309
568.405,1817.4488801543748
571.047,1868.7125928688233
573.687,1931.4397555860492
576.324,1955.5872398572155
578.96,1970.4451734535455
581.594,1956.4464608461994
584.227,1939.9763036861746
586.857,1870.276959379431
589.485,1796.3048806144002
592.112,1734.8735691752067
594.737,1629.939286897757
597.359,1531.0772428162986
599.98,1465.6720660242613
602.599,1391.6797071065325
605.216,1365.15124433362
607.831,1370.8519279510833
610.445,1375.6897482784757
613.056,1440.5249561892324
615.666,1545.4557740667651
618.274,1694.1517258081672
620.88,1919.3298239707897
623.484,2169.8021854902368
626.086,2422.7617426364577
628.686,2584.163192065086
631.284,2672.7706105354387
633.881,2657.1574515808998
636.476,2596.5160659888215
639.068,2499.1338889470953
641.659,2336.488674809786
644.249,2078.9627794817898
646.836,1788.9383951844738
649.421,1437.0356423641497
652.005,1099.588756838652
654.587,846.6460864677215
657.166,652.1129449662367
659.745,501.1325609555579
662.321,415.75274130056596
664.895,317.9258677800417
667.468,236.12794137608944
670.038,200.02524561118162
672.607,177.6172003613924
675.174,139.76016805058225
677.739,104.45316460650201
680.303,57.790237083556804
682.864,32.34141271413546
685.424,39.62888605518128
687.982,30.507974011003625
690.538,27.50045527371094
693.092,23.508866282285
695.645,14.435562290278085
698.195,5.468447972287777
700.744,-2.0142419033240913
703.291,-37.491541241177856
705.836,-32.061636522773824
708.38,-13.060893781082996
710.921,18.793300687846568
713.461,56.973981793552866
715.999,115.38271240995846
718.535,157.63530918178685
721.069,197.96661595003252
723.602,186.70670574885708
726.133,157.37613042153544
728.662,109.49545595068457
731.189,83.15670255039777
733.714,18.451927615517434
736.238,-10.90771513861364
738.759,-32.30624986973726
741.279,-20.746676611775
743.798,-16.75572165888525
746.314,-13.002876950424252
748.829,-31.728963265442417
751.342,-35.55564579812608
753.853,-33.77114020942645
756.362,-21.94925519837807
758.869,-22.99701009126602
761.375,-12.39273201287233
763.879,7.052037418478449
766.381,-2.521745556512087
768.882,12.788895038258033
771.38,-1.5891422569466158
773.877,3.3901998243941307
776.372,14.773087722862783
778.866,16.272461786623353
781.357,35.83946290970243
783.847,65.75866869408264
786.335,97.83856770702596
788.821,175.69727183364148
791.306,221.0482286294441
793.789,268.1764098634021
796.27,351.0811667276398
798.749,453.142894570964
801.227,569.2658881085745
803.702,677.9259585365417
806.176,732.0275744558076
808.649,760.0943361295126
811.119,733.8404021212764
813.588,719.0276302191937
816.055,669.2750993122077
818.521,597.9162503140988
820.984,527.4274556588975
823.446,482.6184935582123
825.906,409.5373079728338
828.365,370.80334001291703
830.821,334.5599069572131
833.276,295.2837241294428
835.729,266.4515696318158
838.181,234.92123479283828
840.631,218.5505698532429
843.079,197.43557727096004
845.525,188.14850502609534
847.97,192.78546373542986
850.412,201.63309138597378
852.854,177.40664663994767
855.293,168.7261973778509
857.731,134.06899971772964
860.167,94.67425798681597
862.601,95.30502755031739
865.034,99.77202240210636
867.465,114.36218466017272
869.894,126.83868263350723
872.321,99.39328984136637
874.747,66.12257355634529
877.171,66.93265477601881
879.594,56.77730152792219
882.014,74.41983169834248
884.433,115.38549205157369
886.851,114.24717058252054
889.266,140.86348982166828
891.68,173.66451918768098
894.092,165.22320162571486
896.503,174.35058976953724
898.912,209.00060591317742
901.319,219.46051626828876
903.724,232.30330998342106
906.128,240.53055435376928
908.53,225.76286907853182
910.931,219.9065909944684
913.329,210.77281976183758
915.726,228.74408259795428
918.122,222.10766567741302
920.516,207.38894553231194
922.908,207.3513871191326
925.298,166.6155895046768
927.687,161.3259505996175
930.074,197.00780808252557
932.459,184.37696127627805
934.843,172.86347873875093
937.225,175.84979156779946
939.605,162.48021527767423
941.984,181.32761453257262
944.361,227.3457821659158
946.736,223.631342009146
949.11,215.66184219671413
951.482,216.29575323297558
953.853,226.67722796384487
956.222,218.90276631036022
958.589,216.30692762130093
960.954,166.9861382638942
963.318,118.46535635738883
965.68,102.07902222091025
968.041,126.49486596417137
970.4,134.0948579353294
972.757,134.21330202599165
975.113,109.80350040478515
977.467,79.96156110807078
979.819,66.73591991636795
982.17,57.55590984983519
984.519,15.56509256850859
986.866,-17.854934036986833
989.212,-6.227394921390442
991.556,18.97204274018941
993.899,66.31526726685661
996.24,108.37410047274261
998.579,111.57743950155418
1000.92,77.40173199445826
1003.25,46.65668935320127
1005.59,17.818619050846337
1007.92,12.74470932346594
1010.25,18.244456718977744
1012.58,36.032047812090696
1014.91,30.726361252380684
1017.24,31.136684098088608
1019.56,48.69128529276168
1021.88,73.77075104666483
1024.2,64.13655831343112
1026.52,82.21679112384936
1028.84,76.62995215775072
1031.16,96.89925050637339
1033.48,123.40498467282168
1035.79,135.81311604871667
1038.1,123.74193762894265
1040.41,160.71445701211223
1042.72,180.44411273436276
1045.03,202.5490620317271
1047.33,231.74265907869176
1049.64,200.54774275056752
1051.94,153.91568629061908
1054.24,147.79782792957053
1056.54,145.0978538860677
1058.84,153.48132422428057
1061.13,180.70900823531588
1063.43,190.16069600910487
1065.72,177.8352004824842
1068.01,178.49321663013325
1070.3,184.80018065551462
1072.59,191.85008156276353
1074.87,184.87974891904764
1077.16,192.3640929978949
1079.44,204.11134492251108
1081.72,225.02496347577585
1084.0,277.38935143403955
1086.28,315.34604809140023
1088.56,351.2270646411207
1090.84,408.74536241419446
1093.11,474.28056921314464
1095.38,530.3551718363001
1097.65,529.2059466973042
1099.92,456.1649142541555
1102.19,386.84981724776753
1104.46,336.25936084528666
1106.72,297.5351194500863
1108.98,305.77106255936883
1111.24,297.39450919320734
1113.5,333.1661299426296
1115.76,395.65613949389945
1118.02,474.8633462956518
1120.28,515.8818212736412
1122.53,542.9485189264481
1124.78,527.3956603259437
1127.03,493.2697827844263
1129.28,436.3317419027012
1131.53,381.29480885627163
1133.77,345.87229149103746
1136.02,328.5870601809122
1138.26,353.2001213044814
1140.5,398.75823834071343
1142.74,457.7367910599046
1144.98,504.7064442384278
1147.22,555.8569592306351
1149.45,547.3781483978955
1151.69,522.9836866804942
1153.92,474.67301840762593
1156.15,389.8742164883465
1158.38,335.3011273168004
1160.61,314.6676585345929
1162.83,271.02111441221655
1165.06,253.83743599237437
1167.28,220.4021555190236
1169.5,165.61992229498514
1171.72,136.72879044432125
1173.94,119.96688762708982
1176.16,107.33432184934145
1178.37,104.59318351120419
1180.58,67.2675474549767
1182.8,34.452998822735935
1185.01,3.435682723472155
1187.22,-0.30769371882342966
1189.42,16.366331159115134
1191.63,-10.970119276878222
1193.84,-32.79244806521433
1196.04,-22.195009193833585
1198.24,-13.795866654161728
1200.44,22.02510949176758
1202.64,43.03100173471057
1204.84,46.93736413909437
1207.03,66.22174362221244
1209.23,99.83796313818289
1211.42,114.787547719048
1213.61,140.35781718254293
1215.8,154.7885502684328
1217.99,199.2243630605708
1220.18,234.38137312323192
1222.36,252.26148268506745
1224.55,246.86666182306317
1226.73,225.81799355125327
1228.91,188.97471890943984
1231.09,204.29137729000604
1233.27,214.53208962188228
1235.44,226.88960345926125
1237.62,261.9852904512759
1239.79,325.3929533354849
1241.96,358.7816805504035
1244.13,446.67774846709153
1246.3,546.1312855254973
1248.47,682.2876982755695
1250.64,849.1495736088395
1252.8,1068.0528667042956
1254.96,1252.8097556409211
1257.13,1477.470543629289
1259.29,1728.2760374336228
1261.44,1984.6575448414828
1263.6,2137.8083007048695
1265.76,2175.302512028957
1267.91,2086.285831632241
1270.06,1882.618212759086
1272.22,1686.3977160732175
1274.37,1512.4843166512132
1276.51,1354.4999014521945
1278.66,1188.7806477398854
1280.81,1044.5198776951647
1282.95,904.24424636194
1285.09,819.3851676882655
1287.23,734.1359548531809
1289.37,711.4518177364025
1291.51,685.28795562611
1293.65,708.0757451648356
1295.78,751.0084521048702
1297.92,809.4698002065297
1300.05,842.4625401364183
1302.18,922.0846374133152
1304.31,983.2911746397722
1306.44,1084.084825162282
1308.57,1169.3253743505024
1310.69,1230.586859924099
1312.82,1288.3004265652976
1314.94,1359.2781329124023
1317.06,1408.5224728390103
1319.18,1460.5597062570419
1321.3,1480.8208089673822
1323.41,1416.7843272724253
1325.53,1355.404946874342
1327.64,1297.9230141542844
1329.75,1214.9121526897006
1331.87,1107.7078321525937
1333.98,963.5502229220779
1336.08,801.8222887921665
1338.19,679.8116892033709
1340.3,583.9964909981018
1342.4,496.8546896998814
1344.5,421.1975403163683
1346.6,354.12193576142863
1348.7,300.6294519438802
1350.8,271.7692023800446
1352.9,253.54259756820647
1354.99,221.42715198212045
1357.09,198.42410058833093
1359.18,203.9631582206357
1361.27,147.14061228787523
1363.36,125.62408214839297
1365.45,141.41442134163117
1367.54,136.03619124830584
1369.62,144.63289665533375
1371.7,187.96698322552493
1373.79,154.0865016339435
1375.87,180.61081932330944
1377.95,217.44490368797779
1380.03,224.4459862102949
1382.1,208.37594088266587
1384.18,197.23461501057864
1386.25,128.21220763466818
1388.33,112.3559336670628
1390.4,98.28430707534562
1392.47,45.32999549509668
1394.54,-8.603039443282114
1396.6,-20.84906845440605
1398.67,-35.123449560837116
1400.74,-6.951198327811653
1402.8,31.99967756270121
1404.86,34.7276966860552
1406.92,38.9931357516482
1408.98,52.651360048878814
1411.04,76.93853842537487
1413.09,138.8526003294396
1415.15,200.9627642810624
1417.2,299.31430443816225
1419.25,399.71426954379035
1421.3,487.8267256828449
1423.35,547.3632371340314
1425.4,555.1304900789578
1427.45,474.0779163112388
1429.49,397.7262693265509
1431.54,332.92953374602007
1433.58,307.3987395015115
1435.62,287.7972045923523
1437.66,282.40720641347025
1439.7,243.70141498830776
1441.74,213.67623096363673
1443.77,211.66131408056322
1445.81,203.2719687883896
1447.84,188.50438700133304
1449.87,192.06898609333803
1451.9,223.24755641669663
1453.93,231.51231358257746
1455.96,288.90685550345665
1457.98,359.85569086412124
1460.01,442.5928152117133
1462.03,549.3521918076906
1464.05,712.8439467654925
1466.07,884.0638975215493
1468.09,1171.7221289253282
1470.11,1550.4334740912886
1472.13,1949.812757155591
1474.14,2318.760512223295
1476.16,2610.8915594584014
1478.17,2818.7254859358127
1480.18,2869.7342693504247
1482.19,2793.485139821456
1484.2,2558.5453464587
1486.21,2188.577400119238
1488.21,1763.291459021296
1490.22,1367.8262857866735
1492.22,1001.463537816514
1494.22,728.9134862384963
1496.22,544.9816872349845
1498.22,412.18803432355276
1500.22,314.14771539941717
1502.22,249.47597930167467
1504.21,181.16909285573183
1506.21,118.79482172526173
1508.2,58.25433983558469
1510.19,20.59175784467402
1512.18,-8.101110290599763
1514.17,-0.06569503393825471
1516.16,2.694761963295832
1518.14,-1.1085978171181523
1520.13,-3.0026268680298926
1522.11,1.1525940924561837
1524.09,-8.121954320121176
1526.07,0.2662495781871712
1528.05,-2.8758707731076356
1530.03,-20.979368408191476
1532.01,-13.856127254682178
1533.98,-12.794097793948367
1535.96,-12.652534899111743
1537.93,7.614191478584644
1539.9,27.813736695155058
1541.87,53.7062538373134
1543.84,86.9567709078226
1545.81,100.94471086797785
1547.78,82.09722120390734
1549.74,80.41297968334197
1551.7,95.50980963619486
1553.67,161.71991428275783
1555.63,210.04225391904356
1557.59,245.2377802449762
1559.55,256.9722897402057
1561.5,286.1497532303979
1563.46,324.3885025963798
1565.41,344.4021793880513
1567.37,326.99973105734125
1569.32,285.08540719115695
1571.27,243.7539938395762
1573.22,217.62414308213397
1575.17,191.45741687982786
1577.11,158.92018806997703
1579.06,161.5836365991795
1581.0,160.16184099436327
1582.95,161.60701269097945
1584.89,148.7285398850047
1586.83,123.5739361468502
1588.77,114.42883665432146
1590.7,104.72175633033703
1592.64,101.07170512350945
1594.58,83.07389852681194
1596.51,61.109277620067814
1598.44,37.67783863623231
