Raman Shift,Processed Intensity
331.095,63.32910543572871
333.909,67.93583428747388
336.721,77.08440051146226
339.531,93.2748104380571
342.339,120.3880354392777
345.145,179.3764944496652
347.949,179.43072696328727
350.751,196.97939936409784
353.55,207.54645411344245
356.348,244.79873512803943
359.144,228.0221845865276
361.937,264.50280164079913
364.729,264.1933154130288
367.518,254.85604846891238
370.306,307.4438755289907
373.091,377.38594408474046
375.874,387.06387120515365
378.656,453.1450832004516
381.435,422.8685362381889
384.212,309.66377029268506
386.988,184.81758214207912
389.761,54.85498407965224
392.532,29.96778167279217
395.301,73.87172295051869
398.068,63.28269521006541
400.833,75.44054087108225
403.596,8.347159044117234
406.358,-26.328726234231453
409.117,-15.442035861403838
411.874,-11.32370938703616
414.629,-64.30451041533206
417.382,-46.286452880690376
420.133,-54.218990584437506
422.882,39.94859407969898
425.629,130.60050950060486
428.374,209.88300480755606
431.117,291.79959120713283
433.858,365.5443717626531
436.597,423.0734664117058
439.334,495.4859607931967
442.069,526.5000931696527
444.802,502.8342032542855
447.533,494.9210143713776
450.262,483.76477275954676
452.989,505.9888630654568
455.714,530.7881857423013
458.438,535.8815344482719
461.159,482.13064011170627
463.878,425.111595948611
466.595,398.9243777182742
469.31,406.14522112173336
472.024,430.6837611050064
474.735,409.2115997337464
477.444,381.8765883536089
480.152,412.11234784585986
482.857,468.78112221631864
485.561,513.8404417080924
488.262,548.5812144857541
490.962,548.5801040338056
493.659,546.6042875075141
496.355,584.6590712266102
499.048,625.5116966451747
501.74,681.0246701310493
504.43,767.91766417381
507.118,859.3389424022689
509.804,924.1986893638841
512.488,1000.7404355422668
515.17,1078.8743871365841
517.85,1184.3202796504966
520.528,1288.7026124334634
523.204,1352.2649308410914
525.878,1430.2031560145474
528.551,1505.6179622790091
531.221,1548.848106923081
533.89,1567.089474263927
536.556,1528.109357807632
539.221,1490.6750281238506
541.883,1479.6489673871188
544.544,1456.7031515372137
547.203,1447.9380943442716
549.86,1459.5971295691365
552.515,1494.685455028476
555.168,1527.2558433265608
557.819,1556.646733539431
560.469,1586.1965133752583
563.116,1658.2435156204265
565.761,1741.7926812522578
568.405,1850.7060320755568
571.047,1916.274095740101
573.687,1965.9778069486115
576.324,1989.9646943789949
578.96,1978.3345914161268
581.594,1959.8062992645691
584.227,1910.955678632718
586.857,1856.1680271312562
589.485,1814.923790004923
592.112,1749.6080803881018
594.737,1668.5106757508838
597.359,1595.0641095832225
599.98,1511.8436678409903
602.599,1433.1864330110861
605.216,1433.0960424622485
607.831,1423.1474467958833
610.445,1439.3916681968744
613.056,1504.5938921177485
615.666,1627.7572732485191
618.274,1804.4086462484656
620.88,2049.408046001699
623.484,2228.282037396556
626.086,2393.223711771656
628.686,2574.9974452667298
631.284,2728.748419078202
633.881,2833.288330190965
636.476,2804.619197348243
639.068,2603.314309878604
641.659,2374.4229860467685
644.249,2067.9467599758595
646.836,1771.4108066648896
649.421,1459.8639384348162
652.005,1123.0690775650614
654.587,826.4556336919568
657.166,630.5956907309869
659.745,466.2040033228445
662.321,381.3284694699669
664.895,303.2072698397287
667.468,236.22124516287613
670.038,199.13198791766717
672.607,166.60564829972282
675.174,150.30816876332165
677.739,150.38147094363512
680.303,129.20535686468838
682.864,92.49274348065819
685.424,79.38489721716815
687.982,57.78476375067294
690.538,22.73791683546233
693.092,10.813515100296172
695.645,-10.181401844491575
698.195,-22.48761481212341
700.744,18.60628903834504
703.291,22.525833880600658
705.836,13.315427444069428
708.38,2.3526590121878144
710.921,-8.556447859798027
713.461,20.251152100052423
715.999,108.20030405065381
718.535,152.0967160050177
721.069,163.46030954814614
723.602,136.85857055493398
726.133,86.19228086044768
728.662,41.93363088258684
731.189,55.93576081617812
733.714,44.0042065889661
736.238,26.944536293796318
738.759,8.181415192222175
741.279,-14.86042451997946
743.798,-29.422832994914643
746.314,-18.12851106229118
748.829,-27.028613382317417
751.342,-34.03130700015481
753.853,-38.806522190140186
756.362,-33.50022985003261
758.869,-14.163008095038549
761.375,-3.797660469701441
763.879,24.069352909177724
766.381,27.006960400110984
768.882,10.53661912257894
771.38,24.89421714745731
773.877,27.88721378268201
776.372,46.9422560493972
778.866,87.67660468190434
781.357,122.66003631809099
783.847,141.7481742612922
786.335,155.4158192421496
788.821,118.32837541856179
791.306,141.24660970897958
793.789,211.4076016018812
796.27,341.6199786795364
798.749,493.0258188084399
801.227,656.7673142345038
803.702,731.3201023449224
806.176,791.3504059538409
808.649,786.0959831118462
811.119,772.5566007249777
813.588,716.5892700785062
816.055,673.3368156940405
818.521,621.0850156152082
820.984,570.8340274076218
823.446,497.2507665397907
825.906,443.0498561926024
828.365,390.66029135452027
830.821,339.22543625011394
833.276,313.98397414953297
835.729,287.2699047970341
838.181,250.94111326807706
840.631,208.99841501689843
843.079,204.10936282885314
845.525,197.79872043942487
847.97,186.87703139133146
850.412,183.34537836781874
852.854,162.39538062119573
855.293,132.5044294965992
857.731,138.05473347956968
860.167,124.57141086266984
862.601,117.05582050733574
865.034,86.41413070097497
867.465,69.64779277596517
869.894,76.37734806197977
872.321,90.65194912403513
874.747,110.80650004815152
877.171,154.6997491079701
879.594,127.76190524089998
882.014,122.8517783337852
884.433,99.16153855619041
886.851,78.35957093177876
889.266,92.87618705255136
891.68,137.28457488832055
894.092,175.25317716761947
896.503,203.30759356813633
898.912,184.878197192862
901.319,171.1572748557578
903.724,181.0037864150404
906.128,198.80050505884992
908.53,221.88258616234816
910.931,244.06137424005647
913.329,249.43392418390613
915.726,222.6210939298603
918.122,218.57706569596348
920.516,216.7798196013432
922.908,194.7549406185417
925.298,198.55180647823227
927.687,184.45787081203116
930.074,191.37961296198273
932.459,215.1282496947997
934.843,240.80068501134292
937.225,248.54141233705286
939.605,222.06632147428718
941.984,200.71031507845646
944.361,218.14159180084198
946.736,240.21878657426123
949.11,239.89572994635728
951.482,224.03096931765185
953.853,204.38776637007004
956.222,200.44361830498974
958.589,192.19977908129204
960.954,203.60982827246016
963.318,189.86538278081707
965.68,170.2056180755785
968.041,169.25059895470895
970.4,178.19175316392375
972.757,167.8871069204538
975.113,157.57556805585682
977.467,108.21025677787384
979.819,61.17278881323227
982.17,35.3685109314074
984.519,35.36935551600436
986.866,29.509076088516395
989.212,19.788006641613265
991.556,38.825440020043516
993.899,71.85962832042424
996.24,120.12873769884891
998.579,132.6327555594562
1000.92,101.41920726680019
1003.25,47.7736347629866
1005.59,36.02912280385408
1007.92,27.0424918618196
1010.25,61.194300552542245
1012.58,69.57932425205672
1014.91,58.76846228533532
1017.24,50.85635940056727
1019.56,41.50902724343587
1021.88,19.392418212344637
1024.2,48.36290407555225
1026.52,64.84823077877672
1028.84,89.89513991947547
1031.16,134.69318069730593
1033.48,166.71756948364896
1035.79,176.7768112958836
1038.1,188.63174984309398
1040.41,195.61461757178358
1042.72,191.1528476163437
1045.03,184.76907622572026
1047.33,175.41447852341162
1049.64,153.37353283888592
1051.94,138.6449755151889
1054.24,149.60847000226545
1056.54,169.88175214074954
1058.84,191.55872782671236
1061.13,205.06661829544942
1063.43,170.07072445289623
1065.72,155.61728644513187
1068.01,156.80015275169262
1070.3,170.0464968979329
1072.59,184.25967702453568
1074.87,201.58114307606206
1077.16,195.24758208474714
1079.44,201.25758726381287
1081.72,226.60975567221544
1084.0,267.87411921272405
1086.28,292.9064327728536
1088.56,346.75293855628
1090.84,442.840844699959
1093.11,515.8354705579197
1095.38,560.6402491279089
1097.65,523.0633961447049
1099.92,421.15124584009004
1102.19,329.18825336949294
1104.46,301.2208067624367
1106.72,281.3905626825108
1108.98,291.505877425446
1111.24,314.13704744098686
1113.5,359.2829784262019
1115.76,433.79975918068635
1118.02,508.30542593796645
1120.28,535.8466314587977
1122.53,553.5176950768471
1124.78,579.9367956015244
1127.03,537.1031166017583
1129.28,466.8254202612093
1131.53,425.6744307572833
1133.77,358.0304557353943
1136.02,334.3691030213133
1138.26,351.30890209542736
1140.5,391.8017827098504
1142.74,412.4664106483972
1144.98,508.302475867496
1147.22,540.8811711133058
1149.45,554.9642419673992
1151.69,519.9801797495907
1153.92,481.73850965886436
1156.15,408.3821741523982
1158.38,344.6732496579177
1160.61,281.08818709557795
1162.83,247.1987666855539
1165.06,205.62448132706322
1167.28,183.79444378691073
1169.5,166.18548436421884
1171.72,121.60786760278029
1173.94,68.53862805103017
1176.16,44.026334593445654
1178.37,46.11966430575808
1180.58,63.39121440540407
1182.8,64.55655229722265
1185.01,53.75993228581683
1187.22,18.43144085934
1189.42,-29.33204850289735
1191.63,-26.1954443323566
1193.84,-24.25210141128764
1196.04,-29.928583450589258
1198.24,-21.413238144035404
1200.44,8.915225134885532
1202.64,1.4401067052485814
1204.84,39.401942752286686
1207.03,56.13658956754534
1209.23,32.17045079826448
1211.42,17.363323744379613
1213.61,34.24172184600684
1215.8,58.61791470473008
1217.99,124.30420801285163
1220.18,172.20817934077058
1222.36,177.2850567815044
1224.55,161.20438330949492
1226.73,136.58810971084085
1228.91,112.72487798972861
1231.09,114.14144763200011
1233.27,110.41221710681157
1235.44,117.92112632067528
1237.62,142.0521305000725
1239.79,182.6653883597769
1241.96,258.47821217594355
1244.13,363.0174464306274
1246.3,482.4289893134451
1248.47,637.5730285089503
1250.64,829.5478484125724
1252.8,1008.8803040132275
1254.96,1273.3353423949793
1257.13,1524.9636194768
1259.29,1791.43483103805
1261.44,2030.180567553476
1263.6,2186.299073790127
1265.76,2176.9838179280655
1267.91,2137.285394014419
1270.06,1971.4448529888587
1272.22,1755.9889384709873
1274.37,1528.491989214384
1276.51,1289.0045082273327
1278.66,1083.43411284592
1280.81,969.2121990928526
1282.95,870.1510822267483
1285.09,781.2058991961844
1287.23,714.760320617564
1289.37,674.2455960863031
1291.51,688.283409011844
1293.65,721.6858743097991
1295.78,757.9317265702921
1297.92,796.9282225120087
1300.05,833.1539958172002
1302.18,910.3733405381217
1304.31,1014.6838278367936
1306.44,1093.468684629529
1308.57,1137.7301246124102
1310.69,1193.8988697629516
1312.82,1247.3103385084423
1314.94,1342.0141672276113
1317.06,1447.8694460380125
1319.18,1484.449478392945
1321.3,1463.660826392645
1323.41,1419.8385465716829
1325.53,1333.0319018768237
1327.64,1266.2900736448973
1329.75,1161.6621592949537
1331.87,1032.3876462108883
1333.98,898.0868856240677
1336.08,776.2848998292839
1338.19,651.93518940071
1340.3,568.84830231261
1342.4,478.9299268695704
1344.5,398.03803225578395
1346.6,337.03048527479905
1348.7,294.5745718511848
1350.8,260.33747091314444
1352.9,231.5100616084601
1354.99,204.42596861567563
1357.09,166.32346459813152
1359.18,145.96451551514156
1361.27,128.49192117126768
1363.36,137.61978909892514
1365.45,113.82400844098447
1367.54,98.05653335719398
1369.62,75.03109500202117
1371.7,48.27081826440508
1373.79,97.20345755512835
1375.87,168.39948973703122
1377.95,172.90545020548825
1380.03,167.19631658791786
1382.1,141.5564638718697
1384.18,97.74633381883223
1386.25,96.90719961612422
1388.33,97.79926386213356
1390.4,71.18261369440461
1392.47,42.91246163201686
1394.54,32.60581498939155
1396.6,7.212907194867057
1398.67,-26.506604642228922
1400.74,-38.364581669578
1402.8,-29.792011121141968
1404.86,-6.934236222142772
1406.92,31.396666583566912
1408.98,45.19807843834678
1411.04,44.46731383659403
1413.09,89.10638525964441
1415.15,154.01724400115518
1417.2,248.91130670676216
1419.25,343.9285057232664
1421.3,419.73252992400944
1423.35,481.79654172473033
1425.4,539.4507988613243
1427.45,534.0731333104548
1429.49,471.32704925778717
1431.54,371.6855353519377
1433.58,289.4786864822265
1435.62,246.79846841357448
1437.66,253.07014908807082
1439.7,243.43325373605967
1441.74,214.69394855865949
1443.77,195.51551964837904
1445.81,167.84694714782563
1447.84,147.6371936941232
1449.87,182.50187381571504
1451.9,228.72325666249253
1453.93,256.5359830216403
1455.96,323.5080204287178
1457.98,370.01685637397804
1460.01,455.7256915086832
1462.03,579.2501090419021
1464.05,751.6818869944434
1466.07,918.7794771194567
1468.09,1179.9203885849354
1470.11,1496.3392859419316
1472.13,1901.1279918546813
1474.14,2313.1878707831042
1476.16,2687.5155459986445
1478.17,2912.4409975524777
1480.18,2976.4370888151616
1482.19,2846.119569206754
1484.2,2572.008981688828
1486.21,2204.9592369231777
1488.21,1811.586187430497
1490.22,1411.9819160347954
1492.22,1068.1433100220988
1494.22,790.2101591086605
1496.22,567.4175391234642
1498.22,411.04819569072856
1500.22,284.19445172193105
1502.22,196.80582919354697
1504.21,120.40333759145597
1506.21,101.36519092677031
1508.2,59.212524751669434
1510.19,58.75225603237163
1512.18,29.83899064115508
1514.17,33.755978467424484
1516.16,11.500830433540841
1518.14,12.975997415411712
1520.13,-2.4397984559684573
1522.11,6.394153221304805
1524.09,-22.61944614984077
1526.07,-11.768282632687942
1528.05,4.1838584427089245
1530.03,8.378044980036293
1532.01,29.098292267986153
1533.98,29.866799988659068
1535.96,-4.937001250220874
1537.93,-10.981212906900282
1539.9,16.828054217097588
1541.87,22.72763076912679
1543.84,59.38300041158345
1545.81,95.9359161499749
1547.78,88.05201666099015
1549.74,92.53987119200065
1551.7,128.77954827008443
1553.67,142.7226129824744
1555.63,195.93974330462675
1557.59,240.9064416663855
1559.55,266.71731794671246
1561.5,314.60989627794606
1563.46,356.20270756435093
1565.41,363.92385819113747
1567.37,341.3443606382539
1569.32,283.4638450465493
1571.27,217.80579459347155
1573.22,207.56039991638
1575.17,194.82265163109787
1577.11,184.63995665999005
1579.06,168.10737360766075
1581.0,151.65332432712103
1582.95,156.46816262881975
1584.89,178.4565525134792
1586.83,172.71365592873872
1588.77,167.0965586210334
1590.7,139.46236265413927
1592.64,120.1919932134274
1594.58,125.118767314882
1596.51,103.62362918078179
1598.44,27.206576091567058
