Raman Shift,Processed Intensity
331.095,91.15041998923061
333.909,-23.992649777126644
336.721,-46.26967772260468
339.531,-5.013988067533319
342.339,74.06016081279449
345.145,140.54806169165204
347.949,167.8783771276985
350.751,177.71791048277282
353.55,159.87637693967827
356.348,174.25879356760197
359.144,201.5797741494207
361.937,260.6968716280753
364.729,267.03915864816827
367.518,263.36914143091235
370.306,319.1161022204892
373.091,347.5665845875719
375.874,387.91202158998567
378.656,410.58207821908354
381.435,369.95894622708784
384.212,258.2344960972664
386.988,168.41028615698542
389.761,35.53566692883305
392.532,-30.101733565850736
395.301,-64.4521911701222
398.068,-22.037209811717275
400.833,17.3361987025869
403.596,39.43265602679185
406.358,31.016984785515888
409.117,4.378015973188667
411.874,-48.71902821709591
414.629,-70.93729115771612
417.382,-65.84446662791242
420.133,-14.674704133847627
422.882,41.480904750032096
425.629,110.72192627085951
428.374,188.81475395068082
431.117,252.2402114644201
433.858,369.24116715742593
436.597,455.34633903922213
439.334,467.08457596772405
442.069,445.6515197858457
444.802,443.7191246009611
447.533,444.57850939770515
450.262,522.1875725555351
452.989,580.9805111281958
455.714,602.2963877422294
458.438,570.8076974954888
461.159,537.8536967604114
463.878,477.3451605587311
466.595,438.1929494599972
469.31,401.45086219436917
472.024,411.6013454082813
474.735,405.9364415153359
477.444,423.51016511863827
480.152,437.42421276645655
482.857,475.4470060412209
485.561,495.10892512470855
488.262,539.0832566489476
490.962,558.1385701185513
493.659,573.6149038568606
496.355,617.4713795235107
499.048,643.9528642510531
501.74,717.0185375434776
504.43,801.7704581747389
507.118,890.8821310872786
509.804,957.5985028619689
512.488,1039.9740524261674
515.17,1114.2537389046142
517.85,1215.8253780417685
520.528,1329.6958281479433
523.204,1417.4909855692608
525.878,1445.2176849195102
528.551,1479.3113135977192
531.221,1520.7310453533396
533.89,1565.5788833752495
536.556,1606.194893856948
539.221,1557.0619633712658
541.883,1504.0438895784241
544.544,1477.766329076941
547.203,1478.0453643021697
549.86,1553.2684513772092
552.515,1621.1563203447495
555.168,1625.0486849227473
557.819,1680.5232855934178
560.469,1698.0149326922383
563.116,1735.005978068371
565.761,1753.4072629355796
568.405,1813.1295419136081
571.047,1879.4644308790998
573.687,1983.32249767364
576.324,2034.8046861451544
578.96,2091.6785020940606
581.594,2059.3780087432324
584.227,2015.5276317317653
586.857,1990.1326307754193
589.485,1924.7219522794412
592.112,1830.2053676656647
594.737,1747.6829926519981
597.359,1625.3976636747566
599.98,1499.7825524062528
602.599,1436.6040183676078
605.216,1386.5330329701455
607.831,1401.9070797472632
610.445,1477.8730069672451
613.056,1546.7679754841765
615.666,1661.9289780174277
618.274,1800.4547393835196
620.88,2003.4438072041771
623.484,2254.327880709638
626.086,2491.871806208601
628.686,2667.078334462944
631.284,2793.0928780624563
633.881,2805.9177926090756
636.476,2761.650467424944
639.068,2625.3880829271484
641.659,2384.560939430999
644.249,2092.884833572382
646.836,1803.5515299681892
649.421,1487.5144709719889
652.005,1163.584010239224
654.587,879.6178843876428
657.166,645.8069227529813
659.745,502.1036142874923
662.321,435.88876969657304
664.895,358.3048502420538
667.468,260.7797727359689
670.038,180.3602383438515
672.607,109.42601376897346
675.174,75.45183148420256
677.739,65.34071853529258
680.303,73.28113486798111
682.864,64.27078593003807
685.424,28.449965718087242
687.982,11.053947443479046
690.538,-3.06319723040815
693.092,-9.095252149426415
695.645,32.62091912948972
698.195,21.12919642101133
700.744,3.092310713776442
703.291,4.982336197651875
705.836,23.22356538897293
708.38,-13.045567803334052
710.921,20.55134026271935
713.461,44.15249130265556
715.999,85.3721882707664
718.535,114.63418614439797
721.069,140.31456651776443
723.602,81.02746933860908
726.133,59.196538930586485
728.662,35.43589382516848
731.189,11.645382307833643
733.714,-7.941781083358819
736.238,-8.854236202049378
738.759,-32.144364604537714
741.279,-10.67398638454597
743.798,18.79041918250141
746.314,25.053918294598134
748.829,8.778851087807197
751.342,-8.134201803859924
753.853,-65.92735745045775
756.362,-62.9854164471767
758.869,-36.5977534973149
761.375,-16.291643612464213
763.879,0.501071667105407
766.381,18.30112387832196
768.882,-9.13247133024879
771.38,7.483296836037425
773.877,22.193526304724855
776.372,12.091113170691642
778.866,13.269129397253437
781.357,2.2970100410871055
783.847,20.220550000944968
786.335,93.94285314734725
788.821,139.462424309399
791.306,188.44459459495783
793.789,252.1262800441159
796.27,331.3635974255494
798.749,445.10805146143457
801.227,586.0255791952118
803.702,703.8298800736411
806.176,797.4252698383812
808.649,822.287629655661
811.119,832.9882123888151
813.588,770.3364964898606
816.055,736.951611319646
818.521,664.8813815156195
820.984,582.2689904072208
823.446,487.2577386693624
825.906,399.89580297591283
828.365,307.0886137007933
830.821,278.74170880955626
833.276,265.57025441762516
835.729,265.6704701104459
838.181,270.94819712077606
840.631,251.97603793453936
843.079,206.27906732526753
845.525,182.66816243614903
847.97,187.62095190971604
850.412,203.47228882704167
852.854,193.2237712659944
855.293,202.3056438118665
857.731,171.00536573467116
860.167,148.99141726168318
862.601,115.55139156425957
865.034,113.30627722085364
867.465,110.97235972765202
869.894,119.59931348540704
872.321,110.09400807197699
874.747,106.26812403868144
877.171,78.21910203998277
879.594,52.90156815364935
882.014,73.12733062949064
884.433,62.18442425713556
886.851,89.74186901952316
889.266,126.89728588925163
891.68,155.0340364344529
894.092,181.4878862341925
896.503,201.21366829386716
898.912,180.21385122251104
901.319,177.490916933908
903.724,176.6664050143736
906.128,163.07614756672638
908.53,175.77026595901953
910.931,186.0369770970865
913.329,192.30735207803627
915.726,194.01245579613533
918.122,221.63096273916517
920.516,201.68915373715663
922.908,212.28472223493281
925.298,181.46772342179565
927.687,165.19295193264543
930.074,147.03422431100125
932.459,190.94628051964537
934.843,203.0743044988776
937.225,221.18249234381892
939.605,194.65404905314517
941.984,186.0626138492462
944.361,180.21987597458065
946.736,206.46128572612452
949.11,195.3127178707682
951.482,184.2523731559604
953.853,155.85363220129966
956.222,145.30886177107823
958.589,170.1913162849155
960.954,189.5503726617335
963.318,194.91152706849334
965.68,189.18115357369197
968.041,159.21792946752794
970.4,135.49949867730993
972.757,149.17008756380483
975.113,132.9928826223586
977.467,92.11193199353465
979.819,58.09976125946423
982.17,23.004989240203486
984.519,-4.457199067064721
986.866,19.523515689274518
989.212,32.32877678176101
991.556,53.00678811343869
993.899,49.84374339290207
996.24,50.74477911886197
998.579,38.66254661233097
1000.92,26.64483166785385
1003.25,10.26312658568986
1005.59,16.51739268019037
1007.92,-2.735367688021597
1010.25,23.50460481903474
1012.58,21.95125838558988
1014.91,32.50892353322388
1017.24,29.843744707210135
1019.56,42.145588053323536
1021.88,45.93756824228103
1024.2,56.55224196083873
1026.52,59.70303949812751
1028.84,82.72236299865472
1031.16,64.9901609057788
1033.48,58.124407167097615
1035.79,53.55253282077774
1038.1,86.70190520094184
1040.41,119.38078333351768
1042.72,159.20689237970737
1045.03,151.65504569850555
1047.33,134.81905262348937
1049.64,92.79267385867024
1051.94,78.14581496956953
1054.24,52.686434160014414
1056.54,55.3176881441691
1058.84,80.2760303995151
1061.13,115.17883322935768
1063.43,126.45296220628143
1065.72,141.47763632988654
1068.01,148.06062151787046
1070.3,119.05728123995277
1072.59,117.51343667562105
1074.87,118.14156020520295
1077.16,118.36839747236945
1079.44,146.04925611330327
1081.72,189.2299135334879
1084.0,231.3847151606892
1086.28,293.79752984079187
1088.56,353.656990947929
1090.84,403.532689875557
1093.11,425.2323219084883
1095.38,432.4207368568177
1097.65,419.7627992136677
1099.92,378.97101021769004
1102.19,317.4245584869941
1104.46,302.55027541498475
1106.72,275.0607334233414
1108.98,287.6685346911836
1111.24,329.6577427413781
1113.5,386.50293307447237
1115.76,383.53586285024176
1118.02,426.707378664481
1120.28,456.9207528972224
1122.53,475.65073434667056
1124.78,494.8959321964703
1127.03,468.4645333163103
1129.28,402.0695433720489
1131.53,365.4716469834598
1133.77,345.05063931054565
1136.02,336.7101909731923
1138.26,369.8302320184398
1140.5,397.31457398298653
1142.74,458.06710338426956
1144.98,507.5155942591623
1147.22,550.8021873693319
1149.45,552.211964644694
1151.69,535.2205712459122
1153.92,475.97040905547055
1156.15,404.1754015973238
1158.38,323.4543303851142
1160.61,286.37845698467936
1162.83,257.56676412416346
1165.06,207.30500632795201
1167.28,140.16476055058774
1169.5,110.52723871546414
1171.72,89.20233834873852
1173.94,120.66674083230691
1176.16,134.92105727581657
1178.37,92.72792676963854
1180.58,41.1358289235518
1182.8,-7.949484546959411
1185.01,-40.19355823441356
1187.22,-21.45227764351671
1189.42,-21.72424794352878
1191.63,-12.29365330721339
1193.84,-12.777880433901373
1196.04,-9.032287252317929
1198.24,10.611693744014246
1200.44,40.775117468396274
1202.64,14.841039633305627
1204.84,10.09736457074905
1207.03,10.92731210024158
1209.23,29.333219268182347
1211.42,92.03177172097958
1213.61,156.54923623339118
1215.8,164.50717244421958
1217.99,184.28909697296012
1220.18,203.13571896502435
1222.36,173.76398516077325
1224.55,183.31945829788856
1226.73,175.32869551373415
1228.91,155.46115055725477
1231.09,143.48155219133378
1233.27,148.67847307135708
1235.44,157.9595652904295
1237.62,184.5658435436476
1239.79,256.5002540066466
1241.96,334.480052737968
1244.13,414.84156503380154
1246.3,555.2068495446333
1248.47,724.9122671537993
1250.64,890.5799069988934
1252.8,1125.9271077312728
1254.96,1370.0997882993825
1257.13,1626.1010168272928
1259.29,1880.7910080646989
1261.44,2095.7918827416574
1263.6,2227.582903113809
1265.76,2250.833803745694
1267.91,2166.738122294073
1270.06,2015.7274826721955
1272.22,1763.947782975978
1274.37,1566.0687167435194
1276.51,1409.0456751669872
1278.66,1249.6435540664206
1280.81,1086.5796084825724
1282.95,933.666307269752
1285.09,796.3351400696192
1287.23,760.2080433326055
1289.37,743.9069215774284
1291.51,755.1012638887032
1293.65,768.0319508907396
1295.78,771.9874426737229
1297.92,837.827585767508
1300.05,884.8883724963766
1302.18,963.0771765242544
1304.31,1060.8251312570828
1306.44,1138.1347463404245
1308.57,1188.1989527284973
1310.69,1261.353481086548
1312.82,1302.172097336077
1314.94,1407.9904096286382
1317.06,1523.858246748212
1319.18,1568.3967984183396
1321.3,1554.6081365616383
1323.41,1493.494260368835
1325.53,1409.0570937487614
1327.64,1289.441339921204
1329.75,1184.2201931526097
1331.87,1058.6810504917912
1333.98,948.6350330294408
1336.08,865.0360309671714
1338.19,762.5045105913159
1340.3,644.089416484836
1342.4,527.5538832630259
1344.5,423.9466615949418
1346.6,362.1735442248237
1348.7,313.6164110411364
1350.8,275.7998931932302
1352.9,258.0104181603833
1354.99,229.9628738684637
1357.09,201.61012994944895
1359.18,187.7144637628503
1361.27,171.180891179039
1363.36,165.39049736257448
1365.45,141.58138660314762
1367.54,135.2296321465201
1369.62,138.85879745403918
1371.7,159.13517174786875
1373.79,193.010624603839
1375.87,204.67498435381412
1377.95,189.84174982140212
1380.03,192.55761158146743
1382.1,174.82149702917195
1384.18,135.82266306806014
1386.25,119.89307451244304
1388.33,103.7931158231113
1390.4,84.18777903352475
1392.47,86.40856596171807
1394.54,63.21539042220638
1396.6,47.84419472360105
1398.67,32.10218521384604
1400.74,-4.013116278977577
1402.8,-26.171006548023797
1404.86,-32.56473171937523
1406.92,-5.101951747553585
1408.98,60.78574442569197
1411.04,99.14284370912287
1413.09,148.1565798013978
1415.15,212.06169936855486
1417.2,306.7118948881616
1419.25,434.3893327315566
1421.3,542.0903717222823
1423.35,582.811281694522
1425.4,588.2149144324835
1427.45,545.1545174669268
1429.49,490.72135739549753
1431.54,433.95900986972083
1433.58,365.7681257724794
1435.62,303.3826259669129
1437.66,272.60780080722884
1439.7,262.2488858399904
1441.74,259.6348756006407
1443.77,248.5232897909757
1445.81,223.10017755186436
1447.84,211.07535983119283
1449.87,236.11100508514915
1451.9,270.72639545570564
1453.93,299.345550090952
1455.96,343.20199132257653
1457.98,390.62446322429673
1460.01,488.37026921792017
1462.03,621.4824192031951
1464.05,813.5753481162535
1466.07,1012.3587297261333
1468.09,1311.0184332884494
1470.11,1630.7879563895358
1472.13,2032.7103339810715
1474.14,2390.1619521766074
1476.16,2752.1858858576215
1478.17,2953.253807708143
1480.18,3041.980278201757
1482.19,2954.64655939812
1484.2,2722.2006192156978
1486.21,2301.542849990179
1488.21,1865.335596556743
1490.22,1448.6222081418027
1492.22,1108.1603759690724
1494.22,865.9935661037064
1496.22,648.3557856297844
1498.22,441.9573012087433
1500.22,281.50845287590755
1502.22,191.33870593225856
1504.21,142.82522664572502
1506.21,137.3928865239011
1508.2,113.79998087247986
1510.19,88.18585211559548
1512.18,60.88041787806128
1514.17,40.35655621046976
1516.16,18.230109861906612
1518.14,20.117033409806027
1520.13,0.014349913615205878
1522.11,-23.176035288685625
1524.09,-26.74256840310727
1526.07,-20.211661953110934
1528.05,-3.8238834225408027
1530.03,26.942234215403687
1532.01,39.322570323289256
1533.98,32.02931784408884
1535.96,32.34621787914989
1537.93,15.366651409020733
1539.9,22.041254823804593
1541.87,40.74934497732443
1543.84,57.584629955572154
1545.81,46.640919845154485
1547.78,52.01212321603066
1549.74,70.93510074710275
1551.7,99.36109028038072
1553.67,159.81284616085964
1555.63,212.95606429068835
1557.59,256.1708071833323
1559.55,273.98007187488474
1561.5,306.383119740133
1563.46,309.6173777372014
1565.41,308.0155777474308
1567.37,281.1009911533549
1569.32,272.3969491309638
1571.27,230.37922008482656
1573.22,198.2379108927396
1575.17,164.21079672180213
1577.11,119.39284132067996
1579.06,84.4504792166274
1581.0,96.81208838870384
1582.95,77.52512960765421
1584.89,87.39900006150015
1586.83,97.8621726954209
1588.77,80.0098117421096
1590.7,64.41329301403198
1592.64,70.97734324330645
1594.58,46.86860799301189
1596.51,30.158505282783835
1598.44,35.180364928691006
