Raman Shift,Processed Intensity
331.095,101.03213095238063
333.909,-4.524623809523874
336.721,-9.437752380952233
339.531,36.913028571428626
342.339,66.07633809523811
345.145,34.00585238095239
347.949,36.18010476190478
350.751,33.125595238095265
353.55,15.369690476190508
356.348,50.91682380952384
359.144,55.39098095238097
361.937,29.798157142857193
364.729,63.00234285714293
367.518,90.77312857142866
370.306,141.07180000000017
373.091,279.05119523809543
375.874,396.53124761904786
378.656,438.4286666666669
381.435,401.423161904762
384.212,273.43368095238105
386.988,121.19005714285717
389.761,39.04242380952385
392.532,3.2940190476190705
395.301,7.964257142857175
398.068,19.55017142857144
400.833,27.264328571428564
403.596,-6.679114285714309
406.358,-35.54077619047622
409.117,-61.57975714285716
411.874,-53.48212380952381
414.629,-23.551438095238076
417.382,0.6245857142857272
420.133,38.45976190476195
422.882,49.55975714285718
425.629,84.24601428571438
428.374,132.46025238095248
431.117,218.05039047619064
433.858,262.103742857143
436.597,290.23255238095254
439.334,235.2403333333334
442.069,206.36071428571438
444.802,158.3994761904763
447.533,166.3542380952382
450.262,220.46128571428585
452.989,269.2916666666668
455.714,282.6069047619049
458.438,264.02721428571436
461.159,172.41130952380956
463.878,122.80930952380962
466.595,116.03335714285721
469.31,117.32597619047628
472.024,118.97683333333339
474.735,125.22890476190483
477.444,117.75423809523818
480.152,136.6543333333334
482.857,131.88747619047626
485.561,138.55614285714296
488.262,125.19123809523819
490.962,155.03833333333347
493.659,172.20040000000012
496.355,162.7812571428572
499.048,130.16975238095245
501.74,124.27955238095248
504.43,110.11965714285725
507.118,158.88949523809538
509.804,180.07425714285725
512.488,195.3499047619049
515.17,205.2971904761906
517.85,235.06828571428582
520.528,229.910761904762
523.204,221.3578571428572
525.878,190.51431428571436
528.551,146.15136190476198
531.221,114.65958095238105
533.89,142.04756190476198
536.556,129.61029047619053
539.221,114.40438095238102
541.883,103.77206190476194
544.544,89.48400000000008
547.203,98.88201428571438
549.86,145.8311714285715
552.515,154.81621904761914
555.168,178.22598095238106
557.819,194.63933333333347
560.469,209.44452380952393
563.116,215.36309523809535
565.761,186.73495238095248
568.405,173.04323809523822
571.047,161.57966666666675
573.687,150.15957142857152
576.324,153.26485714285724
578.96,162.3295714285715
581.594,144.16785714285726
584.227,155.54634285714295
586.857,131.85017619047625
589.485,105.55968571428579
592.112,111.10696666666675
594.737,134.11406666666676
597.359,164.1551285714287
599.98,187.37562857142868
602.599,182.96804761904772
605.216,177.98185714285722
607.831,163.4185714285715
610.445,146.5170476190477
613.056,142.7067333333334
615.666,107.2260190476191
618.274,105.88422857142865
620.88,122.49036190476201
623.484,145.18680000000012
626.086,190.97206666666682
628.686,245.36887619047633
631.284,260.37533333333346
633.881,304.65642857142876
636.476,306.73338095238114
639.068,304.27019047619063
641.659,285.12085714285723
644.249,241.99645714285725
646.836,182.94110476190482
649.421,131.28458095238096
652.005,65.88004761904766
654.587,46.91374761904765
657.166,34.71469904761907
659.745,20.32597523809525
662.321,26.64772666666668
664.895,11.53227238095238
667.468,9.784240952380978
670.038,28.970062857142878
672.607,36.65612476190478
675.174,26.26588952380954
677.739,45.794210666666686
680.303,30.188301619047635
682.864,18.10963561904764
685.424,43.12438695238099
687.982,47.0369322857143
690.538,35.74685400000003
693.092,32.86802638095237
695.645,2.442966190476181
698.195,-10.342905238095208
700.744,24.7910804761905
703.291,28.12580095238097
705.836,40.084963333333356
708.38,50.092422857142886
710.921,42.095904761904805
713.461,48.614709523809566
715.999,75.40632380952385
718.535,80.32350571428576
721.069,76.93338666666669
723.602,69.80325904761906
726.133,41.02425619047621
728.662,49.16369238095244
731.189,56.8845247619048
733.714,71.56382952380956
736.238,70.19783809523813
738.759,76.497280952381
741.279,80.12526666666673
743.798,107.45892380952387
746.314,110.82839047619052
748.829,102.94458571428576
751.342,91.94710952380957
753.853,83.45202380952387
756.362,71.83728571428576
758.869,57.43311904761909
761.375,63.284366666666706
763.879,64.53110000000004
766.381,70.31347619047622
768.882,70.15277142857146
771.38,69.61794285714289
773.877,63.65898571428575
776.372,66.79741428571432
778.866,71.65014761904767
781.357,60.02454285714289
783.847,67.15694285714291
786.335,73.90238571428576
788.821,83.35452380952388
791.306,94.08300476190483
793.789,113.84799047619055
796.27,133.79113333333342
798.749,140.10170476190484
801.227,157.730761904762
803.702,182.10571428571438
806.176,192.55876190476204
808.649,201.8986666666668
811.119,202.6962380952382
813.588,182.95090476190487
816.055,199.8999523809525
818.521,193.78080952380964
820.984,174.83142857142866
823.446,155.67100000000008
825.906,118.77557142857151
828.365,119.24047619047627
830.821,137.82733333333343
833.276,138.77476190476202
835.729,159.9404285714287
838.181,171.84890476190486
840.631,171.92919047619057
843.079,171.70590476190486
845.525,160.75142857142868
847.97,142.2573333333334
850.412,144.70099047619055
852.854,102.75046666666671
855.293,58.35934761904764
857.731,29.10078095238098
860.167,42.83394761904768
862.601,60.60803809523816
865.034,96.66313809523815
867.465,89.33470476190479
869.894,50.815461904761925
872.321,41.34590476190481
874.747,63.16676666666672
877.171,76.37542857142864
879.594,119.2129476190477
882.014,133.82470476190483
884.433,132.9757142857144
886.851,139.28790476190485
889.266,148.38304761904772
891.68,138.5500000000001
894.092,151.5537142857144
896.503,164.15895238095248
898.912,178.75009523809535
901.319,191.14014285714302
903.724,219.5701904761906
906.128,227.75804761904774
908.53,216.9447142857144
910.931,190.8955714285715
913.329,162.61385714285723
915.726,162.76990476190488
918.122,166.60476190476203
920.516,180.07414285714296
922.908,177.46719047619055
925.298,179.88237142857153
927.687,163.60872857142868
930.074,168.98279047619056
932.459,151.6265095238096
934.843,126.01940952380961
937.225,134.54567142857152
939.605,150.87470000000005
941.984,111.29534285714291
944.361,83.09613809523813
946.736,74.2320952380953
949.11,78.99180476190486
951.482,109.09218571428578
953.853,112.86908571428576
956.222,89.75355238095241
958.589,81.79556190476197
960.954,75.4258952380953
963.318,91.83717142857151
965.68,120.5075857142858
968.041,114.77258571428578
970.4,107.49122380952386
972.757,108.7605047619048
975.113,79.82018571428576
977.467,67.14795333333338
979.819,62.60231523809526
982.17,24.27999714285716
984.519,20.03948000000004
986.866,44.31024952380959
989.212,91.85547238095246
991.556,128.5330771428572
993.899,158.72499047619056
996.24,148.09846190476196
998.579,123.03514285714292
1000.92,115.67815714285722
1003.25,108.5043571428572
1005.59,94.08531904761914
1007.92,109.13585238095246
1010.25,112.9413333333334
1012.58,104.45444285714294
1014.91,115.2466571428572
1017.24,127.26984761904772
1019.56,134.09540476190483
1021.88,120.38977619047627
1024.2,124.67590952380962
1026.52,150.6680904761906
1028.84,182.27065238095253
1031.16,231.3871190476192
1033.48,234.92210476190485
1035.79,205.3510000000001
1038.1,199.33909523809538
1040.41,225.93347619047634
1042.72,242.70447619047636
1045.03,254.46047619047636
1047.33,259.05776190476206
1049.64,240.4478095238096
1051.94,240.248142857143
1054.24,242.5051904761906
1056.54,235.69352380952395
1058.84,223.7166666666668
1061.13,242.66842857142873
1063.43,224.8331904761906
1065.72,216.0669047619049
1068.01,207.60580952380965
1070.3,230.16247619047638
1072.59,248.68766666666681
1074.87,272.8466666666668
1077.16,260.54247619047635
1079.44,249.48771428571442
1081.72,270.87100000000027
1084.0,331.7382380952384
1086.28,399.7065238095241
1088.56,528.1553809523814
1090.84,644.3209523809528
1093.11,747.8677619047625
1095.38,806.5560476190481
1097.65,764.3363809523812
1099.92,650.2068095238097
1102.19,534.4988095238097
1104.46,428.0200476190479
1106.72,382.9590476190479
1108.98,388.12361904761934
1111.24,422.03557142857176
1113.5,495.4072380952384
1115.76,538.2366190476195
1118.02,585.6648571428575
1120.28,603.5947619047622
1122.53,587.8340000000004
1124.78,545.3330000000003
1127.03,488.23300000000023
1129.28,395.436761904762
1131.53,320.3236190476192
1133.77,263.1774285714287
1136.02,233.56776190476205
1138.26,214.77871428571444
1140.5,210.76100000000014
1142.74,223.65547619047638
1144.98,235.31804761904775
1147.22,266.17557142857163
1149.45,291.08347619047635
1151.69,262.9930000000001
1153.92,248.23557142857157
1156.15,233.38119047619062
1158.38,210.33361904761918
1160.61,200.47233333333344
1162.83,195.4623333333334
1165.06,153.683761904762
1167.28,145.7065714285715
1169.5,139.8154952380953
1171.72,115.34282857142863
1173.94,111.76361904761912
1176.16,106.21968095238098
1178.37,103.94822857142861
1180.58,100.71051428571434
1182.8,94.1724828571429
1185.01,53.142892380952404
1187.22,35.43061809523811
1189.42,16.844726666666688
1191.63,20.384613333333352
1193.84,30.192878952380976
1196.04,32.316819666666674
1198.24,17.6609402857143
1200.44,30.749092238095272
1202.64,44.485854571428604
1204.84,48.39512252380956
1207.03,67.00087228571431
1209.23,51.44622380952381
1211.42,26.39818095238097
1213.61,10.809799999999996
1215.8,6.252928571428587
1217.99,16.20451619047622
1220.18,32.66539238095239
1222.36,33.35078952380954
1224.55,24.880779047619054
1226.73,29.494727619047662
1228.91,47.336678095238135
1231.09,58.02707333333336
1233.27,51.376942857142886
1235.44,61.10205714285718
1237.62,45.58515238095242
1239.79,69.35188571428577
1241.96,66.1659904761905
1244.13,71.98177142857149
1246.3,67.89650952380957
1248.47,84.48380000000006
1250.64,101.36496666666675
1252.8,136.63721904761914
1254.96,160.3984523809525
1257.13,199.2220952380954
1259.29,246.3488095238097
1261.44,268.54338095238114
1263.6,273.713142857143
1265.76,261.28909523809534
1267.91,230.60761904761915
1270.06,180.28980952380965
1272.22,160.67223809523819
1274.37,139.28142857142865
1276.51,130.31066666666675
1278.66,145.57266666666678
1280.81,152.7368095238096
1282.95,136.47242857142865
1285.09,129.87842857142866
1287.23,120.7190476190477
1289.37,128.23580952380962
1291.51,145.90791428571436
1293.65,135.69058095238103
1295.78,121.20582857142867
1297.92,116.69527619047625
1300.05,103.06640000000007
1302.18,108.65563809523816
1304.31,107.6087571428572
1306.44,102.78601904761912
1308.57,114.09510952380958
1310.69,131.3013523809525
1312.82,162.45508095238108
1314.94,203.79748571428584
1317.06,215.045761904762
1319.18,231.44085714285725
1321.3,226.3189523809525
1323.41,227.30200000000013
1325.53,235.86900000000017
1327.64,271.1656190476192
1329.75,295.86100000000016
1331.87,310.7677142857144
1333.98,299.60247619047635
1336.08,285.60600000000017
1338.19,261.20961904761924
1340.3,261.1772380952383
1342.4,242.46390476190487
1344.5,215.54823809523822
1346.6,196.95604761904772
1348.7,186.1658380952382
1350.8,157.79867619047627
1352.9,131.33275238095243
1354.99,92.57945714285721
1357.09,74.3504095238096
1359.18,114.36137142857153
1361.27,143.80472380952392
1363.36,165.25331428571437
1365.45,171.75642857142864
1367.54,145.50547619047626
1369.62,145.35957142857154
1371.7,169.70004761904775
1373.79,199.19504761904778
1375.87,237.65476190476204
1377.95,268.08000000000015
1380.03,261.09061904761916
1382.1,239.21109523809534
1384.18,196.53661904761915
1386.25,163.63938095238106
1388.33,123.94785714285722
1390.4,122.22390476190483
1392.47,100.6581190476191
1394.54,85.39271428571435
1396.6,83.427280952381
1398.67,77.33282190476196
1400.74,56.10856000000004
1402.8,52.80121523809525
1404.86,33.266835238095275
1406.92,52.12332952380957
1408.98,72.51215523809529
1411.04,80.33660285714288
1413.09,73.45217619047622
1415.15,58.66667619047622
1417.2,48.45448095238099
1419.25,59.14703809523813
1421.3,63.075514285714334
1423.35,75.99964761904768
1425.4,85.72666666666672
1427.45,85.11137619047625
1429.49,84.48464761904768
1431.54,96.17721428571434
1433.58,79.09124761904768
1435.62,96.79552857142862
1437.66,80.43011428571432
1439.7,61.42076666666671
1441.74,68.52636190476196
1443.77,76.74404761904766
1445.81,65.07086666666672
1447.84,76.31332857142861
1449.87,71.75407142857146
1451.9,51.86615238095242
1453.93,51.50347619047623
1455.96,57.75832857142863
1457.98,81.19890952380962
1460.01,125.53609523809534
1462.03,162.05268095238102
1464.05,172.84056190476198
1466.07,196.94414285714302
1468.09,234.45571428571444
1470.11,270.65766666666684
1472.13,314.30876190476215
1474.14,331.1680476190478
1476.16,329.0893333333335
1478.17,332.6407619047621
1480.18,292.7718095238096
1482.19,227.47961904761917
1484.2,171.3328095238096
1486.21,148.3285142857144
1488.21,139.1304238095239
1490.22,140.1165904761905
1492.22,98.18916666666671
1494.22,66.53623333333337
1496.22,52.821904761904804
1498.22,40.13896190476193
1500.22,43.05641428571431
1502.22,40.81018571428572
1504.21,23.779047619047642
1506.21,27.865719523809542
1508.2,31.830208333333335
1510.19,9.099210000000008
1512.18,7.766242619047631
1514.17,9.972530000000024
1516.16,38.145095952381006
1518.14,80.56815476190482
1520.13,93.57365809523813
1522.11,72.82696095238097
1524.09,40.80306000000001
1526.07,20.119881904761932
1528.05,16.15738380952384
1530.03,39.7240847619048
1532.01,53.81912285714289
1533.98,53.679757142857184
1535.96,65.11489523809529
1537.93,80.59998571428576
1539.9,84.46778095238102
1541.87,94.76537142857148
1543.84,93.06371428571434
1545.81,86.17219047619054
1547.78,104.99507619047627
1549.74,109.43700000000007
1551.7,128.21182857142864
1553.67,137.36719047619053
1555.63,143.90323809523818
1557.59,138.62942857142863
1559.55,151.87885714285724
1561.5,150.2234761904763
1563.46,151.9010952380953
1565.41,158.7218571428573
1567.37,177.54338095238106
1569.32,169.317761904762
1571.27,176.3787142857144
1573.22,162.63166666666675
1575.17,151.8864761904763
1577.11,148.33409523809533
1579.06,158.40366666666677
1581.0,160.66690476190487
1582.95,188.5531904761906
1584.89,184.25385714285724
1586.83,189.10257142857154
1588.77,189.38566666666676
1590.7,183.91342857142868
1592.64,184.78176190476202
1594.58,190.9201904761905
1596.51,181.66261904761902
1598.44,144.00971428571427
