Raman Shift,Processed Intensity
331.095,9.216806666666685
333.909,9.000382857142954
336.721,0.9337300000000859
339.531,-4.8609019047619
342.339,6.9527942857143294
345.145,55.997141904761925
347.949,49.22870095238096
350.751,33.8427819047619
353.55,14.321118571428569
356.348,3.241487619047639
359.144,-3.3413680952380855
361.937,9.056656190476225
364.729,59.63489476190484
367.518,106.64128095238107
370.306,175.70578095238113
373.091,284.7921619047621
375.874,345.86585714285735
378.656,349.41680952380966
381.435,317.03120000000007
384.212,222.7250666666667
386.988,111.18243809523814
389.761,32.27861904761907
392.532,-1.1091523809523727
395.301,-14.38841142857141
398.068,-0.6797304761904546
400.833,17.802510476190474
403.596,9.89303523809522
406.358,-24.143451428571453
409.117,-50.75517809523812
411.874,-38.34126952380953
414.629,-14.108959999999994
417.382,1.5930819047619158
420.133,21.179482857142872
422.882,21.161447619047653
425.629,59.813500000000104
428.374,149.88733047619058
431.117,223.7072123809525
433.858,275.1703142857144
436.597,268.9842380952382
439.334,214.57157142857153
442.069,187.59454285714298
444.802,141.81125714285722
447.533,115.74251428571438
450.262,148.71993333333347
452.989,208.64718095238112
455.714,265.90468571428585
458.438,281.1120190476192
461.159,230.3174761904763
463.878,148.18942857142866
466.595,104.0160380952382
469.31,90.3239714285715
472.024,76.9740571428572
474.735,77.49397142857151
477.444,111.69738095238104
480.152,148.20866666666677
482.857,184.65220952380963
485.561,177.79531428571437
488.262,168.07306666666676
490.962,141.6819952380953
493.659,126.53356190476197
496.355,105.82533809523814
499.048,96.61203809523815
501.74,79.13900952380959
504.43,82.31900952380957
507.118,93.39757619047626
509.804,117.28734285714295
512.488,158.61548095238112
515.17,222.0088952380954
517.85,237.80927619047634
520.528,199.26266666666677
523.204,187.47252380952392
525.878,172.9708380952382
528.551,155.0037952380953
531.221,131.00782380952384
533.89,100.37186190476196
536.556,71.38957619047628
539.221,108.87837619047627
541.883,129.41730000000007
544.544,130.156580952381
547.203,95.81787142857145
549.86,94.8368095238096
552.515,103.69684285714295
555.168,142.40449523809534
557.819,154.06175714285723
560.469,175.91287619047628
563.116,153.34490476190487
565.761,185.5066666666668
568.405,192.26090476190487
571.047,203.3270000000001
573.687,199.56719047619058
576.324,181.795761904762
578.96,144.58842857142866
581.594,157.52090476190486
584.227,147.3112380952382
586.857,170.24858095238105
589.485,154.1455571428572
592.112,144.5291142857144
594.737,130.92544285714294
597.359,138.00325714285725
599.98,149.09784285714298
602.599,184.35367619047628
605.216,198.5337523809525
607.831,198.7343476190477
610.445,159.57510000000005
613.056,101.53222380952386
615.666,92.93933809523818
618.274,95.55772857142867
620.88,159.5772523809525
623.484,185.47314285714296
626.086,182.24409523809535
628.686,185.79333333333352
631.284,223.97647619047638
633.881,266.7435714285716
636.476,304.47323809523823
639.068,308.1630000000001
641.659,274.85747619047635
644.249,264.26808571428586
646.836,219.58215714285723
649.421,172.31989047619055
652.005,95.62043333333337
654.587,62.28980952380956
657.166,18.562152380952405
659.745,16.05269047619049
662.321,34.66214095238098
664.895,37.05294333333336
667.468,43.17334857142861
670.038,56.82866619047619
672.607,40.39566285714287
675.174,10.060533809523822
677.739,7.581117142857147
680.303,7.8578285714286
682.864,30.64836190476195
685.424,74.8534571428572
687.982,92.61164761904764
690.538,81.39495238095242
693.092,71.81837619047623
695.645,68.68738095238099
698.195,58.52174285714289
700.744,53.508150571428565
703.291,22.166313285714285
705.836,-9.840966380952379
708.38,-1.2794015714285472
710.921,21.894855333333364
713.461,39.29710433333336
715.999,53.876107333333366
718.535,63.532989142857176
721.069,60.40707142857147
723.602,51.25676190476194
726.133,62.888271428571464
728.662,57.202832380952415
731.189,39.863777619047646
733.714,47.344012380952414
736.238,48.9736366666667
738.759,57.17804000000006
741.279,63.19230523809526
743.798,69.7276447619048
746.314,58.828586666666716
748.829,69.15889333333338
751.342,73.90612761904768
753.853,94.49605142857148
756.362,97.25927619047624
758.869,90.05036666666672
761.375,97.81889047619055
763.879,111.32441428571434
766.381,103.04052857142861
768.882,89.96487619047622
771.38,73.66659047619049
773.877,27.095776190476215
776.372,23.44072380952384
778.866,36.60430000000002
781.357,32.63200000000003
783.847,48.664828571428615
786.335,67.79624761904766
788.821,59.262585714285756
791.306,69.39557142857149
793.789,72.43193809523814
796.27,84.17943333333342
798.749,127.01773809523822
801.227,192.0408380952382
803.702,208.29557142857152
806.176,219.1617142857144
808.649,198.8289523809525
811.119,179.05795238095249
813.588,176.5148571428573
816.055,173.43714285714296
818.521,151.25333333333342
820.984,133.4863333333334
823.446,127.9932857142858
825.906,121.67866666666676
828.365,130.6376190476191
830.821,109.15616666666672
833.276,114.23485714285721
835.729,121.68304285714294
838.181,127.1682333333334
840.631,127.26246190476198
843.079,124.34709523809528
845.525,68.94705238095241
847.97,53.87304285714289
850.412,51.45929047619052
852.854,60.42158095238102
855.293,84.28523809523814
857.731,108.19452380952386
860.167,79.96072380952384
862.601,45.58568571428574
865.034,35.452295238095274
867.465,47.18176190476195
869.894,70.39526190476198
872.321,97.99986190476196
874.747,99.80746190476195
877.171,84.48731428571435
879.594,83.13701428571436
882.014,103.56875238095247
884.433,133.02364285714293
886.851,156.31375238095248
889.266,154.8705714285715
891.68,155.74461904761915
894.092,156.31980952380962
896.503,167.07533333333345
898.912,189.53838095238106
901.319,183.71195238095248
903.724,167.97995238095248
906.128,159.63114285714295
908.53,169.05004761904772
910.931,179.8111047619049
913.329,174.1557714285715
915.726,149.8969714285715
918.122,141.8472095238096
920.516,121.86675238095246
922.908,104.29234285714291
925.298,101.88891428571435
927.687,105.5170857142858
930.074,103.46562380952389
932.459,121.92800952380959
934.843,122.7169952380953
937.225,95.8356333333334
939.605,100.47728095238105
941.984,130.8832333333334
944.361,150.10394761904772
946.736,135.4278404761905
949.11,118.09590000000006
951.482,80.2060928571429
953.853,75.5703571428572
956.222,79.66757380952387
958.589,112.83343333333339
960.954,107.35600476190483
963.318,122.76131428571435
965.68,120.05183333333342
968.041,128.56280952380956
970.4,135.01030000000006
972.757,117.3008166666667
975.113,81.76944761904765
977.467,65.89406428571432
979.819,28.91435238095241
982.17,37.30790238095243
984.519,48.55178571428573
986.866,47.218685714285755
989.212,49.16647142857147
991.556,88.06276190476197
993.899,106.62245238095247
996.24,152.94153333333344
998.579,152.82999047619055
1000.92,147.7165238095239
1003.25,124.55348571428578
1005.59,103.72191428571433
1007.92,96.31687619047626
1010.25,116.24294285714294
1012.58,139.16651428571438
1014.91,147.4204095238096
1017.24,134.57552380952384
1019.56,116.05974285714292
1021.88,111.39618095238104
1024.2,117.67930476190486
1026.52,157.71754285714294
1028.84,176.79538095238104
1031.16,198.53076190476204
1033.48,216.82747619047632
1035.79,227.30309523809538
1038.1,241.33719047619064
1040.41,264.30938095238116
1042.72,275.2656190476192
1045.03,304.63285714285735
1047.33,296.1237619047621
1049.64,278.6890000000002
1051.94,270.04076190476206
1054.24,257.89195238095255
1056.54,241.09757142857157
1058.84,244.7031904761906
1061.13,232.3259047619049
1063.43,216.20185714285728
1065.72,213.99533333333346
1068.01,228.6093333333335
1070.3,227.374761904762
1072.59,222.7658571428573
1074.87,219.68504761904774
1077.16,229.08228571428592
1079.44,258.43142857142874
1081.72,304.30176190476215
1084.0,354.78652380952406
1086.28,423.21661904761936
1088.56,506.68461904761944
1090.84,629.4265238095243
1093.11,734.9634285714291
1095.38,766.0076190476195
1097.65,707.6995714285717
1099.92,606.6082380952384
1102.19,497.2076190476194
1104.46,425.20976190476216
1106.72,391.993285714286
1108.98,379.8417619047621
1111.24,420.13342857142885
1113.5,474.3423333333336
1115.76,539.9903809523812
1118.02,579.9800952380956
1120.28,594.1665714285717
1122.53,568.4522857142861
1124.78,531.0735238095241
1127.03,459.98028571428597
1129.28,403.83766666666685
1131.53,349.3102857142859
1133.77,329.44357142857166
1136.02,306.85490476190495
1138.26,260.16200000000015
1140.5,234.93423809523824
1142.74,230.83704761904778
1144.98,241.15438095238113
1147.22,286.88442857142877
1149.45,332.1213809523811
1151.69,332.34023809523825
1153.92,316.72990476190495
1156.15,281.5276666666668
1158.38,230.8274285714287
1160.61,192.43780952380965
1162.83,169.3582380952382
1165.06,153.96890476190484
1167.28,142.17342857142867
1169.5,147.590761904762
1171.72,143.64857142857153
1173.94,134.25176190476196
1176.16,122.59052380952389
1178.37,125.14077619047623
1180.58,81.71185714285718
1182.8,60.78031904761909
1185.01,44.346223809523835
1187.22,41.553152380952426
1189.42,50.02063809523814
1191.63,80.4634866666667
1193.84,53.406277142857164
1196.04,64.37389809523813
1198.24,50.41480952380955
1200.44,55.86342571428575
1202.64,37.19711714285717
1204.84,45.274322857142884
1207.03,36.239255238095275
1209.23,49.283997142857174
1211.42,45.886117142857174
1213.61,53.904417142857156
1215.8,34.38819809523812
1217.99,19.434431428571436
1220.18,18.568729523809544
1222.36,30.221514285714314
1224.55,33.10900380952383
1226.73,43.42364190476193
1228.91,58.02463809523812
1231.09,63.580710476190504
1233.27,51.713055238095265
1235.44,59.09054095238098
1237.62,43.667814285714314
1239.79,53.39933333333339
1241.96,67.38294285714291
1244.13,93.52578571428576
1246.3,88.4494952380953
1248.47,104.68008571428578
1250.64,114.55377142857151
1252.8,141.45377142857154
1254.96,170.04952380952395
1257.13,194.10557142857155
1259.29,214.8153809523811
1261.44,229.37204761904775
1263.6,228.5879047619049
1265.76,236.98942857142873
1267.91,245.48428571428585
1270.06,237.40852380952396
1272.22,240.38433333333347
1274.37,220.36690476190486
1276.51,183.73985714285723
1278.66,155.26809523809533
1280.81,118.76426190476197
1282.95,97.42157142857151
1285.09,110.81464285714293
1287.23,128.85071428571436
1289.37,142.96157619047628
1291.51,139.38812380952385
1293.65,120.79986666666673
1295.78,120.10463809523819
1297.92,103.4005666666667
1300.05,86.49975238095244
1302.18,84.214680952381
1304.31,74.07198095238101
1306.44,80.26469047619055
1308.57,116.31963809523816
1310.69,138.0968000000001
1312.82,138.78903809523817
1314.94,168.73241904761915
1317.06,173.88200000000012
1319.18,187.33557142857154
1321.3,205.33342857142867
1323.41,209.30704761904772
1325.53,196.02033333333347
1327.64,227.9043809523811
1329.75,240.19942857142877
1331.87,283.81276190476206
1333.98,295.2700476190478
1336.08,300.6688095238097
1338.19,295.8207619047621
1340.3,303.68004761904774
1342.4,261.81985714285724
1344.5,232.43252380952393
1346.6,171.4244857142858
1348.7,142.74969523809534
1350.8,107.40994761904767
1352.9,92.64467619047623
1354.99,72.12193809523815
1357.09,86.93816190476198
1359.18,108.71344285714294
1361.27,136.5445238095239
1363.36,145.5271714285715
1365.45,154.66257142857154
1367.54,162.76090476190484
1369.62,156.5845238095239
1371.7,162.84823809523823
1373.79,195.7906190476192
1375.87,234.26895238095256
1377.95,276.23619047619064
1380.03,285.3112380952382
1382.1,241.63661904761915
1384.18,196.35509523809534
1386.25,171.27576190476202
1388.33,176.54097142857157
1390.4,164.8645476190477
1392.47,149.72179047619056
1394.54,109.82595238095242
1396.6,62.6522285714286
1398.67,45.72329047619052
1400.74,58.56123809523813
1402.8,46.83141904761909
1404.86,83.2463333333334
1406.92,82.08988095238101
1408.98,90.36012380952388
1411.04,98.29303333333338
1413.09,104.83862857142864
1415.15,92.56616666666676
1417.2,145.09237142857154
1419.25,122.79550000000006
1421.3,110.43487619047625
1423.35,79.96020000000003
1425.4,70.84480000000005
1427.45,52.276538095238166
1429.49,99.68122857142863
1431.54,102.43673809523816
1433.58,92.01633809523814
1435.62,82.17895238095244
1437.66,74.20726190476194
1439.7,69.57447142857148
1441.74,74.51550952380956
1443.77,67.31301904761908
1445.81,60.29698095238099
1447.84,65.3691190476191
1449.87,77.19310476190483
1451.9,112.09899523809531
1453.93,131.98822857142866
1455.96,143.5720476190477
1457.98,160.27566666666678
1460.01,172.52461904761915
1462.03,175.41104761904774
1464.05,175.88404761904775
1466.07,206.08309523809538
1468.09,262.4337142857145
1470.11,312.17104761904784
1472.13,359.76809523809544
1474.14,350.7457619047621
1476.16,306.6247142857145
1478.17,273.25923809523823
1480.18,245.5034761904763
1482.19,237.44976190476206
1484.2,239.66666666666677
1486.21,206.29432857142868
1488.21,154.75839523809532
1490.22,101.43755714285719
1492.22,65.1860333333334
1494.22,71.6204571428572
1496.22,82.69087619047623
1498.22,73.34725714285717
1500.22,62.7778047619048
1502.22,54.31367619047623
1504.21,55.5239428571429
1506.21,63.12112190476193
1508.2,52.57945047619049
1510.19,29.94473142857144
1512.18,12.500987142857147
1514.17,6.960927619047627
1516.16,4.037319047619054
1518.14,2.72882380952381
1520.13,-1.1563019047618912
1522.11,23.476052380952407
1524.09,33.91057761904764
1526.07,42.81308476190479
1528.05,49.468485714285734
1530.03,44.97131428571432
1532.01,43.03532857142862
1533.98,78.56467619047623
1535.96,90.3210428571429
1537.93,87.73272380952386
1539.9,102.03784761904767
1541.87,90.04556666666672
1543.84,77.32753809523815
1545.81,96.16943333333339
1547.78,97.14287142857148
1549.74,101.62892857142865
1551.7,126.8663952380953
1553.67,119.2363238095239
1555.63,147.97790000000012
1557.59,159.18697142857152
1559.55,162.91133333333343
1561.5,163.056761904762
1563.46,157.90952380952388
1565.41,141.70876190476199
1567.37,149.21771428571435
1569.32,137.34180952380962
1571.27,151.93923809523818
1573.22,143.4398095238096
1575.17,153.415761904762
1577.11,165.7259238095239
1579.06,139.75254285714294
1581.0,131.3061333333334
1582.95,130.86474285714291
1584.89,125.28665714285725
1586.83,140.5734000000001
1588.77,154.10725714285724
1590.7,155.36595238095248
1592.64,176.25585714285722
1594.58,189.46919047619053
1596.51,174.79333333333335
1598.44,114.22995238095231
