Raman Shift,Processed Intensity
331.095,82.14664999999992
333.909,53.479361904761845
336.721,32.51509047619043
339.531,18.873419047619056
342.339,10.411842857142876
345.145,17.630971428571442
347.949,18.48443523809525
350.751,11.688354285714297
353.55,23.626118095238102
356.348,5.158026666666657
359.144,-11.140639047619047
361.937,2.8302685714285953
364.729,19.266659047619093
367.518,48.984466666666755
370.306,135.89612380952394
373.091,238.53377142857158
375.874,320.9549666666669
378.656,360.6941333333335
381.435,338.14400952380964
384.212,256.1747571428573
386.988,158.61040000000006
389.761,78.41876190476191
392.532,9.902899999999985
395.301,-41.63337809523809
398.068,-46.312889999999996
400.833,-15.257122857142846
403.596,1.604523333333332
406.358,-10.17967523809525
409.117,-1.3931614285714229
411.874,17.753564761904773
414.629,-2.7102857142857015
417.382,24.72217619047622
420.133,43.22608571428574
422.882,40.502000000000066
425.629,90.34672380952392
428.374,176.55884761904775
431.117,253.4622476190478
433.858,315.3341047619049
436.597,322.54809523809536
439.334,262.6699523809525
442.069,179.26590476190484
444.802,130.1420000000001
447.533,145.34300000000013
450.262,164.39100000000013
452.989,223.9515714285716
455.714,263.2154761904763
458.438,261.8979047619049
461.159,236.1435238095239
463.878,187.57361904761913
466.595,136.239161904762
469.31,106.38163809523816
472.024,105.14841904761913
474.735,110.83031428571437
477.444,142.1470380952382
480.152,166.34301904761915
482.857,177.56749523809532
485.561,176.01785714285722
488.262,176.84433333333342
490.962,177.0070857142858
493.659,164.89487142857152
496.355,150.944980952381
499.048,113.16560476190485
501.74,124.37531428571438
504.43,144.29710952380964
507.118,175.6070857142858
509.804,169.74314285714294
512.488,216.23833333333351
515.17,227.53076190476207
517.85,282.6299047619049
520.528,277.0689523809525
523.204,230.23871428571434
525.878,162.76766666666677
528.551,162.47447619047628
531.221,143.74995238095252
533.89,165.4125238095239
536.556,153.9475333333334
539.221,129.03089047619054
541.883,107.19501904761913
544.544,117.3535857142858
547.203,110.56287619047626
549.86,116.11665238095246
552.515,156.07062857142867
555.168,159.05185714285724
557.819,186.68676190476202
560.469,211.2209523809525
563.116,219.66133333333346
565.761,229.3955714285716
568.405,252.66857142857157
571.047,227.7245238095239
573.687,220.33095238095245
576.324,199.5889523809525
578.96,197.0747142857144
581.594,181.03109523809536
584.227,188.89161904761914
586.857,190.66019047619056
589.485,176.72138095238105
592.112,159.74571428571437
594.737,157.35519047619056
597.359,135.02838095238104
599.98,135.86338095238105
602.599,152.33814285714297
605.216,152.4065714285715
607.831,144.59391428571436
610.445,134.61572380952387
613.056,111.04382380952386
615.666,73.6407952380953
618.274,88.7397476190477
620.88,107.7688238095239
623.484,146.77507142857155
626.086,189.7098523809525
628.686,212.19140000000013
631.284,232.12271428571447
633.881,248.0733809523811
636.476,262.6605714285716
639.068,265.11980952380964
641.659,248.92476190476205
644.249,240.88242857142873
646.836,226.41814285714298
649.421,191.8146666666668
652.005,164.87812857142865
654.587,126.12855714285719
657.166,79.70539523809528
659.745,86.46186190476196
662.321,52.34660000000001
664.895,28.879609523809542
667.468,16.58053809523812
670.038,39.921595238095286
672.607,46.0892666666667
675.174,81.74620476190479
677.739,60.983600000000024
680.303,55.60702857142862
682.864,67.23143619047624
685.424,81.5670766666667
687.982,56.46705333333334
690.538,30.64164714285714
693.092,8.46774380952383
695.645,1.1795004761904981
698.195,23.43950285714289
700.744,56.00563523809527
703.291,62.159562380952416
705.836,49.5163404761905
708.38,44.92904523809524
710.921,19.869862380952394
713.461,7.38239666666669
715.999,24.224514761904782
718.535,37.96360761904764
721.069,31.262344761904785
723.602,43.1643323809524
726.133,52.284660952380975
728.662,37.04793095238097
731.189,30.974008571428598
733.714,43.20186523809527
736.238,51.25150190476196
738.759,71.40481761904765
741.279,70.51521523809527
743.798,55.76950000000002
746.314,33.87829523809526
748.829,34.98091904761909
751.342,61.55009523809528
753.853,57.58240000000002
756.362,53.78881428571433
758.869,50.11853333333335
761.375,46.94931428571432
763.879,46.8495904761905
766.381,51.245004761904774
768.882,51.227800000000045
771.38,73.22401428571433
773.877,71.51676190476195
776.372,78.15110000000001
778.866,60.83893809523811
781.357,54.958847619047674
783.847,69.22280000000005
786.335,63.96217619047622
788.821,68.69892380952386
791.306,73.00243809523815
793.789,70.96615714285721
796.27,94.39785714285722
798.749,130.39154285714292
801.227,136.18359047619057
803.702,165.20149523809533
806.176,186.39633333333342
808.649,181.48119047619056
811.119,164.78847619047627
813.588,150.41290476190483
816.055,133.35338095238103
818.521,131.56171428571437
820.984,145.7040476190477
823.446,155.20862857142862
825.906,127.74179523809529
828.365,111.77973333333341
830.821,114.70334761904768
833.276,114.70306666666676
835.729,143.39812857142866
838.181,157.64643809523815
840.631,152.35281238095246
843.079,120.42280523809526
845.525,96.2383247619048
847.97,79.89505666666673
850.412,87.77503428571433
852.854,63.11765285714288
855.293,57.638160000000006
857.731,33.71908095238099
860.167,48.02874761904767
862.601,64.13991904761909
865.034,82.24500000000005
867.465,63.1077523809524
869.894,39.396861904761934
872.321,30.209728571428602
874.747,37.92951428571431
877.171,41.70140952380956
879.594,47.004042857142885
882.014,40.17321428571432
884.433,71.54508571428579
886.851,86.88414285714292
889.266,108.38347142857151
891.68,136.09371904761912
894.092,142.92264761904772
896.503,129.87312857142865
898.912,165.52000952380962
901.319,165.53266666666676
903.724,147.67633333333342
906.128,156.66833333333344
908.53,160.79795238095247
910.931,142.54442857142868
913.329,143.53042857142864
915.726,132.75890476190483
918.122,102.0908095238096
920.516,123.95764761904769
922.908,132.887080952381
925.298,115.26330000000007
927.687,118.94719523809532
930.074,117.989480952381
932.459,115.53657619047628
934.843,119.35357142857146
937.225,114.06311428571435
939.605,90.00183333333338
941.984,72.45899047619051
944.361,60.24735714285718
946.736,69.1796666666667
949.11,65.25927619047624
951.482,84.10854761904768
953.853,94.15913333333337
956.222,81.41419523809529
958.589,92.01966666666674
960.954,108.97842380952387
963.318,99.81733809523817
965.68,91.30117142857148
968.041,77.71842857142862
970.4,60.40514761904767
972.757,58.26876190476193
975.113,52.31176190476192
977.467,41.01280000000002
979.819,19.51709523809525
982.17,23.636404761904792
984.519,33.849038095238114
986.866,28.347542857142876
989.212,43.75287142857147
991.556,60.44772380952384
993.899,66.57660952380958
996.24,83.09340476190481
998.579,84.52329047619051
1000.92,60.43897142857146
1003.25,71.84154666666672
1005.59,60.541477619047654
1007.92,53.49197904761908
1010.25,51.07470809523813
1012.58,49.147345714285755
1014.91,65.85322047619054
1017.24,84.43063238095242
1019.56,87.49879523809528
1021.88,74.15295238095243
1024.2,91.25020000000008
1026.52,95.98068095238102
1028.84,130.67749523809533
1031.16,164.1974761904763
1033.48,170.96835238095247
1035.79,168.1323809523811
1038.1,191.83166666666676
1040.41,215.9223333333335
1042.72,242.30823809523827
1045.03,277.6076190476192
1047.33,261.1047142857144
1049.64,244.84604761904777
1051.94,233.49680952380967
1054.24,218.6269523809525
1056.54,203.33009523809534
1058.84,204.17638095238107
1061.13,195.92597142857153
1063.43,163.6724476190477
1065.72,162.31846666666678
1068.01,148.76717142857154
1070.3,161.01656190476203
1072.59,186.35030476190485
1074.87,227.43287619047635
1077.16,226.07200000000014
1079.44,248.12238095238112
1081.72,262.72490476190495
1084.0,301.4964761904764
1086.28,357.5775714285718
1088.56,471.5847142857146
1090.84,627.0873809523814
1093.11,708.9874285714291
1095.38,715.2827619047624
1097.65,694.2568095238098
1099.92,562.240285714286
1102.19,468.75452380952413
1104.46,438.79714285714306
1106.72,395.7938571428574
1108.98,399.0284761904765
1111.24,456.1648571428574
1113.5,470.6288571428575
1115.76,505.03719047619074
1118.02,531.6732380952384
1120.28,551.9152380952384
1122.53,562.8560476190479
1124.78,539.3980000000004
1127.03,493.01485714285735
1129.28,418.1326190476192
1131.53,342.84419047619065
1133.77,277.48023809523824
1136.02,228.9434285714287
1138.26,191.32671428571442
1140.5,188.15180952380965
1142.74,195.84480952380966
1144.98,221.11776190476206
1147.22,265.82538095238107
1149.45,281.4423809523811
1151.69,264.4422857142858
1153.92,237.49023809523823
1156.15,190.72680952380964
1158.38,172.53128571428584
1160.61,168.80633333333344
1162.83,162.0268095238096
1165.06,137.00008571428577
1167.28,111.3438428571429
1169.5,84.91350476190482
1171.72,71.51735238095242
1173.94,64.53492380952386
1176.16,75.15545714285719
1178.37,71.18717619047624
1180.58,66.53373523809526
1182.8,51.86082333333334
1185.01,24.310394285714295
1187.22,17.31018619047621
1189.42,19.383318095238113
1191.63,35.29110428571431
1193.84,29.74731142857143
1196.04,27.41826190476192
1198.24,28.256115238095255
1200.44,31.070298571428587
1202.64,17.813282857142873
1204.84,28.723363333333346
1207.03,28.991346666666693
1209.23,37.665331428571456
1211.42,35.745945238095246
1213.61,35.28154809523811
1215.8,23.320658571428595
1217.99,20.673775714285735
1220.18,29.24679000000002
1222.36,46.755161904761934
1224.55,51.29543809523813
1226.73,56.202338095238126
1228.91,64.81067619047622
1231.09,53.026809523809554
1233.27,33.56665714285718
1235.44,54.146123809523864
1237.62,78.05296666666672
1239.79,94.86022380952389
1241.96,106.42711428571434
1244.13,102.8508190476191
1246.3,93.51450952380961
1248.47,124.70579047619057
1250.64,153.0940142857144
1252.8,178.82365714285723
1254.96,199.99257142857158
1257.13,219.3173809523811
1259.29,242.84804761904778
1261.44,272.7773809523811
1263.6,283.01304761904777
1265.76,275.2238571428573
1267.91,250.74595238095247
1270.06,214.39114285714297
1272.22,198.92409523809536
1274.37,171.91890476190486
1276.51,179.04509523809537
1278.66,192.16228571428584
1280.81,178.9400476190477
1282.95,170.80914285714294
1285.09,148.01092857142862
1287.23,119.97642857142867
1289.37,147.80407142857152
1291.51,163.21065714285723
1293.65,148.15151428571434
1295.78,136.91493333333338
1297.92,100.78946190476196
1300.05,85.82521904761911
1302.18,110.26334761904769
1304.31,128.39227619047625
1306.44,117.31009523809531
1308.57,148.8764761904763
1310.69,183.0939523809525
1312.82,197.06061904761918
1314.94,203.2076666666668
1317.06,202.53776190476202
1319.18,179.72023809523824
1321.3,205.1858571428573
1323.41,237.27047619047636
1325.53,269.45309523809544
1327.64,299.6408571428573
1329.75,333.740523809524
1331.87,357.8022380952383
1333.98,372.20938095238114
1336.08,354.4878095238097
1338.19,336.7827142857144
1340.3,312.9533333333335
1342.4,286.95380952380964
1344.5,254.83404761904774
1346.6,225.97685714285723
1348.7,189.09814285714296
1350.8,174.58085714285724
1352.9,168.71233333333345
1354.99,171.54180952380963
1357.09,168.832761904762
1359.18,153.77661904761916
1361.27,172.3275238095239
1363.36,188.72500000000008
1365.45,209.92233333333346
1367.54,227.2539047619049
1369.62,240.24471428571442
1371.7,248.80000000000015
1373.79,290.3970952380954
1375.87,294.8938571428573
1377.95,306.33823809523824
1380.03,271.7780952380954
1382.1,209.3568095238096
1384.18,180.12228571428582
1386.25,161.59819047619058
1388.33,144.02280952380963
1390.4,149.53876190476197
1392.47,145.57416190476198
1394.54,98.50944761904766
1396.6,88.01084761904767
1398.67,88.93460952380958
1400.74,93.85153809523815
1402.8,95.71294285714292
1404.86,109.08918095238099
1406.92,78.64549047619053
1408.98,83.2852952380953
1411.04,100.57862380952389
1413.09,124.99976666666673
1415.15,130.21350000000007
1417.2,135.93237142857149
1419.25,138.7257142857144
1421.3,153.02047619047627
1423.35,151.766761904762
1425.4,145.29561904761908
1427.45,131.93776190476197
1429.49,125.16709523809531
1431.54,126.60001428571435
1433.58,112.42468095238101
1435.62,91.25743333333338
1437.66,73.33369047619054
1439.7,74.60304285714292
1441.74,88.58675714285721
1443.77,115.3772095238096
1445.81,111.35238095238101
1447.84,118.60459047619055
1449.87,118.51177142857148
1451.9,113.59487619047624
1453.93,114.47007619047626
1455.96,120.13461904761911
1457.98,115.34741904761914
1460.01,138.67680000000013
1462.03,162.4056666666668
1464.05,201.72123809523828
1466.07,254.7632857142859
1468.09,306.67233333333354
1470.11,337.2550000000002
1472.13,344.6986190476192
1474.14,318.8576190476192
1476.16,314.15757142857166
1478.17,283.1197619047621
1480.18,260.02757142857155
1482.19,235.87809523809537
1484.2,190.19250952380958
1486.21,130.58739047619054
1488.21,119.67932380952386
1490.22,79.08527619047624
1492.22,68.42198095238102
1494.22,87.97281904761908
1496.22,74.97397142857146
1498.22,80.04231428571435
1500.22,78.5571142857143
1502.22,61.84997619047623
1504.21,69.9669047619048
1506.21,72.1444285714286
1508.2,65.7621190476191
1510.19,49.43754285714285
1512.18,25.169766666666675
1514.17,3.386347619047635
1516.16,27.848333333333372
1518.14,40.84075714285718
1520.13,52.55351428571431
1522.11,46.98615714285717
1524.09,46.28123809523812
1526.07,43.91467142857148
1528.05,63.505323809523844
1530.03,69.14839047619051
1532.01,59.79616666666671
1533.98,60.7820666666667
1535.96,49.5824285714286
1537.93,38.14980476190478
1539.9,37.1987285714286
1541.87,43.82478095238099
1543.84,50.6474047619048
1545.81,80.9527714285715
1547.78,108.26522380952386
1549.74,101.63293333333338
1551.7,119.10397619047626
1553.67,104.10772380952385
1555.63,101.54973333333344
1557.59,123.62125714285722
1559.55,148.98964761904773
1561.5,151.1320238095239
1563.46,153.38256190476193
1565.41,107.83761904761911
1567.37,111.54561904761913
1569.32,124.93646666666675
1571.27,129.4393857142858
1573.22,140.53184761904768
1575.17,125.78634761904767
1577.11,94.25165714285723
1579.06,95.73813809523817
1581.0,104.8666571428572
1582.95,106.01910476190483
1584.89,102.38730476190482
1586.83,99.3531333333334
1588.77,101.39438095238101
1590.7,113.79783809523818
1592.64,124.6602476190477
1594.58,134.55434285714298
1596.51,121.98120000000014
1598.44,72.77531904761906
