Raman Shift,Processed Intensity
331.095,41.11053857142843
333.909,-27.329148571428654
336.721,-52.61127071428576
339.531,-50.28998285714287
342.339,-43.72959285714288
345.145,-29.126854285714277
347.949,-0.20000666666667044
350.751,0.47741333333331326
353.55,-21.618715238095252
356.348,-24.772538095238108
359.144,-16.31400952380948
361.937,27.000142857142897
364.729,63.081961904761954
367.518,91.74949047619054
370.306,150.58483809523824
373.091,222.8384714285716
375.874,323.71497142857163
378.656,361.61109523809534
381.435,321.73447619047636
384.212,218.34202857142864
386.988,117.45444761904767
389.761,46.808161904761945
392.532,22.379338095238115
395.301,7.717052380952395
398.068,10.657166666666676
400.833,15.51381428571431
403.596,34.12610000000003
406.358,39.62036190476191
409.117,22.88623057142857
411.874,4.386169619047612
414.629,-16.939829809523815
417.382,-26.48375819047618
420.133,3.1254654285714665
422.882,45.87949819047627
425.629,126.81868533333346
428.374,197.88921428571442
431.117,253.03820000000016
433.858,280.88081904761924
436.597,246.50922380952395
439.334,206.3026380952382
442.069,209.97407142857153
444.802,171.3806238095239
447.533,153.18919523809535
450.262,174.8776904761906
452.989,194.59111428571444
455.714,216.760842857143
458.438,256.8661523809525
461.159,230.4829523809525
463.878,163.7582857142858
466.595,142.98338095238108
469.31,147.92609523809531
472.024,143.11614285714296
474.735,162.41727619047626
477.444,153.97968095238102
480.152,132.28669523809532
482.857,134.91741428571436
485.561,111.9278857142858
488.262,146.1357285714287
490.962,178.78737142857153
493.659,198.46333333333345
496.355,198.17233333333343
499.048,203.20905714285723
501.74,156.6784857142858
504.43,142.4472095238096
507.118,121.61951428571436
509.804,129.39568571428583
512.488,158.2136285714287
515.17,221.79696190476204
517.85,231.39366666666675
520.528,201.01338095238103
523.204,166.09371428571436
525.878,148.83484761904774
528.551,132.05553809523818
531.221,158.2408380952382
533.89,163.40008095238102
536.556,135.68524285714292
539.221,125.5809095238096
541.883,121.23896190476196
544.544,81.19146190476198
547.203,94.44648571428577
549.86,90.82158571428576
552.515,76.70567142857149
555.168,95.77286190476198
557.819,122.79243809523817
560.469,129.05699047619055
563.116,136.81156190476196
565.761,141.53900000000007
568.405,140.245361904762
571.047,136.60346666666675
573.687,132.42835238095245
576.324,115.82070476190482
578.96,87.92828571428578
581.594,118.75621904761914
584.227,120.40374285714292
586.857,106.4464571428572
589.485,101.2216571428572
592.112,98.25642857142864
594.737,98.26798095238104
597.359,125.35466190476197
599.98,119.70906666666674
602.599,134.80956666666674
605.216,143.08658095238104
607.831,149.6844333333334
610.445,154.8422095238096
613.056,126.60825238095245
615.666,116.60174285714294
618.274,91.29912857142861
620.88,87.22369523809532
623.484,118.08953809523821
626.086,167.8956571428573
628.686,211.11680952380965
631.284,259.32295238095253
633.881,230.46480952380963
636.476,225.34928571428586
639.068,235.5934285714287
641.659,230.19433333333347
644.249,239.05361904761918
646.836,217.93020952380957
649.421,164.1539476190477
652.005,126.48284761904769
654.587,104.72282857142864
657.166,70.77420952380959
659.745,72.44238095238099
662.321,66.81813809523814
664.895,44.801609523809546
667.468,23.816752380952398
670.038,41.57283333333338
672.607,39.30322857142862
675.174,61.38389047619054
677.739,78.04795714285717
680.303,88.57586666666671
682.864,74.81989523809528
685.424,79.53662857142861
687.982,72.14967142857148
690.538,67.27290380952384
693.092,39.234525238095266
695.645,37.219755238095246
698.195,33.46184142857144
700.744,9.384274285714298
703.291,14.315454761904775
705.836,8.393435714285713
708.38,17.56582095238098
710.921,20.494658571428584
713.461,32.50874000000001
715.999,18.12739857142858
718.535,15.346315238095258
721.069,36.92308095238101
723.602,68.18699523809526
726.133,72.2769285714286
728.662,77.37943333333335
731.189,68.9668666666667
733.714,48.03545714285718
736.238,69.62931428571433
738.759,66.6019285714286
741.279,73.66414285714292
743.798,75.6697285714286
746.314,69.52021904761908
748.829,50.59339047619051
751.342,60.934009523809564
753.853,54.87220952380956
756.362,66.45272857142862
758.869,77.91105238095244
761.375,92.95869523809529
763.879,91.54535238095244
766.381,105.00175238095244
768.882,114.65901428571436
771.38,112.56221904761912
773.877,108.89982380952388
776.372,101.90768095238099
778.866,81.10752857142862
781.357,57.735457142857186
783.847,55.93268571428575
786.335,66.26851428571433
788.821,73.02719523809529
791.306,82.15949047619053
793.789,96.71153333333339
796.27,99.44359047619054
798.749,120.30711904761915
801.227,177.2051523809525
803.702,190.2798000000001
806.176,212.86309523809535
808.649,204.52576190476205
811.119,209.79023809523824
813.588,208.56114285714295
816.055,207.5990000000001
818.521,176.2847142857144
820.984,184.56966666666676
823.446,154.9775714285715
825.906,153.69828571428582
828.365,162.16050476190483
830.821,139.55429047619054
833.276,114.45115238095244
835.729,124.0412333333334
838.181,109.22972380952388
840.631,114.30248095238105
843.079,135.78350476190485
845.525,142.14928571428578
847.97,127.54296666666674
850.412,127.53658571428578
852.854,90.89288571428575
855.293,83.66026190476197
857.731,79.02975238095244
860.167,85.00224761904767
862.601,81.4358428571429
865.034,85.52208571428575
867.465,68.7859047619048
869.894,74.70481428571435
872.321,85.37533333333339
874.747,99.13220952380959
877.171,106.92917619047626
879.594,108.81538571428577
882.014,116.26871904761911
884.433,118.1480857142858
886.851,128.74128095238103
889.266,140.28797142857152
891.68,170.50433333333345
894.092,184.44028571428584
896.503,223.00276190476205
898.912,221.47966666666676
901.319,211.20680952380962
903.724,201.7576666666668
906.128,203.4681904761906
908.53,209.57909523809536
910.931,230.33114285714296
913.329,214.67928571428584
915.726,216.10280000000012
918.122,181.89030000000005
920.516,164.7116380952382
922.908,137.04571428571435
925.298,138.84824761904773
927.687,154.0746666666668
930.074,180.25225714285725
932.459,168.95559523809536
934.843,171.52167142857147
937.225,111.04919523809528
939.605,70.63729047619051
941.984,62.43240476190482
944.361,79.81944285714293
946.736,118.94498095238102
949.11,110.0987761904762
951.482,64.47538571428572
953.853,26.364671428571448
956.222,12.818309523809557
958.589,20.793066666666704
960.954,59.436200000000035
963.318,66.03776666666671
965.68,64.93551904761911
968.041,91.46720476190481
970.4,98.92288571428575
972.757,79.40211428571432
975.113,58.242533333333355
977.467,37.87686666666668
979.819,16.071070476190496
982.17,9.829070476190491
984.519,21.630812380952406
986.866,35.05131523809527
989.212,51.37980285714292
991.556,111.28607523809534
993.899,156.53512761904773
996.24,193.55840476190488
998.579,173.40618571428575
1000.92,145.36665714285718
1003.25,91.91833809523814
1005.59,102.7774857142858
1007.92,111.2317238095239
1010.25,129.187480952381
1012.58,94.50337619047625
1014.91,82.22813809523814
1017.24,73.93445238095245
1019.56,86.90879047619055
1021.88,115.15204761904769
1024.2,128.80731904761913
1026.52,135.49402857142866
1028.84,143.6407761904763
1031.16,180.72394285714296
1033.48,199.55304761904773
1035.79,241.1280476190478
1038.1,267.6859047619049
1040.41,274.7022857142859
1042.72,278.46209523809546
1045.03,269.0121904761906
1047.33,262.49461904761915
1049.64,247.0509523809525
1051.94,241.251142857143
1054.24,225.42704761904776
1056.54,213.24361904761915
1058.84,168.36623809523817
1061.13,146.8880476190477
1063.43,123.80733333333343
1065.72,143.16976190476203
1068.01,172.73504761904775
1070.3,193.21514285714295
1072.59,194.70333333333343
1074.87,178.72085714285723
1077.16,169.21771428571444
1079.44,193.66723809523825
1081.72,223.4957619047621
1084.0,256.74785714285736
1086.28,349.0879523809527
1088.56,451.5606666666671
1090.84,609.0676666666672
1093.11,732.5108571428575
1095.38,766.1255238095242
1097.65,688.0038095238099
1099.92,593.0951428571431
1102.19,476.1580952380955
1104.46,412.95157142857164
1106.72,370.281904761905
1108.98,372.14580952380976
1111.24,391.9691904761907
1113.5,442.46266666666696
1115.76,501.62304761904795
1118.02,544.9234761904765
1120.28,563.4080952380955
1122.53,558.2640952380955
1124.78,535.4409523809527
1127.03,489.4587619047622
1129.28,453.0289523809526
1131.53,380.052904761905
1133.77,306.9564285714287
1136.02,248.7839047619049
1138.26,204.86538095238106
1140.5,185.38809523809536
1142.74,200.9684285714287
1144.98,202.84100000000015
1147.22,226.52723809523823
1149.45,249.3095714285716
1151.69,263.9471904761906
1153.92,251.38952380952395
1156.15,240.82452380952392
1158.38,210.7733142857144
1160.61,170.47152857142865
1162.83,125.01167619047628
1165.06,117.01082380952388
1167.28,91.98990000000006
1169.5,87.23257142857148
1171.72,83.73671428571433
1173.94,70.59547619047623
1176.16,69.66403142857149
1178.37,59.416876666666695
1180.58,61.3283866666667
1182.8,52.82545190476193
1185.01,34.47802952380954
1187.22,23.61804809523811
1189.42,28.529948571428577
1191.63,8.212618095238115
1193.84,10.998504285714295
1196.04,17.69616095238097
1198.24,33.3525166666667
1200.44,52.157436190476226
1202.64,60.30097095238097
1204.84,49.11614
1207.03,34.983740000000026
1209.23,25.66562952380955
1211.42,35.59052190476192
1213.61,22.94914095238094
1215.8,6.646714285714289
1217.99,-6.506666666666658
1220.18,10.442161904761926
1222.36,19.589357142857164
1224.55,44.12651904761907
1226.73,46.29300476190478
1228.91,50.042590476190504
1231.09,45.37686095238098
1233.27,33.059408571428584
1235.44,30.758702857142893
1237.62,36.14339619047622
1239.79,54.739440952381
1241.96,76.07270857142862
1244.13,80.57410380952385
1246.3,89.05561428571434
1248.47,101.66251428571435
1250.64,109.82593809523819
1252.8,144.88194285714297
1254.96,190.9285904761906
1257.13,189.54004761904773
1259.29,219.71928571428583
1261.44,197.8977142857144
1263.6,186.36433333333343
1265.76,187.55100000000013
1267.91,185.22271428571437
1270.06,158.09690476190485
1272.22,167.93900000000008
1274.37,145.08540952380963
1276.51,129.15883809523817
1278.66,114.73439047619053
1280.81,111.52959047619058
1282.95,133.9764380952382
1285.09,167.31705714285727
1287.23,163.31652857142865
1289.37,138.88333809523817
1291.51,94.87850000000005
1293.65,70.21046190476196
1295.78,69.59707619047624
1297.92,82.9470333333334
1300.05,88.7877190476191
1302.18,99.93243809523815
1304.31,91.9087190476191
1306.44,94.672580952381
1308.57,76.51359047619053
1310.69,81.67336190476198
1312.82,79.53683809523817
1314.94,111.48848571428582
1317.06,134.19866666666675
1319.18,164.71861904761914
1321.3,172.81385714285727
1323.41,206.29719047619062
1325.53,229.3152857142859
1327.64,298.5382380952383
1329.75,343.7791904761907
1331.87,376.18433333333354
1333.98,385.5188571428573
1336.08,365.59514285714306
1338.19,332.22614285714303
1340.3,286.5105714285716
1342.4,244.35619047619062
1344.5,215.95633333333345
1346.6,198.59985714285725
1348.7,176.05133333333342
1350.8,164.12300000000008
1352.9,142.19866666666675
1354.99,135.13809523809533
1357.09,133.70542857142866
1359.18,127.71285714285722
1361.27,126.40085714285723
1363.36,123.19990476190483
1365.45,131.82638095238104
1367.54,137.42523809523817
1369.62,156.18880952380965
1371.7,177.21404761904776
1373.79,216.55033333333347
1375.87,265.77042857142874
1377.95,281.06619047619057
1380.03,263.0577142857144
1382.1,235.22266666666678
1384.18,199.2759523809525
1386.25,162.02780952380965
1388.33,154.5263333333334
1390.4,138.86737142857152
1392.47,119.71797619047625
1394.54,91.36429523809527
1396.6,60.80617619047621
1398.67,28.186100000000025
1400.74,24.93220952380956
1402.8,47.42492857142861
1404.86,65.47318571428575
1406.92,67.83795238095242
1408.98,72.37530952380956
1411.04,73.65541904761908
1413.09,62.34352857142861
1415.15,46.581004761904794
1417.2,42.794566666666704
1419.25,54.60146666666673
1421.3,90.85670000000006
1423.35,105.0819428571429
1425.4,99.27480952380955
1427.45,82.81381428571434
1429.49,78.5057333333334
1431.54,88.82406190476196
1433.58,95.52768571428575
1435.62,81.61370952380956
1437.66,64.41229523809527
1439.7,52.01549523809527
1441.74,48.08666190476195
1443.77,60.52712380952386
1445.81,53.8572428571429
1447.84,68.78760476190482
1449.87,90.0289095238096
1451.9,102.76793333333339
1453.93,93.52472380952386
1455.96,111.200180952381
1457.98,97.45716190476197
1460.01,106.3390476190477
1462.03,142.1277238095239
1464.05,163.72417142857154
1466.07,184.21962857142873
1468.09,220.89553333333347
1470.11,259.5097142857145
1472.13,272.10571428571444
1474.14,287.0129523809525
1476.16,252.89409523809536
1478.17,220.17376190476202
1480.18,187.657142857143
1482.19,178.81657142857154
1484.2,152.41004761904767
1486.21,125.57647619047624
1488.21,80.64516190476195
1490.22,58.46956666666672
1492.22,72.71240000000006
1494.22,68.98922380952385
1496.22,86.39161904761909
1498.22,81.29689523809526
1500.22,73.70153333333337
1502.22,59.41166190476194
1504.21,58.18577180952382
1506.21,25.544558952380967
1508.2,15.770703619047628
1510.19,18.52780580952383
1512.18,18.051058380952394
1514.17,17.575801809523828
1516.16,37.71845990476193
1518.14,30.38131904761906
1520.13,23.22867857142859
1522.11,20.210730952380953
1524.09,9.230152380952399
1526.07,12.999378571428604
1528.05,57.84982952380956
1530.03,55.49436523809527
1532.01,67.36011619047622
1533.98,61.54100380952384
1535.96,65.84529238095243
1537.93,78.27205333333339
1539.9,97.72499619047623
1541.87,86.87019047619053
1543.84,81.32598095238099
1545.81,78.56827142857149
1547.78,94.78683809523818
1549.74,114.12433809523817
1551.7,141.77130952380963
1553.67,165.2514476190477
1555.63,165.99329523809533
1557.59,151.56874761904768
1559.55,126.31135238095243
1561.5,111.74530000000007
1563.46,119.15678095238104
1565.41,153.54648095238105
1567.37,154.29586190476198
1569.32,148.54880000000009
1571.27,122.1633857142858
1573.22,119.75937142857151
1575.17,124.24256666666676
1577.11,156.376161904762
1579.06,174.73261904761915
1581.0,184.69457142857152
1582.95,173.40604761904774
1584.89,179.43961904761915
1586.83,172.51109523809532
1588.77,174.8124761904763
1590.7,192.34542857142867
1592.64,175.1592380952382
1594.58,162.85083333333344
1596.51,167.1359047619051
1598.44,201.68261904761968
