Raman Shift,Processed Intensity
331.095,-42.709623809523734
333.909,-7.960892857142838
336.721,6.784028571428557
339.531,7.30579047619047
342.339,8.62258095238094
345.145,-30.175252380952386
347.949,-17.75705714285717
350.751,-46.40960000000003
353.55,-58.608357142857145
356.348,-20.87469047619046
359.144,16.605152380952404
361.937,38.837142857142894
364.729,55.92407619047624
367.518,93.68492380952392
370.306,168.65476666666683
373.091,288.32236190476215
375.874,398.32105714285734
378.656,462.52385714285737
381.435,419.13861904761916
384.212,310.1365666666668
386.988,165.91930000000002
389.761,56.17528095238099
392.532,-2.2624976190475876
395.301,4.0594285714286
398.068,15.596016666666683
400.833,31.94625238095241
403.596,40.85354523809526
406.358,43.872147619047624
409.117,12.271976190476181
411.874,6.22906190476191
414.629,-23.0316
417.382,-0.5218142857142496
420.133,22.033671428571463
422.882,68.1493333333334
425.629,109.57906666666676
428.374,164.7446380952382
431.117,208.3546047619049
433.858,275.9753904761906
436.597,276.7940952380954
439.334,263.7602380952382
442.069,234.87204761904775
444.802,164.79557142857155
447.533,177.91142857142873
450.262,183.6964761904763
452.989,206.24747619047633
455.714,262.0426190476192
458.438,284.7516285714287
461.159,231.90189523809534
463.878,193.78295238095242
466.595,119.30442857142864
469.31,87.3283095238096
472.024,84.52683809523815
474.735,98.76360476190483
477.444,111.66373333333343
480.152,134.85323333333346
482.857,149.86339047619057
485.561,160.46339047619057
488.262,182.61345714285727
490.962,188.3696380952382
493.659,172.07329523809528
496.355,131.87591428571432
499.048,99.2150857142858
501.74,77.95619047619057
504.43,122.0132761904763
507.118,155.15728571428582
509.804,204.68334285714297
512.488,222.8383809523811
515.17,253.82252380952394
517.85,224.4542380952382
520.528,189.4569523809525
523.204,168.8874380952382
525.878,159.89791428571436
528.551,123.92567142857149
531.221,110.5990428571429
533.89,73.0697428571429
536.556,42.10803333333338
539.221,57.913142857142915
541.883,84.01733809523816
544.544,104.7621380952382
547.203,140.82222857142867
549.86,140.44340000000005
552.515,154.77604761904774
555.168,181.4945238095239
557.819,201.8440000000001
560.469,202.45038095238104
563.116,195.84428571428583
565.761,175.84142857142865
568.405,171.2099142857144
571.047,144.6222476190477
573.687,136.8454476190477
576.324,125.69453333333341
578.96,100.60294285714292
581.594,121.09918190476198
584.227,104.80655571428574
586.857,64.39552095238099
589.485,43.012515714285726
592.112,24.1373304761905
594.737,28.486984285714357
597.359,77.30251523809531
599.98,120.20513333333342
602.599,158.38745714285724
605.216,154.70807619047628
607.831,140.64461904761913
610.445,148.3882952380953
613.056,113.79715238095245
615.666,105.3002095238096
618.274,113.32575238095248
620.88,125.3973523809525
623.484,161.08577142857152
626.086,187.77048571428583
628.686,190.7836666666668
631.284,197.26666666666677
633.881,213.45523809523826
636.476,251.5853333333335
639.068,275.8925714285716
641.659,244.8972380952382
644.249,211.9297142857144
646.836,168.22461904761914
649.421,149.87330476190488
652.005,142.8714047619048
654.587,127.40533809523815
657.166,88.61302285714288
659.745,47.68046571428573
662.321,17.60266476190479
664.895,38.51732952380956
667.468,43.704707619047646
670.038,55.39738571428574
672.607,44.732576190476195
675.174,30.2759685714286
677.739,24.54544190476195
680.303,66.39236857142862
682.864,73.76295095238099
685.424,81.84157714285716
687.982,62.19362142857144
690.538,29.05110476190476
693.092,7.217454761904781
695.645,11.401057142857145
698.195,4.11956571428573
700.744,8.033708571428576
703.291,8.80429571428571
705.836,2.949327619047627
708.38,5.986922380952387
710.921,7.816242857142866
713.461,6.0508461904761965
715.999,19.351981904761935
718.535,36.76197904761909
721.069,60.98996000000005
723.602,94.26892380952387
726.133,115.92732380952387
728.662,105.96040000000005
731.189,74.03017142857144
733.714,30.27501428571429
736.238,13.738238095238128
738.759,18.606047619047658
741.279,66.20805238095244
743.798,90.92120476190479
746.314,81.02760476190478
748.829,56.28571428571432
751.342,66.73995714285718
753.853,63.10142857142863
756.362,78.74832380952385
758.869,60.29672857142859
761.375,44.886919047619074
763.879,38.75454285714291
766.381,54.13544761904767
768.882,76.21806190476197
771.38,101.1430714285715
773.877,95.57536190476196
776.372,113.46544285714292
778.866,112.14523809523814
781.357,82.94670952380956
783.847,55.15443333333336
786.335,55.767271428571476
788.821,57.40306190476197
791.306,99.34668095238102
793.789,130.7879952380953
796.27,135.4882190476191
798.749,150.49442857142867
801.227,164.33033333333344
803.702,177.80471428571443
806.176,190.63223809523822
808.649,202.24114285714296
811.119,209.10804761904777
813.588,235.18557142857156
816.055,218.2834285714287
818.521,208.30674285714298
820.984,168.20860000000008
823.446,125.75110476190486
825.906,128.98306666666676
828.365,164.0007142857144
830.821,147.8047571428572
833.276,144.34862857142863
835.729,147.3001380952382
838.181,125.89846666666676
840.631,138.00216666666677
843.079,149.56509047619053
845.525,127.77921904761911
847.97,95.69341428571434
850.412,90.07131428571434
852.854,65.43838095238101
855.293,81.17751428571435
857.731,71.67125238095244
860.167,94.82658095238102
862.601,82.35943333333337
865.034,82.03380000000006
867.465,67.85172380952385
869.894,65.29170000000003
872.321,38.02243809523813
874.747,41.427309523809555
877.171,51.41321904761911
879.594,72.60160000000005
882.014,90.70919047619054
884.433,92.30974285714291
886.851,94.54874285714293
889.266,99.76175238095247
891.68,129.57040952380962
894.092,142.97729047619057
896.503,172.17579047619057
898.912,189.16857142857154
901.319,193.33904761904773
903.724,186.9755238095239
906.128,171.69980952380962
908.53,159.41933333333344
910.931,172.9464761904763
913.329,186.5222380952382
915.726,205.62509523809535
918.122,197.97247619047627
920.516,186.09109523809536
922.908,163.12623809523816
925.298,146.74757142857152
927.687,135.19609523809532
930.074,140.80761904761914
932.459,135.2520000000001
934.843,144.43676190476197
937.225,128.64997619047628
939.605,102.3708333333334
941.984,80.22107619047623
944.361,68.29854761904767
946.736,66.36815714285719
949.11,57.861090476190505
951.482,50.63706666666669
953.853,58.69875714285718
956.222,51.52496190476194
958.589,56.30872380952384
960.954,51.57639523809525
963.318,43.94955714285718
965.68,58.57349523809529
968.041,70.11736952380956
970.4,49.869275714285735
972.757,26.64107380952381
975.113,8.863630952380966
977.467,-6.413186190476172
979.819,26.288971904761937
982.17,30.25800142857144
984.519,36.543550476190504
986.866,43.909517142857176
989.212,49.31021333333336
991.556,52.556949523809585
993.899,87.65161619047626
996.24,114.2622714285715
998.579,130.96202380952388
1000.92,106.60951904761907
1003.25,76.49169047619053
1005.59,74.75299523809531
1007.92,84.58501428571435
1010.25,105.79804285714293
1012.58,131.15527333333338
1014.91,85.0383566666667
1017.24,80.3526371428572
1019.56,85.86108142857147
1021.88,83.3736133333334
1024.2,78.4143614285715
1026.52,109.88902095238102
1028.84,113.41659523809533
1031.16,145.0925000000001
1033.48,182.96476190476204
1035.79,201.747761904762
1038.1,210.72695238095253
1040.41,246.3310952380954
1042.72,282.75019047619065
1045.03,277.27000000000015
1047.33,279.98547619047633
1049.64,253.08685714285727
1051.94,225.71623809523823
1054.24,221.87314285714302
1056.54,217.41408571428582
1058.84,178.10051428571435
1061.13,142.78860000000006
1063.43,127.71605714285722
1065.72,136.40540952380962
1068.01,155.1895142857144
1070.3,169.2100857142858
1072.59,161.60885714285723
1074.87,158.24195238095248
1077.16,173.29890476190488
1079.44,195.20690476190492
1081.72,227.25042857142873
1084.0,268.61861904761923
1086.28,309.0718095238098
1088.56,415.8945238095241
1090.84,561.7045238095242
1093.11,675.8338095238098
1095.38,708.8518571428574
1097.65,629.2337142857144
1099.92,498.92966666666695
1102.19,435.27142857142894
1104.46,405.54328571428596
1106.72,421.40995238095263
1108.98,408.48866666666686
1111.24,397.49228571428597
1113.5,420.7044285714289
1115.76,475.5517619047622
1118.02,492.1275238095242
1120.28,529.8581904761909
1122.53,526.7419047619051
1124.78,505.2532380952384
1127.03,465.58042857142874
1129.28,391.3406190476192
1131.53,302.67423809523825
1133.77,241.5315714285716
1136.02,211.81519047619062
1138.26,195.5235238095239
1140.5,189.13009523809535
1142.74,171.06161904761916
1144.98,165.93490476190487
1147.22,180.6999047619049
1149.45,217.06880952380965
1151.69,232.94438095238107
1153.92,224.08595238095248
1156.15,197.77723809523818
1158.38,166.5398761904763
1160.61,140.4188952380953
1162.83,115.03110476190483
1165.06,114.89823809523817
1167.28,105.49408095238101
1169.5,96.6260428571429
1171.72,76.62522857142861
1173.94,61.203528571428606
1176.16,40.215823809523854
1178.37,49.9934142857143
1180.58,42.962447619047644
1182.8,30.263566666666676
1185.01,18.13266857142859
1187.22,13.567520952380963
1189.42,21.85165142857145
1191.63,24.79240285714287
1193.84,35.2448323809524
1196.04,21.492559047619046
1198.24,15.10501142857144
1200.44,23.413600952380982
1202.64,27.46415809523812
1204.84,42.30259714285718
1207.03,59.21308000000001
1209.23,35.956044761904764
1211.42,14.053981904761914
1213.61,18.553362857142865
1215.8,18.500790476190506
1217.99,19.89544761904763
1220.18,23.87949523809525
1222.36,22.309542857142876
1224.55,26.899509523809563
1226.73,53.268280952381005
1228.91,82.98725714285717
1231.09,72.43760952380954
1233.27,58.28632857142859
1235.44,43.43863809523812
1237.62,37.847580952380994
1239.79,41.704452380952425
1241.96,76.96239523809531
1244.13,106.43236666666674
1246.3,122.87721904761912
1248.47,135.4890095238096
1250.64,143.17401904761914
1252.8,147.60033333333345
1254.96,174.2934285714287
1257.13,202.1123809523811
1259.29,216.96400000000014
1261.44,219.5171904761906
1263.6,229.01238095238108
1265.76,231.92766666666677
1267.91,210.0749523809525
1270.06,184.88538095238104
1272.22,180.88557142857155
1274.37,164.31609523809536
1276.51,161.56095238095247
1278.66,148.05114285714293
1280.81,122.59904761904767
1282.95,97.82709523809534
1285.09,125.30933333333344
1287.23,166.14423809523822
1289.37,206.9064666666668
1291.51,199.07539523809533
1293.65,166.5591238095239
1295.78,135.93241428571437
1297.92,135.05547619047627
1300.05,136.55091428571436
1302.18,143.80293333333339
1304.31,117.19600476190482
1306.44,120.78132380952391
1308.57,141.4671380952382
1310.69,153.39959047619055
1312.82,147.534761904762
1314.94,158.49495238095247
1317.06,166.85528571428583
1319.18,197.28600000000014
1321.3,210.69528571428583
1323.41,227.08647619047636
1325.53,267.2251904761907
1327.64,339.9241428571431
1329.75,401.99652380952404
1331.87,433.77890476190504
1333.98,420.8937142857145
1336.08,402.53509523809544
1338.19,388.37285714285736
1340.3,354.8388571428573
1342.4,319.6506190476192
1344.5,271.1443809523811
1346.6,215.9426190476192
1348.7,178.28633333333346
1350.8,166.1307142857144
1352.9,148.71709523809534
1354.99,167.61970476190487
1357.09,154.8887857142858
1359.18,127.67006190476195
1361.27,102.29924285714293
1363.36,105.30266190476199
1365.45,115.01622380952392
1367.54,168.6804523809525
1369.62,188.96405714285726
1371.7,206.77385714285725
1373.79,232.20733333333348
1375.87,252.0282857142858
1377.95,267.52414285714303
1380.03,302.7917619047621
1382.1,281.9278571428573
1384.18,255.21952380952396
1386.25,221.28704761904774
1388.33,166.2747142857144
1390.4,143.611761904762
1392.47,152.39416190476197
1394.54,118.57535714285719
1396.6,96.34635238095241
1398.67,84.27872857142862
1400.74,86.80142857142864
1402.8,87.58106666666671
1404.86,68.37945714285716
1406.92,52.95820476190481
1408.98,76.79291428571437
1411.04,98.16875714285723
1413.09,136.37038095238103
1415.15,141.11154285714292
1417.2,116.05734285714294
1419.25,128.25398095238106
1421.3,149.79521904761913
1423.35,139.3463333333334
1425.4,136.1430476190477
1427.45,118.1362857142858
1429.49,113.03785714285722
1431.54,119.55995238095245
1433.58,125.27195238095247
1435.62,125.17135238095244
1437.66,121.82670000000006
1439.7,107.18786666666672
1441.74,93.77582380952386
1443.77,86.49246666666672
1445.81,76.1921904761905
1447.84,80.53831428571435
1449.87,90.28991904761912
1451.9,92.20575238095245
1453.93,106.71124285714293
1455.96,144.04098095238103
1457.98,171.8582857142858
1460.01,175.15961904761915
1462.03,190.70400000000015
1464.05,202.39261904761918
1466.07,220.46019047619063
1468.09,258.093523809524
1470.11,312.19371428571446
1472.13,321.32890476190494
1474.14,334.3528571428573
1476.16,321.9764285714287
1478.17,293.767523809524
1480.18,254.58004761904772
1482.19,215.4100476190477
1484.2,179.92119047619056
1486.21,152.68140000000008
1488.21,124.92568095238103
1490.22,105.1268190476191
1492.22,74.51988571428575
1494.22,54.95860000000005
1496.22,57.82109047619052
1498.22,68.15195714285719
1500.22,71.80542666666669
1502.22,52.82629333333334
1504.21,10.735629523809527
1506.21,6.340387619047643
1508.2,19.39992952380955
1510.19,37.34044095238098
1512.18,44.25487904761907
1514.17,49.760104761904785
1516.16,49.52073333333338
1518.14,68.05865714285719
1520.13,69.51485714285717
1522.11,57.22092380952382
1524.09,31.7942523809524
1526.07,34.519123809523855
1528.05,57.67975714285719
1530.03,74.46527142857147
1532.01,92.2553647619048
1533.98,81.66791761904764
1535.96,42.8923704761905
1537.93,36.68958619047623
1539.9,45.4397790476191
1541.87,73.38023380952387
1543.84,80.74821428571433
1545.81,90.20956761904766
1547.78,78.71615809523816
1549.74,100.74369333333343
1551.7,127.24429904761915
1553.67,167.02735619047627
1555.63,163.75885714285724
1557.59,185.2956666666668
1559.55,183.4948095238096
1561.5,192.6900000000001
1563.46,182.92846666666676
1565.41,151.1153714285715
1567.37,135.06017142857152
1569.32,129.62015238095248
1571.27,136.74793333333344
1573.22,159.06322857142865
1575.17,194.37551428571442
1577.11,183.30433333333343
1579.06,166.51700000000008
1581.0,150.4900952380953
1582.95,148.03380952380962
1584.89,150.14900000000011
1586.83,170.69338095238106
1588.77,183.52457142857153
1590.7,179.3579523809525
1592.64,169.76557142857155
1594.58,163.67683333333352
1596.51,174.83069047619082
1598.44,215.5613095238102
