Raman Shift,Processed Intensity
331.095,49.9563976190474
333.909,-7.594347619047646
336.721,-39.020047619047595
339.531,-49.71048571428573
342.339,-53.65135238095239
345.145,-23.351195238095233
347.949,10.136285714285721
350.751,8.235499999999982
353.55,-3.9130047619047534
356.348,6.6904333333333375
359.144,8.333028571428603
361.937,20.684976190476227
364.729,44.41827619047625
367.518,98.92108095238109
370.306,215.7262619047621
373.091,343.89245238095265
375.874,448.4798666666669
378.656,441.503142857143
381.435,343.97836190476204
384.212,223.0184333333334
386.988,140.0714857142858
389.761,67.158680952381
392.532,42.39806666666669
395.301,27.957123809523843
398.068,44.76674285714289
400.833,33.14022095238097
403.596,41.82121
406.358,20.078519047619036
409.117,3.75403095238096
411.874,-13.404220952380948
414.629,2.9247919047619098
417.382,7.301483809523825
420.133,9.287691428571456
422.882,30.922866666666746
425.629,108.43806666666678
428.374,202.25594285714305
431.117,285.4195476190478
433.858,344.21106666666685
436.597,316.58014285714296
439.334,235.95414285714295
442.069,205.61838095238107
444.802,183.04900000000015
447.533,187.05695238095254
450.262,241.6918095238097
452.989,261.86100000000016
455.714,278.13961904761925
458.438,291.6272857142858
461.159,252.18547619047632
463.878,203.9624761904763
466.595,174.5355238095239
469.31,161.48252380952394
472.024,156.90557142857153
474.735,169.09790476190489
477.444,168.1623333333334
480.152,178.91638095238108
482.857,209.6541904761906
485.561,226.43195238095245
488.262,203.68734285714297
490.962,162.28674761904767
493.659,131.23968571428583
496.355,132.0317285714287
499.048,165.33919047619054
501.74,139.74339523809527
504.43,124.2544952380953
507.118,121.8823523809525
509.804,166.49424761904774
512.488,213.52860000000015
515.17,256.28126666666674
517.85,232.09557142857153
520.528,197.07676190476204
523.204,211.5206190476192
525.878,214.86544761904773
528.551,183.6447476190477
531.221,141.6300428571429
533.89,89.8781190476191
536.556,55.63648095238102
539.221,72.1525571428572
541.883,105.530061904762
544.544,124.39683809523818
547.203,153.85676190476198
549.86,134.9656047619048
552.515,122.20763809523817
555.168,106.40020476190485
557.819,128.74101904761915
560.469,132.9516761904763
563.116,159.32481904761912
565.761,144.34311904761913
568.405,149.3462380952382
571.047,135.72130952380962
573.687,153.37885714285724
576.324,142.18096190476197
578.96,129.51372380952387
581.594,119.76263809523817
584.227,121.50365714285722
586.857,122.21714285714295
589.485,125.43040000000005
592.112,107.2416190476191
594.737,105.08259047619055
597.359,94.24137619047626
599.98,97.1012095238096
602.599,122.94961428571438
605.216,139.78829523809534
607.831,145.18963333333343
610.445,183.20213333333342
613.056,176.0642380952382
615.666,179.3475238095239
618.274,166.1468095238096
620.88,158.12833333333344
623.484,149.76704761904773
626.086,189.63328571428588
628.686,220.86819047619065
631.284,262.70800000000014
633.881,264.0078571428573
636.476,261.4315238095239
639.068,246.9289047619049
641.659,241.59204761904775
644.249,205.98892380952395
646.836,171.02080000000007
649.421,114.6840333333334
652.005,96.16496190476197
654.587,99.0308952380953
657.166,81.61049523809527
659.745,49.2801523809524
662.321,49.65449809523813
664.895,23.72861476190479
667.468,33.68829619047624
670.038,69.5282328571429
672.607,60.95792000000003
675.174,76.78173380952387
677.739,82.80421714285715
680.303,76.25820952380958
682.864,73.90039142857147
685.424,66.24920095238097
687.982,37.680559047619084
690.538,38.80818000000001
693.092,12.293573333333363
695.645,39.75062000000004
698.195,67.55505809523812
700.744,61.32086190476192
703.291,44.28110476190477
705.836,26.335557142857155
708.38,24.431719047619083
710.921,35.469614285714314
713.461,32.2540380952381
715.999,23.304290476190484
718.535,12.139780952380974
721.069,29.37522380952386
723.602,64.19694761904765
726.133,73.26761904761906
728.662,71.58331904761909
731.189,62.61648571428574
733.714,39.98254285714289
736.238,34.582671428571466
738.759,59.651823809523876
741.279,85.99607619047626
743.798,109.13607619047625
746.314,107.21162857142859
748.829,85.74361904761909
751.342,64.96734761904766
753.853,70.02323809523814
756.362,58.43231428571431
758.869,53.7160047619048
761.375,63.25289523809528
763.879,60.75504761904765
766.381,62.267904761904795
768.882,74.36105714285719
771.38,78.03243809523815
773.877,70.89930476190482
776.372,88.62671904761908
778.866,73.49874761904766
781.357,76.18035714285722
783.847,86.19428571428575
786.335,83.34863333333337
788.821,71.07089523809529
791.306,83.93152857142863
793.789,89.50067142857151
796.27,98.96787619047625
798.749,128.8085238095239
801.227,127.92676666666675
803.702,132.98889523809532
806.176,148.80370952380963
808.649,160.32297142857152
811.119,153.6420000000001
813.588,179.71247619047628
816.055,169.5820952380953
818.521,146.67942857142867
820.984,131.67076190476197
823.446,115.74666666666674
825.906,136.00285714285724
828.365,170.53447619047628
830.821,184.34195238095248
833.276,173.85442857142868
835.729,183.73909523809536
838.181,176.6154285714287
840.631,200.00799047619063
843.079,189.0600000000001
845.525,153.6293190476191
847.97,93.66930952380957
850.412,77.56198571428575
852.854,68.73676666666674
855.293,88.00439523809528
857.731,81.31818095238098
860.167,73.15555714285718
862.601,53.327257142857164
865.034,42.02508095238099
867.465,48.20275238095242
869.894,62.195047619047656
872.321,71.86055238095243
874.747,85.62954761904768
877.171,100.36060476190482
879.594,109.10305238095245
882.014,123.85842380952388
884.433,133.67622857142865
886.851,131.27261904761912
889.266,122.07809523809533
891.68,151.3804285714287
894.092,175.80042857142868
896.503,215.00657142857156
898.912,198.2393333333334
901.319,185.4530000000001
903.724,170.6023333333335
906.128,187.78480952380966
908.53,206.76414285714299
910.931,220.16204761904774
913.329,204.17128571428583
915.726,194.88914285714296
918.122,183.65185714285727
920.516,175.69961904761917
922.908,167.32033333333342
925.298,164.46957142857156
927.687,168.1493333333334
930.074,173.74317142857154
932.459,159.44443333333342
934.843,155.58910476190482
937.225,140.79870000000005
939.605,125.21895238095244
941.984,101.04265238095245
944.361,104.51080000000006
946.736,110.29281904761912
949.11,91.86785714285718
951.482,84.33395238095243
953.853,67.1699904761905
956.222,51.99787142857147
958.589,48.62998571428576
960.954,53.878666666666675
963.318,44.17550000000004
965.68,47.38035238095241
968.041,60.01982857142862
970.4,71.19195714285719
972.757,87.61372857142862
975.113,79.24021428571433
977.467,71.64552380952382
979.819,38.35585238095239
982.17,22.84983809523812
984.519,31.939271428571473
986.866,51.34064285714291
989.212,76.29402857142864
991.556,124.99186666666677
993.899,148.72162857142865
996.24,174.05650952380964
998.579,167.23618571428577
1000.92,133.73831428571435
1003.25,99.51652857142864
1005.59,91.95306666666673
1007.92,93.95365238095246
1010.25,111.8050476190477
1012.58,118.55582857142865
1014.91,97.68306190476194
1017.24,98.56855238095247
1019.56,132.26035714285723
1021.88,158.9493333333334
1024.2,164.3977857142858
1026.52,174.22504761904767
1028.84,151.14604761904772
1031.16,174.92276190476207
1033.48,221.93623809523825
1035.79,257.0910476190478
1038.1,272.24423809523825
1040.41,285.1096666666668
1042.72,291.97333333333347
1045.03,291.3109047619049
1047.33,275.36038095238115
1049.64,268.35909523809545
1051.94,254.8778571428573
1054.24,237.77328571428586
1056.54,227.42604761904772
1058.84,201.6924285714287
1061.13,175.00014285714298
1063.43,182.0628571428573
1065.72,203.8319523809525
1068.01,214.49719047619058
1070.3,209.86714285714297
1072.59,202.46452380952394
1074.87,204.00219047619066
1077.16,253.76538095238112
1079.44,279.4196190476192
1081.72,295.487523809524
1084.0,318.8726190476193
1086.28,374.3357142857146
1088.56,492.1131904761909
1090.84,640.5852380952384
1093.11,720.3218571428575
1095.38,741.083666666667
1097.65,681.8692857142861
1099.92,544.3917142857146
1102.19,438.411523809524
1104.46,365.73723809523835
1106.72,341.31947619047645
1108.98,392.8713333333336
1111.24,452.2481428571431
1113.5,481.06785714285735
1115.76,532.3767142857146
1118.02,554.1733333333336
1120.28,583.0277142857146
1122.53,586.8911428571431
1124.78,544.571285714286
1127.03,466.92433333333355
1129.28,404.3296666666669
1131.53,332.4525714285716
1133.77,285.1969047619049
1136.02,225.8944761904763
1138.26,172.11528571428582
1140.5,152.0486666666668
1142.74,163.69352380952395
1144.98,188.66761904761918
1147.22,213.06533333333346
1149.45,229.6469523809525
1151.69,238.3639523809525
1153.92,241.78661904761918
1156.15,229.10457142857155
1158.38,201.26918095238102
1160.61,160.9464333333334
1162.83,113.65912857142865
1165.06,85.12081428571433
1167.28,73.28293809523815
1169.5,71.81143333333338
1171.72,69.13423809523815
1173.94,67.39370952380956
1176.16,63.68451428571433
1178.37,71.52997619047625
1180.58,62.97734285714287
1182.8,44.97865238095239
1185.01,30.247904761904778
1187.22,18.59444285714288
1189.42,13.732423809523837
1191.63,42.75703809523813
1193.84,54.00165714285718
1196.04,63.656838095238136
1198.24,63.34174761904765
1200.44,63.913700000000034
1202.64,46.84913809523812
1204.84,47.86262857142861
1207.03,43.71638095238098
1209.23,39.55358095238097
1211.42,16.707947619047626
1213.61,10.656023809523816
1215.8,7.779181904761917
1217.99,10.268324761904774
1220.18,13.504835238095255
1222.36,26.393908571428597
1224.55,42.12644476190481
1226.73,57.84573904761909
1228.91,74.83793904761909
1231.09,73.81778095238099
1233.27,60.83331428571431
1235.44,49.218319047619076
1237.62,50.87792380952384
1239.79,45.38408095238099
1241.96,53.403680952380995
1244.13,87.22304285714293
1246.3,107.03303333333342
1248.47,130.69128095238105
1250.64,152.67429523809534
1252.8,166.3635238095239
1254.96,176.80676190476203
1257.13,218.67147619047634
1259.29,242.1959047619049
1261.44,256.7615714285716
1263.6,257.6066666666668
1265.76,263.3508571428573
1267.91,244.1373333333335
1270.06,226.49052380952392
1272.22,209.2200476190477
1274.37,194.9455238095239
1276.51,176.14338095238105
1278.66,167.57600000000008
1280.81,179.43409523809535
1282.95,190.4327142857144
1285.09,191.57180952380963
1287.23,218.61385714285728
1289.37,226.27352380952394
1291.51,210.69400000000013
1293.65,200.9233333333335
1295.78,189.91457142857155
1297.92,168.38166666666675
1300.05,162.8490476190477
1302.18,159.22171428571437
1304.31,164.45257142857156
1306.44,181.20871428571445
1308.57,198.10976190476202
1310.69,214.9175238095239
1312.82,209.3469523809525
1314.94,227.63642857142875
1317.06,256.73838095238114
1319.18,298.7484285714288
1321.3,332.5717619047621
1323.41,367.6847619047622
1325.53,393.1356666666669
1327.64,442.21042857142885
1329.75,489.2424761904765
1331.87,497.9942380952384
1333.98,519.6088095238098
1336.08,499.80057142857174
1338.19,462.0462380952384
1340.3,438.2985238095241
1342.4,428.41495238095257
1344.5,393.49080952380973
1346.6,380.5740952380954
1348.7,347.9506190476192
1350.8,311.763523809524
1352.9,308.15638095238114
1354.99,298.55795238095254
1357.09,292.2060476190478
1359.18,278.6253333333335
1361.27,289.7204761904764
1363.36,294.539142857143
1365.45,321.32038095238113
1367.54,319.54014285714305
1369.62,325.91300000000024
1371.7,339.296523809524
1373.79,389.50019047619077
1375.87,439.7147142857146
1377.95,453.3217142857145
1380.03,449.08271428571453
1382.1,425.28404761904784
1384.18,387.49719047619067
1386.25,351.3414285714287
1388.33,319.48357142857157
1390.4,274.97161904761924
1392.47,256.3770000000002
1394.54,250.22380952380968
1396.6,220.27433333333343
1398.67,207.76671428571444
1400.74,209.1293809523811
1402.8,218.36266666666683
1404.86,202.84780952380964
1406.92,214.061142857143
1408.98,230.33633333333347
1411.04,259.3398571428573
1413.09,275.786142857143
1415.15,278.86595238095254
1417.2,262.05580952380967
1419.25,250.97461904761923
1421.3,259.52719047619064
1423.35,251.61852380952396
1425.4,246.39171428571441
1427.45,225.5134761904763
1429.49,222.8889523809525
1431.54,210.99400000000014
1433.58,211.97171428571443
1435.62,204.39361904761915
1437.66,199.83119047619056
1439.7,199.37957142857155
1441.74,208.13452380952396
1443.77,216.0481904761906
1445.81,232.88276190476208
1447.84,235.63809523809536
1449.87,219.79066666666682
1451.9,212.102142857143
1453.93,205.28690476190488
1455.96,202.96390476190487
1457.98,211.56185714285726
1460.01,213.55733333333347
1462.03,244.37857142857158
1464.05,264.2640000000002
1466.07,301.0703809523812
1468.09,331.03600000000023
1470.11,371.49400000000026
1472.13,370.6829523809526
1474.14,379.1736190476193
1476.16,341.6330952380954
1478.17,301.0133809523811
1480.18,270.07676190476207
1482.19,261.1562380952383
1484.2,246.34747619047633
1486.21,240.22128571428584
1488.21,205.68266666666676
1490.22,159.0170476190477
1492.22,147.41505714285722
1494.22,125.4955095238096
1496.22,119.9727238095239
1498.22,111.036980952381
1500.22,97.2120952380953
1502.22,101.45040327619054
1504.21,95.46599984761909
1506.21,87.592142552381
1508.2,83.82860758095241
1510.19,67.69918540952386
1512.18,55.10833318095243
1514.17,69.48470803809526
1516.16,60.01854609523813
1518.14,50.04301895238098
1520.13,41.129399809523846
1522.11,45.46801723809527
1524.09,35.963442666666694
1526.07,43.901214190476225
1528.05,56.94780800000002
1530.03,39.67447619047621
1532.01,41.89053809523813
1533.98,46.50056190476193
1535.96,58.17094761904767
1537.93,79.85389047619053
1539.9,98.83487142857147
1541.87,92.73277142857148
1543.84,86.11877619047623
1545.81,73.51645238095243
1547.78,92.87775714285722
1549.74,120.4405380952382
1551.7,151.72863333333342
1553.67,161.40823809523818
1555.63,147.47942857142866
1557.59,134.98914285714295
1559.55,130.88966666666676
1561.5,142.75214285714296
1563.46,148.62385714285722
1565.41,155.88523809523818
1567.37,161.48866666666675
1569.32,151.19547619047628
1571.27,136.33900000000008
1573.22,144.58580952380962
1575.17,148.0304761904763
1577.11,158.2442380952382
1579.06,156.0838571428572
1581.0,141.26342857142862
1582.95,124.4965714285715
1584.89,133.54519047619056
1586.83,151.07561904761914
1588.77,163.9923333333334
1590.7,157.62819047619058
1592.64,158.0780476190477
1594.58,149.10330952380966
1596.51,149.70395238095273
1598.44,169.87980952381025
