Raman Shift,Processed Intensity
331.095,28.48082142857125
333.909,-37.56804380952384
336.721,-40.39867095238087
339.531,-11.892116666666656
342.339,-4.33451047619049
345.145,-8.130592857142869
347.949,-10.231582857142854
350.751,-1.39731238095237
353.55,3.803811428571439
356.348,21.613911428571438
359.144,19.990399047619064
361.937,23.415540000000043
364.729,46.18231523809529
367.518,88.96547238095246
370.306,134.29832380952394
373.091,202.38224761904775
375.874,295.0858190476192
378.656,321.37479047619064
381.435,292.97769047619056
384.212,205.1004047619048
386.988,80.42674857142858
389.761,-9.92944428571427
392.532,-25.94870523809524
395.301,-24.561765238095223
398.068,-9.507924285714289
400.833,10.379989047619063
403.596,27.603979523809542
406.358,23.334242857142854
409.117,-10.828966666666691
411.874,-18.617144761904775
414.629,-40.998354285714285
417.382,-17.129589523809486
420.133,31.404835238095277
422.882,71.54643904761912
425.629,109.71386476190487
428.374,192.85099809523825
431.117,270.7600095238097
433.858,316.00638095238116
436.597,322.2519047619049
439.334,276.30280952380963
442.069,194.68000000000006
444.802,167.9530952380954
447.533,162.02638095238106
450.262,181.56676190476202
452.989,221.5279047619049
455.714,229.05457142857153
458.438,208.2923523809525
461.159,179.72082857142863
463.878,146.48718095238104
466.595,123.35810000000006
469.31,113.72008571428579
472.024,108.43590000000007
474.735,131.03630476190483
477.444,135.05207142857154
480.152,161.58585714285724
482.857,173.12161904761916
485.561,200.0966666666668
488.262,196.75714285714298
490.962,194.30276190476198
493.659,184.88559047619054
496.355,156.99140000000006
499.048,137.058180952381
501.74,141.33428571428578
504.43,102.87686666666674
507.118,109.41043809523822
509.804,157.99257142857158
512.488,218.39580000000018
515.17,268.3922095238097
517.85,277.7062095238096
520.528,230.11004761904775
523.204,207.85209523809536
525.878,196.56114285714298
528.551,191.67638095238107
531.221,179.0647714285715
533.89,138.21186666666674
536.556,123.50854285714296
539.221,116.82118095238104
541.883,149.06340000000012
544.544,161.10203809523816
547.203,155.42194761904767
549.86,130.4600714285715
552.515,98.79639523809527
555.168,68.62916666666675
557.819,119.72786190476201
560.469,160.90976666666677
563.116,179.75341904761913
565.761,176.59896190476198
568.405,151.30985714285723
571.047,125.65400000000011
573.687,168.25628571428584
576.324,186.36009523809534
578.96,186.25647619047632
581.594,178.56909523809534
584.227,184.87314285714294
586.857,164.50604761904773
589.485,185.04238095238105
592.112,186.62819047619058
594.737,192.4092380952382
597.359,185.9590000000001
599.98,194.51700952380963
602.599,159.98984285714295
605.216,150.09244761904773
607.831,142.96843333333342
610.445,131.76093809523817
613.056,121.46972857142865
615.666,117.66528095238101
618.274,103.96579047619056
620.88,135.56034761904772
623.484,177.30399047619062
626.086,214.5756190476192
628.686,279.563142857143
631.284,296.50195238095256
633.881,299.436142857143
636.476,292.3624285714287
639.068,268.75271428571443
641.659,244.12680952380964
644.249,229.05124761904773
646.836,182.5691476190477
649.421,145.3416190476191
652.005,108.88740952380957
654.587,73.58167142857148
657.166,62.08551904761908
659.745,58.05946190476194
662.321,53.163990476190506
664.895,48.63087904761906
667.468,34.45368619047619
670.038,4.959162857142873
672.607,29.283513809523864
675.174,67.27722952380958
677.739,95.40973857142862
680.303,91.96000761904764
682.864,83.2070428571429
685.424,56.19177619047622
687.982,36.669513333333335
690.538,13.014744285714283
693.092,3.173507619047623
695.645,7.282465238095268
698.195,9.668983809523816
700.744,28.803439523809534
703.291,34.15648476190478
705.836,30.96090000000003
708.38,50.16398095238099
710.921,62.237023809523826
713.461,43.4134904761905
715.999,45.83178571428574
718.535,47.34489047619051
721.069,54.662995238095284
723.602,68.97285714285718
726.133,85.79446666666672
728.662,100.124580952381
731.189,94.81707142857147
733.714,75.20220952380957
736.238,75.75323333333338
738.759,60.75313809523815
741.279,99.05614761904769
743.798,104.32683333333338
746.314,108.37251428571435
748.829,107.04817619047624
751.342,93.30430952380956
753.853,65.75806666666672
756.362,81.59825238095243
758.869,83.44243809523817
761.375,92.14655714285719
763.879,103.32826190476196
766.381,102.27218095238102
768.882,101.45358095238103
771.38,111.72910952380958
773.877,89.76468571428573
776.372,78.32155714285719
778.866,78.01841428571433
781.357,74.71196666666671
783.847,94.73553809523816
786.335,90.18433333333334
788.821,66.48682380952388
791.306,85.97654285714292
793.789,111.55859047619057
796.27,138.2334761904763
798.749,181.9539523809525
801.227,182.81590476190487
803.702,201.34376190476206
806.176,216.2049523809525
808.649,226.16204761904777
811.119,224.1686190476192
813.588,227.89228571428586
816.055,192.1437142857144
818.521,189.82880952380964
820.984,175.71061904761913
823.446,175.3619523809525
825.906,150.78414285714294
828.365,165.45480952380962
830.821,149.85138095238102
833.276,150.97538095238104
835.729,166.1142857142858
838.181,179.9839238095239
840.631,148.87166666666675
843.079,135.3981333333334
845.525,100.75555714285719
847.97,79.99332380952387
850.412,94.1607952380953
852.854,101.11673333333339
855.293,89.38688571428575
857.731,72.4492190476191
860.167,77.87689238095244
862.601,69.24324952380955
865.034,74.55024666666671
867.465,81.56142190476194
869.894,70.32623238095242
872.321,64.2273971428572
874.747,84.74289714285719
877.171,94.4937476190477
879.594,114.91025714285723
882.014,133.0891333333334
884.433,123.12766666666673
886.851,139.83685714285724
889.266,158.1712857142858
891.68,177.37057142857154
894.092,170.245761904762
896.503,167.2272380952382
898.912,151.84076190476202
901.319,160.37304761904772
903.724,179.87395238095246
906.128,168.10638095238104
908.53,166.16761904761916
910.931,159.01161904761915
913.329,154.63995238095248
915.726,153.5775238095239
918.122,167.20714285714294
920.516,161.33952380952394
922.908,164.83385714285725
925.298,175.16738095238108
927.687,170.19880952380962
930.074,169.35790476190485
932.459,149.21747619047625
934.843,147.20738095238102
937.225,153.75752380952392
939.605,172.3928095238096
941.984,158.16247619047627
944.361,156.30561904761913
946.736,120.06147619047627
949.11,115.81210476190483
951.482,112.79650952380958
953.853,110.01587619047625
956.222,106.94772857142864
958.589,147.83082857142867
960.954,171.38031904761917
963.318,184.74010476190483
965.68,160.7205714285715
968.041,137.70361904761913
970.4,112.21388095238103
972.757,105.15664285714291
975.113,100.10399333333338
977.467,66.5805385714286
979.819,47.15832000000004
982.17,41.83794714285719
984.519,56.33410571428578
986.866,93.45698619047627
989.212,132.9212076190477
991.556,131.39377619047627
993.899,165.06534285714298
996.24,164.79338095238109
998.579,196.95925714285727
1000.92,197.70628095238106
1003.25,180.8438000000001
1005.59,160.37224285714296
1007.92,178.76775238095252
1010.25,185.98242380952397
1012.58,218.77849523809533
1014.91,196.9652857142858
1017.24,173.06633333333346
1019.56,163.70128571428586
1021.88,170.01257142857156
1024.2,192.52371428571442
1026.52,217.8060952380954
1028.84,212.2876190476192
1031.16,218.2539523809525
1033.48,225.75261904761922
1035.79,246.16385714285732
1038.1,272.2017619047621
1040.41,295.6756190476192
1042.72,302.5370476190478
1045.03,297.07171428571445
1047.33,284.7550476190478
1049.64,278.9199047619049
1051.94,260.51800000000014
1054.24,240.97742857142873
1056.54,244.6785714285716
1058.84,227.0970952380954
1061.13,223.3749047619049
1063.43,244.70219047619065
1065.72,251.50676190476207
1068.01,252.07323809523828
1070.3,266.30595238095253
1072.59,246.96600000000015
1074.87,255.86195238095257
1077.16,284.27900000000017
1079.44,299.5498571428574
1081.72,333.0065238095241
1084.0,374.36285714285737
1086.28,426.4749047619051
1088.56,523.3417619047623
1090.84,645.5340476190481
1093.11,746.5270476190481
1095.38,774.4150000000004
1097.65,718.2924761904766
1099.92,627.1104761904764
1102.19,520.5349523809526
1104.46,466.94576190476215
1106.72,423.9133809523812
1108.98,429.103666666667
1111.24,456.7059047619051
1113.5,501.6713333333337
1115.76,542.7611904761908
1118.02,576.069666666667
1120.28,569.6434761904766
1122.53,558.2908571428575
1124.78,533.6298095238099
1127.03,475.42090476190504
1129.28,403.472904761905
1131.53,342.2610476190478
1133.77,292.11752380952396
1136.02,229.51771428571442
1138.26,225.12738095238112
1140.5,224.7546190476192
1142.74,225.06519047619062
1144.98,260.9148095238097
1147.22,283.25495238095255
1149.45,285.7513809523811
1151.69,281.7367142857144
1153.92,263.82861904761916
1156.15,213.31195238095248
1158.38,199.94752380952391
1160.61,177.63919047619058
1162.83,164.95720000000009
1165.06,125.85315238095244
1167.28,110.94473333333339
1169.5,98.89762857142864
1171.72,104.94934285714292
1173.94,99.86077619047624
1176.16,87.05961904761908
1178.37,57.163857142857175
1180.58,36.31550476190479
1182.8,46.561038095238146
1185.01,60.42359361904765
1187.22,54.521338142857175
1189.42,51.09149057142859
1191.63,27.27606995238095
1193.84,13.502885809523843
1196.04,18.628266714285736
1198.24,48.65175552380958
1200.44,71.33452380952386
1202.64,85.05700000000004
1204.84,66.91404285714289
1207.03,59.19104380952382
1209.23,19.74492476190478
1211.42,18.051949523809554
1213.61,39.635803809523836
1215.8,44.68714000000003
1217.99,47.01578190476192
1220.18,67.28881523809525
1222.36,43.6020142857143
1224.55,26.956076190476214
1226.73,37.018538095238114
1228.91,29.74276190476193
1231.09,35.89180000000005
1233.27,65.18120476190481
1235.44,67.85049047619053
1237.62,90.80615238095245
1239.79,114.28780000000006
1241.96,133.2972238095239
1244.13,136.5031476190477
1246.3,129.57438095238103
1248.47,103.46547619047625
1250.64,111.84557142857152
1252.8,124.8594761904763
1254.96,165.0337142857144
1257.13,182.70404761904774
1259.29,199.58780952380965
1261.44,197.64004761904775
1263.6,212.3399523809525
1265.76,215.35666666666677
1267.91,209.788761904762
1270.06,188.63914285714296
1272.22,155.958761904762
1274.37,145.36980952380964
1276.51,156.44709523809536
1278.66,168.3840000000001
1280.81,163.04119047619054
1282.95,157.32685714285722
1285.09,132.29166666666674
1287.23,114.79633333333338
1289.37,128.4160857142858
1291.51,125.86847142857147
1293.65,102.87135238095244
1295.78,92.61870000000005
1297.92,79.82804761904765
1300.05,57.217309523809575
1302.18,78.17096190476195
1304.31,100.78785714285723
1306.44,111.4521333333334
1308.57,133.21502857142866
1310.69,172.08009523809534
1312.82,175.43157142857152
1314.94,180.74885714285728
1317.06,185.84509523809535
1319.18,175.4374761904763
1321.3,171.91023809523824
1323.41,224.93342857142872
1325.53,245.22428571428586
1327.64,290.8814285714287
1329.75,316.8600952380954
1331.87,324.40114285714304
1333.98,313.983523809524
1336.08,297.27676190476205
1338.19,267.9502380952382
1340.3,265.72128571428584
1342.4,235.92509523809537
1344.5,207.18326666666673
1346.6,167.3551952380953
1348.7,119.34776285714291
1350.8,81.11554619047622
1352.9,46.517763809523835
1354.99,47.69865857142864
1357.09,70.85074476190482
1359.18,84.59455571428579
1361.27,132.35987238095245
1363.36,119.71962380952384
1365.45,100.34156190476199
1367.54,102.89341428571436
1369.62,107.51885714285723
1371.7,146.40907619047633
1373.79,221.18336190476202
1375.87,229.65214285714296
1377.95,263.86295238095255
1380.03,242.00657142857156
1382.1,224.41647619047635
1384.18,232.56833333333347
1386.25,221.93821904761919
1388.33,160.6209095238096
1390.4,140.75846666666672
1392.47,85.39767142857147
1394.54,53.58536761904764
1396.6,32.891539047619055
1398.67,19.17239238095239
1400.74,20.66428476190481
1402.8,50.03254476190481
1404.86,65.89429619047624
1406.92,73.05714857142861
1408.98,83.66190476190482
1411.04,68.80151428571433
1413.09,73.28303333333338
1415.15,70.15164285714289
1417.2,71.73825238095245
1419.25,80.75410952380959
1421.3,100.29164761904767
1423.35,104.91945238095244
1425.4,108.25332380952386
1427.45,88.29011904761909
1429.49,67.50291904761907
1431.54,51.459533333333354
1433.58,42.06139047619052
1435.62,52.40038095238099
1437.66,67.37750000000004
1439.7,68.32249523809529
1441.74,73.89830476190481
1443.77,81.43457619047624
1445.81,90.35597142857148
1447.84,109.3729476190477
1449.87,110.10080952380957
1451.9,78.05947619047623
1453.93,67.34010476190483
1455.96,79.22466666666674
1457.98,99.75661904761913
1460.01,139.07501904761915
1462.03,168.79493333333343
1464.05,181.1504285714287
1466.07,224.5660476190478
1468.09,284.1332380952383
1470.11,315.1817142857145
1472.13,341.8502857142859
1474.14,342.2304761904764
1476.16,331.65161904761925
1478.17,311.9196190476192
1480.18,295.79242857142873
1482.19,256.3620000000001
1484.2,232.33885714285728
1486.21,183.3387142857144
1488.21,150.977161904762
1490.22,115.58430476190482
1492.22,111.06146666666675
1494.22,88.7389571428572
1496.22,88.94719523809528
1498.22,64.44496190476194
1500.22,63.46768095238101
1502.22,70.77446666666671
1504.21,80.64845238095242
1506.21,84.32536666666672
1508.2,90.65997142857147
1510.19,90.1738428571429
1512.18,71.15070952380954
1514.17,53.6839323809524
1516.16,15.819425238095237
1518.14,7.222393333333356
1520.13,21.748512857142906
1522.11,56.96800285714289
1524.09,69.02266333333338
1526.07,90.1496847619048
1528.05,82.01497142857146
1530.03,57.236971428571465
1532.01,59.86279047619051
1533.98,51.98730476190479
1535.96,51.800647619047666
1537.93,87.35049047619054
1539.9,95.06512380952385
1541.87,90.13515714285721
1543.84,106.51300952380959
1545.81,122.1513238095239
1547.78,128.8597285714287
1549.74,157.21051428571437
1551.7,181.061142857143
1553.67,201.6027142857144
1555.63,196.7403809523811
1557.59,198.09419047619056
1559.55,180.85514285714294
1561.5,161.97671428571442
1563.46,175.98352380952392
1565.41,190.35290476190488
1567.37,196.03828571428585
1569.32,210.5646666666668
1571.27,205.02852380952393
1573.22,188.62152380952392
1575.17,167.0115238095239
1577.11,158.81942857142866
1579.06,159.47509523809535
1581.0,174.5512380952382
1582.95,171.7638095238096
1584.89,162.49533333333343
1586.83,147.6520952380953
1588.77,138.90242857142863
1590.7,130.86714285714294
1592.64,152.64319047619057
1594.58,169.82764285714285
1596.51,187.7080714285714
1598.44,203.95297619047622
