Raman Shift,Processed Intensity
331.095,171.8621928571425
333.909,51.062091666666475
336.721,-4.353011904762042
339.531,-17.26462619047618
342.339,-25.792671428571428
345.145,-1.223292857142856
347.949,-22.127133333333333
350.751,14.735454761904792
353.55,33.55764285714288
356.348,34.438219047619064
359.144,30.857971428571453
361.937,37.727385714285724
364.729,12.576971428571495
367.518,85.36698571428582
370.306,140.39220000000012
373.091,215.71061904761925
375.874,294.95259047619066
378.656,335.8929142857145
381.435,299.83100952380966
384.212,232.82973809523816
386.988,126.04835714285717
389.761,55.2668523809524
392.532,-10.68611904761904
395.301,-17.932466666666663
398.068,-9.926337142857141
400.833,-0.7868680952380794
403.596,12.939678095238094
406.358,15.470558571428544
409.117,-32.356460000000034
411.874,-44.130630000000004
414.629,-24.344421904761898
417.382,-9.107837142857129
420.133,20.613387619047657
422.882,56.04570380952386
425.629,94.60701142857152
428.374,151.05016761904773
431.117,226.31990095238112
433.858,260.3143333333335
436.597,262.07552380952393
439.334,230.78957142857155
442.069,214.73909523809533
444.802,186.1121904761906
447.533,194.47933333333347
450.262,214.3639047619049
452.989,257.86171428571447
455.714,297.1643333333335
458.438,273.9887238095239
461.159,187.09944761904765
463.878,104.97654285714289
466.595,39.71951428571435
469.31,38.428623809523884
472.024,85.96659047619053
474.735,98.72041428571434
477.444,106.98236190476197
480.152,114.3786714285715
482.857,121.91703809523818
485.561,132.27185714285724
488.262,146.35676190476198
490.962,155.51352380952392
493.659,163.98895238095247
496.355,152.17338095238102
499.048,128.83845238095245
501.74,121.85095238095245
504.43,114.12559523809531
507.118,137.1964285714287
509.804,171.1209285714287
512.488,233.8616190476192
515.17,251.57180952380966
517.85,238.97633333333343
520.528,219.846761904762
523.204,176.0512857142858
525.878,135.59985714285725
528.551,154.5025238095239
531.221,148.91261904761913
533.89,147.03054285714296
536.556,149.15166190476197
539.221,135.5240857142858
541.883,131.34752857142865
544.544,138.059980952381
547.203,118.14691428571436
549.86,108.09300000000005
552.515,96.09779523809533
555.168,116.50279047619057
557.819,145.17344285714296
560.469,183.45084761904772
563.116,178.3900952380953
565.761,172.80771428571438
568.405,179.8540000000001
571.047,186.3446666666668
573.687,195.66704761904776
576.324,203.73133333333345
578.96,198.4479047619049
581.594,177.58357142857153
584.227,196.47671428571442
586.857,213.65538095238108
589.485,191.21869047619055
592.112,175.1700000000001
594.737,162.03621428571432
597.359,118.5340476190477
599.98,136.7613952380953
602.599,134.00573809523814
605.216,92.93503809523816
607.831,96.64570000000006
610.445,86.2810190476191
613.056,67.07925238095244
615.666,98.37391428571436
618.274,114.6880476190477
620.88,153.59216190476204
623.484,192.6559523809525
626.086,205.63973333333345
628.686,224.54138095238113
631.284,250.07276190476207
633.881,256.6592857142859
636.476,270.1075714285716
639.068,262.7942857142859
641.659,231.3350952380954
644.249,222.82094285714297
646.836,183.72315714285722
649.421,147.703361904762
652.005,111.42319047619053
654.587,86.16256285714289
657.166,51.34464619047621
659.745,32.72531142857144
662.321,10.01249190476192
664.895,23.676154285714308
667.468,21.185750952380964
670.038,23.867886666666678
672.607,18.525190476190488
675.174,28.57923333333337
677.739,46.308619047619096
680.303,64.03957142857146
682.864,62.526771428571465
685.424,64.6677904761905
687.982,57.40780571428575
690.538,50.26343000000002
693.092,41.60845238095239
695.645,12.721559523809521
698.195,-7.2613914285714145
700.744,14.986080476190502
703.291,25.695380000000007
705.836,10.478983809523806
708.38,15.949585714285721
710.921,6.101009523809533
713.461,10.593985714285754
715.999,35.32751904761908
718.535,49.91514285714289
721.069,59.875352380952435
723.602,69.91738095238098
726.133,57.36967619047623
728.662,57.13234761904764
731.189,35.81997619047621
733.714,46.9998428571429
736.238,63.33437619047623
738.759,71.2483047619048
741.279,84.45222380952386
743.798,87.13315714285716
746.314,70.3830666666667
748.829,77.81801809523813
751.342,52.53019190476192
753.853,32.659717142857176
756.362,48.585198571428606
758.869,57.066040952381
761.375,70.67149666666673
763.879,94.82812761904765
766.381,79.4865428571429
768.882,62.78797619047624
771.38,69.54070000000004
773.877,71.55275714285719
776.372,80.72783809523814
778.866,82.0649666666667
781.357,75.51572857142862
783.847,62.127138095238124
786.335,54.89870952380956
788.821,67.21099047619055
791.306,87.96864761904767
793.789,106.0764476190477
796.27,132.72471904761912
798.749,165.05678095238108
801.227,201.26333333333346
803.702,251.05923809523824
806.176,252.5880952380954
808.649,229.4696666666668
811.119,204.18061904761916
813.588,184.10309523809536
816.055,170.1429047619049
818.521,173.1585238095239
820.984,174.77033333333344
823.446,174.69428571428585
825.906,176.21719047619058
828.365,174.19805714285724
830.821,144.11465238095246
833.276,107.34963809523818
835.729,112.76215714285722
838.181,126.97313333333342
840.631,127.7464476190477
843.079,135.65592380952387
845.525,109.37027619047623
847.97,96.2252190476191
850.412,103.69934285714294
852.854,114.65187619047624
855.293,98.27595714285718
857.731,98.43132380952386
860.167,86.215680952381
862.601,73.72697619047622
865.034,74.15815714285719
867.465,74.98831428571431
869.894,67.79166190476195
872.321,64.7139904761905
874.747,57.94845238095241
877.171,58.25997619047624
879.594,52.84166190476194
882.014,75.31551428571436
884.433,96.92276666666673
886.851,101.52343809523816
889.266,107.83475238095244
891.68,123.00270476190482
894.092,94.45890476190482
896.503,125.63459047619057
898.912,117.0569714285715
901.319,131.1098476190477
903.724,144.0818857142858
906.128,146.78565714285722
908.53,158.27199047619058
910.931,158.21025238095243
913.329,113.0796095238096
915.726,102.07357619047626
918.122,108.62360000000008
920.516,109.44683809523818
922.908,123.16532857142863
925.298,112.11505238095242
927.687,87.82260952380958
930.074,81.57658571428578
932.459,98.85574285714291
934.843,95.61531428571435
937.225,103.14348095238103
939.605,112.06191428571434
941.984,99.27800000000005
944.361,97.55594761904766
946.736,79.65993333333337
949.11,53.640052380952426
951.482,55.641161904761944
953.853,67.28477619047624
956.222,82.62049047619054
958.589,94.69792380952384
960.954,78.3761523809524
963.318,55.56177619047621
965.68,47.92322857142861
968.041,47.414662857142886
970.4,41.37090000000001
972.757,26.888655714285715
975.113,5.5883447619047555
977.467,-14.481166190476182
979.819,5.3003657142857366
982.17,18.886364285714308
984.519,32.70638952380955
986.866,56.856504761904816
989.212,74.4328952380953
991.556,98.34074285714294
993.899,143.86649523809533
996.24,148.1532952380953
998.579,147.9156476190477
1000.92,124.58262857142863
1003.25,104.05926666666674
1005.59,97.96451428571436
1007.92,112.2511333333334
1010.25,112.63314285714293
1012.58,124.72928571428578
1014.91,123.82536190476199
1017.24,112.30176666666672
1019.56,114.49131428571437
1021.88,111.06039523809531
1024.2,115.53238095238102
1026.52,114.8587476190477
1028.84,141.7058761904763
1031.16,145.54901904761914
1033.48,154.95863809523817
1035.79,172.83857142857156
1038.1,194.75971428571438
1040.41,207.33980952380966
1042.72,234.05438095238108
1045.03,236.52104761904772
1047.33,199.88161904761915
1049.64,188.56314285714296
1051.94,183.32647619047628
1054.24,179.884761904762
1056.54,213.57004761904776
1058.84,217.90438095238108
1061.13,200.50590476190487
1063.43,191.8965238095239
1065.72,186.74133333333344
1068.01,176.99133333333344
1070.3,211.74028571428585
1072.59,193.60528571428586
1074.87,190.7281904761906
1077.16,183.6781904761906
1079.44,206.5490952380954
1081.72,241.29142857142875
1084.0,302.80833333333356
1086.28,343.6691428571431
1088.56,457.3485714285718
1090.84,562.225666666667
1093.11,667.5369523809527
1095.38,690.8995238095241
1097.65,630.4542380952383
1099.92,522.199285714286
1102.19,435.9424761904764
1104.46,381.443904761905
1106.72,365.8444285714288
1108.98,371.90409523809546
1111.24,412.28766666666695
1113.5,449.4697142857146
1115.76,484.9244761904764
1118.02,531.5547619047622
1120.28,533.1684761904764
1122.53,516.287523809524
1124.78,476.6242380952383
1127.03,417.2244761904765
1129.28,370.18180952380976
1131.53,321.1134285714287
1133.77,248.73223809523822
1136.02,203.8934285714287
1138.26,170.26171428571442
1140.5,174.3119047619049
1142.74,206.37571428571445
1144.98,233.26104761904776
1147.22,235.06157142857157
1149.45,272.20438095238114
1151.69,283.7353333333335
1153.92,260.2722380952382
1156.15,248.57528571428583
1158.38,203.83419047619054
1160.61,150.04719047619056
1162.83,162.30835238095247
1165.06,149.56868571428578
1167.28,131.54152380952388
1169.5,127.17775238095244
1171.72,105.61971428571435
1173.94,88.24682380952387
1176.16,92.058080952381
1178.37,90.00516666666672
1180.58,95.230180952381
1182.8,79.25594761904766
1185.01,58.17721904761906
1187.22,48.183614285714306
1189.42,24.369854761904776
1191.63,15.973600000000026
1193.84,39.99433095238098
1196.04,28.00318095238096
1198.24,28.190373809523834
1200.44,28.317647619047627
1202.64,50.09909523809529
1204.84,64.43970190476196
1207.03,79.1015161904762
1209.23,41.703884761904774
1211.42,33.81847904761907
1213.61,33.54110857142862
1215.8,58.01502095238099
1217.99,72.14578285714289
1220.18,69.45788571428572
1222.36,51.666438095238135
1224.55,71.29601904761911
1226.73,100.9190714285715
1228.91,120.4416233333334
1231.09,98.48371500000003
1233.27,80.42726809523813
1235.44,61.79777309523814
1237.62,88.45336333333341
1239.79,108.72870547619057
1241.96,144.76837095238102
1244.13,132.52638095238103
1246.3,140.28961904761914
1248.47,140.8222380952382
1250.64,164.5064761904763
1252.8,182.48661904761917
1254.96,188.57438095238103
1257.13,193.4859047619049
1259.29,215.88957142857154
1261.44,244.5970952380954
1263.6,272.89590476190494
1265.76,283.1688095238096
1267.91,268.2752857142858
1270.06,229.97909523809537
1272.22,200.80638095238106
1274.37,201.28304761904775
1276.51,203.0304285714287
1278.66,188.57461904761917
1280.81,194.77485714285723
1282.95,160.44290476190483
1285.09,130.4380000000001
1287.23,140.66709523809533
1289.37,155.22785714285723
1291.51,153.07504761904772
1293.65,165.54462857142866
1295.78,138.01977142857146
1297.92,117.50282857142867
1300.05,123.42465714285723
1302.18,130.69211428571438
1304.31,143.45053333333342
1306.44,152.79762857142865
1308.57,167.1644285714287
1310.69,208.88676190476207
1312.82,244.2049047619049
1314.94,259.74028571428585
1317.06,281.0189523809525
1319.18,267.28114285714304
1321.3,249.76766666666683
1323.41,257.71876190476206
1325.53,258.99390476190496
1327.64,298.5000000000002
1329.75,344.8106666666669
1331.87,378.9279523809526
1333.98,401.75919047619067
1336.08,381.63985714285735
1338.19,346.14342857142873
1340.3,313.70023809523826
1342.4,254.0269047619049
1344.5,213.64909523809536
1346.6,188.09295238095245
1348.7,146.455761904762
1350.8,147.83409523809533
1352.9,144.5156666666668
1354.99,154.8357142857144
1357.09,174.22438095238107
1359.18,185.15980952380963
1361.27,204.16747619047632
1363.36,211.4869047619049
1365.45,218.40519047619063
1367.54,214.20976190476205
1369.62,225.80671428571446
1371.7,252.3403333333335
1373.79,291.4309047619049
1375.87,302.4130476190478
1377.95,300.57319047619063
1380.03,293.3888571428573
1382.1,268.4800000000002
1384.18,254.9905714285716
1386.25,243.9214285714287
1388.33,212.0351904761906
1390.4,187.85655238095248
1392.47,170.7667666666667
1394.54,120.62342857142863
1396.6,97.33177619047623
1398.67,69.22542380952385
1400.74,69.97113809523816
1402.8,89.52176190476196
1404.86,104.0201333333334
1406.92,97.13277142857147
1408.98,87.95471904761908
1411.04,75.48568095238102
1413.09,101.58246190476198
1415.15,111.95882857142864
1417.2,146.947461904762
1419.25,143.02386666666672
1421.3,135.6160000000001
1423.35,132.72277142857152
1425.4,128.58137619047625
1427.45,83.4285285714286
1429.49,74.73896190476194
1431.54,55.89240476190481
1433.58,50.6017428571429
1435.62,60.531814285714326
1437.66,67.5379904761905
1439.7,66.42785714285719
1441.74,78.81844609523813
1443.77,61.08854990476192
1445.81,46.759714095238124
1447.84,46.25816247619051
1449.87,64.67682361904768
1451.9,81.82255466666672
1453.93,92.35945561904767
1455.96,79.2371190476191
1457.98,92.30990952380961
1460.01,120.28936666666678
1462.03,183.36340476190492
1464.05,211.43367619047632
1466.07,236.54447619047633
1468.09,252.3120476190478
1470.11,293.8282857142859
1472.13,317.09033333333355
1474.14,339.8569523809526
1476.16,343.02957142857156
1478.17,314.93819047619064
1480.18,291.1038095238097
1482.19,279.14209523809535
1484.2,248.95453333333347
1486.21,192.9663714285715
1488.21,136.2695285714286
1490.22,70.38474285714291
1492.22,55.83260952380957
1494.22,51.27665714285719
1496.22,60.094438095238125
1498.22,61.18774285714289
1500.22,59.5058047619048
1502.22,59.47416571428575
1504.21,52.94691333333335
1506.21,42.25440761904765
1508.2,49.63184857142861
1510.19,58.88587428571433
1512.18,74.15653714285718
1514.17,73.58399428571431
1516.16,39.87987619047621
1518.14,33.61306190476194
1520.13,43.16207619047622
1522.11,44.52454761904765
1524.09,39.07914761904763
1526.07,38.10946190476193
1528.05,38.89916190476193
1530.03,32.49396190476191
1532.01,16.844480952380962
1533.98,16.615757142857163
1535.96,32.663652380952435
1537.93,66.4628571428572
1539.9,99.3455666666667
1541.87,84.9299047619048
1543.84,74.45299047619054
1545.81,75.86682380952386
1547.78,92.17081904761913
1549.74,134.55500000000012
1551.7,161.40021904761915
1553.67,180.4207142857144
1555.63,200.85423809523817
1557.59,186.03471428571436
1559.55,163.43833333333345
1561.5,159.5895238095239
1563.46,155.53614285714295
1565.41,156.2790476190477
1567.37,165.91395238095248
1569.32,167.9181904761906
1571.27,169.81661904761913
1573.22,162.6580000000001
1575.17,165.96685714285724
1577.11,159.69709523809533
1579.06,146.8973095238096
1581.0,141.33076190476197
1582.95,123.3323571428572
1584.89,110.2370476190477
1586.83,119.09416666666675
1588.77,141.19119047619057
1590.7,150.91049523809534
1592.64,139.82518571428577
1594.58,112.50856666666674
1596.51,99.67694523809553
1598.44,122.16560476190516
