Raman Shift,Processed Intensity
331.095,113.18201928571403
333.909,12.959172857142903
336.721,-14.126547142856992
339.531,3.0425842857143213
342.339,19.274576666666697
345.145,49.2586204761905
347.949,40.70851571428572
350.751,30.71962857142858
353.55,22.102361904761935
356.348,26.763019047619068
359.144,53.46584857142862
361.937,62.07131761904763
364.729,47.012101904761955
367.518,61.48380619047627
370.306,123.25425428571441
373.091,218.33030809523828
375.874,350.19648666666683
378.656,379.9098095238097
381.435,317.67100476190484
384.212,225.4919095238096
386.988,89.67111428571431
389.761,22.080071428571454
392.532,-5.169747619047618
395.301,-12.441971428571415
398.068,-23.7178238095238
400.833,15.83276190476191
403.596,14.184300000000006
406.358,4.789185714285697
409.117,-23.565238095238115
411.874,-23.56620000000001
414.629,-11.61352380952378
417.382,5.751766666666681
420.133,26.609338095238112
422.882,36.65931428571433
425.629,67.22292857142867
428.374,132.3841809523811
431.117,235.6572190476192
433.858,287.84368571428587
436.597,312.6986666666669
439.334,276.54957142857154
442.069,231.5354285714287
444.802,180.41419047619058
447.533,171.80309523809535
450.262,182.0822380952382
452.989,228.680142857143
455.714,236.21647619047633
458.438,242.31219047619058
461.159,216.3027142857144
463.878,182.66842857142868
466.595,138.98473809523819
469.31,119.44709523809532
472.024,125.632261904762
474.735,133.21338095238102
477.444,129.7685476190477
480.152,161.3053333333334
482.857,156.11709523809532
485.561,161.40252380952393
488.262,186.2180000000001
490.962,172.3348095238096
493.659,153.42913333333343
496.355,136.89187142857148
499.048,101.8281714285715
501.74,86.81989047619054
504.43,88.73488571428578
507.118,98.91710952380963
509.804,155.47270476190488
512.488,202.4600952380954
515.17,228.55723809523826
517.85,253.29890476190494
520.528,252.36309523809535
523.204,216.09452380952396
525.878,209.2659047619049
528.551,191.6027142857144
531.221,171.92552380952395
533.89,191.72109523809536
536.556,189.57170476190487
539.221,158.345180952381
541.883,127.52786190476195
544.544,102.2252476190477
547.203,97.97095714285723
549.86,132.7747523809525
552.515,156.9795380952382
555.168,177.0228095238096
557.819,180.91347619047627
560.469,186.5170000000001
563.116,194.0800952380954
565.761,225.18188571428584
568.405,201.06802857142864
571.047,179.22139047619058
573.687,164.45849523809534
576.324,162.73777142857156
578.96,170.0655047619049
581.594,230.39940952380968
584.227,250.98252380952397
586.857,271.72423809523826
589.485,265.9624285714287
592.112,259.2719047619049
594.737,225.1322380952382
597.359,205.3080000000001
599.98,189.22990476190486
602.599,181.85251428571436
605.216,141.03449047619057
607.831,133.49086666666673
610.445,107.69849047619054
613.056,98.70518095238104
615.666,97.32003333333341
618.274,128.54209523809533
620.88,138.79883809523818
623.484,202.23107619047633
626.086,254.9798095238097
628.686,314.7570000000002
631.284,328.2264285714288
633.881,370.4797619047621
636.476,368.18004761904785
639.068,375.7990000000002
641.659,345.0466190476192
644.249,281.9182380952382
646.836,217.7419523809525
649.421,177.32202857142866
652.005,130.17633809523815
654.587,98.20357142857146
657.166,47.34988952380953
659.745,8.79927523809525
662.321,-0.5979638095237996
664.895,5.341934285714308
667.468,28.564307619047653
670.038,48.6810742857143
672.607,38.0658861904762
675.174,24.28276952380954
677.739,39.56256047619052
680.303,51.707045714285755
682.864,67.47057285714288
685.424,58.845577619047624
687.982,32.11016666666668
690.538,12.685342380952402
693.092,20.46849714285715
695.645,10.49954428571429
698.195,8.580598095238098
700.744,-1.5813676190476145
703.291,15.720759047619069
705.836,9.956101904761898
708.38,7.689176190476197
710.921,11.10374761904763
713.461,10.4313523809524
715.999,36.52299047619053
718.535,70.42006190476192
721.069,78.25975238095245
723.602,97.6552790476191
726.133,90.74404333333337
728.662,58.806534285714314
731.189,54.26644714285717
733.714,45.2140628571429
736.238,57.02597190476196
738.759,90.74507428571434
741.279,101.89110476190481
743.798,101.1267047619048
746.314,87.92426666666668
748.829,51.47065238095239
751.342,14.143476190476207
753.853,27.034680952381006
756.362,54.18903333333339
758.869,63.889461904761944
761.375,82.27634761904766
763.879,74.96635714285718
766.381,50.67167142857148
768.882,66.533280952381
771.38,90.26369047619053
773.877,82.3851952380953
776.372,97.22986666666671
778.866,97.84417619047625
781.357,91.13174761904769
783.847,99.18728095238102
786.335,102.86730000000006
788.821,105.36168095238105
791.306,122.38452380952391
793.789,154.60249523809534
796.27,195.11067619047628
798.749,233.3856285714287
801.227,243.99928571428586
803.702,252.85676190476204
806.176,254.95876190476207
808.649,264.11547619047633
811.119,249.94680952380966
813.588,241.40628571428587
816.055,218.8761904761906
818.521,198.97690476190488
820.984,190.42428571428584
823.446,216.64833333333348
825.906,203.7459523809525
828.365,208.76642857142866
830.821,173.09266666666673
833.276,128.6312380952382
835.729,127.57522857142868
838.181,133.97432857142863
840.631,118.11646666666674
843.079,119.57533333333338
845.525,96.16302857142861
847.97,55.64380000000005
850.412,75.30631428571435
852.854,72.91497619047625
855.293,102.09169523809531
857.731,103.45821428571433
860.167,101.87478095238099
862.601,86.77266190476197
865.034,97.10742857142864
867.465,94.83433809523817
869.894,101.67085238095243
872.321,83.42950952380959
874.747,66.49469523809529
877.171,83.34573809523816
879.594,106.46201904761912
882.014,138.32299523809533
884.433,153.21784285714295
886.851,168.72121904761912
889.266,155.598380952381
891.68,145.80500000000006
894.092,127.77285714285722
896.503,143.26719047619056
898.912,145.52957142857153
901.319,158.08733333333345
903.724,177.56271428571438
906.128,187.7210476190477
908.53,182.61333333333346
910.931,198.38547619047628
913.329,189.51695238095246
915.726,184.67809523809535
918.122,192.25295238095248
920.516,178.00661904761915
922.908,141.13266666666675
925.298,130.2530476190477
927.687,131.65642857142865
930.074,140.10819047619057
932.459,139.1825952380953
934.843,125.45404761904767
937.225,103.7350714285715
939.605,109.88519047619056
941.984,118.7168333333334
944.361,132.56609523809533
946.736,129.34000000000006
949.11,124.42237142857151
951.482,110.48225238095245
953.853,101.47412380952387
956.222,114.4004714285715
958.589,122.16817619047625
960.954,121.44587619047624
963.318,100.75948571428574
965.68,82.11081428571434
968.041,80.73950380952388
970.4,90.83773000000004
972.757,67.78799571428573
975.113,39.49643666666666
977.467,14.011967142857166
979.819,23.145282380952416
982.17,27.468701428571435
984.519,32.79270476190478
986.866,18.546638095238105
989.212,27.92152380952387
991.556,66.63218571428578
993.899,109.53626666666673
996.24,119.91947619047626
998.579,126.11554285714291
1000.92,107.98140952380959
1003.25,100.42180476190482
1005.59,103.2934952380953
1007.92,102.78680000000006
1010.25,96.37712857142861
1012.58,84.73091428571433
1014.91,100.13286190476197
1017.24,112.67732857142865
1019.56,128.26803333333342
1021.88,148.3327714285715
1024.2,155.63209523809533
1026.52,142.26023809523818
1028.84,166.50166666666678
1031.16,184.3072380952382
1033.48,176.24676190476202
1035.79,183.98566666666676
1038.1,192.23614285714297
1040.41,212.23466666666684
1042.72,269.40847619047634
1045.03,288.6126190476192
1047.33,245.2734761904763
1049.64,213.5800952380954
1051.94,179.72047619047632
1054.24,191.88295238095253
1056.54,223.54180952380963
1058.84,212.50433333333345
1061.13,178.48233333333343
1063.43,181.85500000000013
1065.72,185.52461904761918
1068.01,211.29833333333346
1070.3,249.64971428571445
1072.59,253.48147619047634
1074.87,244.07642857142875
1077.16,250.48019047619067
1079.44,274.1663333333335
1081.72,311.9421428571431
1084.0,363.5667619047622
1086.28,411.3233333333336
1088.56,482.6380952380956
1090.84,588.937047619048
1093.11,688.2178571428576
1095.38,719.7160476190479
1097.65,666.2387142857145
1099.92,558.0689047619051
1102.19,474.4902380952384
1104.46,437.2140476190479
1106.72,423.285904761905
1108.98,427.89371428571457
1111.24,448.4637619047621
1113.5,466.136666666667
1115.76,497.8149523809527
1118.02,544.353285714286
1120.28,564.0829047619051
1122.53,552.0494761904765
1124.78,527.7266190476194
1127.03,475.44595238095263
1129.28,386.82428571428596
1131.53,347.28838095238115
1133.77,311.6935714285716
1136.02,256.94261904761925
1138.26,250.70023809523823
1140.5,252.3462380952382
1142.74,249.78328571428585
1144.98,270.20085714285733
1147.22,281.2638571428573
1149.45,269.11342857142876
1151.69,272.1296666666668
1153.92,243.64471428571443
1156.15,214.60961904761916
1158.38,201.7382380952382
1160.61,196.79104761904773
1162.83,190.91025714285723
1165.06,174.71442380952385
1167.28,136.63111428571435
1169.5,96.75534285714294
1171.72,99.37256190476198
1173.94,100.29205238095243
1176.16,103.84706666666672
1178.37,105.56151428571434
1180.58,79.14972380952383
1182.8,46.18359523809526
1185.01,33.663390476190486
1187.22,28.542217142857176
1189.42,27.106314761904784
1191.63,41.73767523809525
1193.84,21.722976190476192
1196.04,10.587173333333352
1198.24,23.902938095238127
1200.44,39.76692761904764
1202.64,41.990095714285744
1204.84,57.09787428571431
1207.03,46.901447619047644
1209.23,35.02162380952383
1211.42,26.603100000000012
1213.61,28.647780952380984
1215.8,37.53849523809527
1217.99,61.80104285714289
1220.18,51.38984285714287
1222.36,45.402209523809546
1224.55,30.55451428571432
1226.73,47.84911428571434
1228.91,71.28805238095244
1231.09,81.96886666666671
1233.27,77.08444761904767
1235.44,95.54180952380958
1237.62,102.77214285714292
1239.79,110.0161333333334
1241.96,116.03829523809529
1244.13,98.84091428571435
1246.3,98.56950476190485
1248.47,144.32198095238107
1250.64,173.0534761904763
1252.8,200.19538095238113
1254.96,242.75080952380966
1257.13,268.1028095238097
1259.29,291.7306666666668
1261.44,307.39919047619054
1263.6,260.6346666666668
1265.76,207.72580952380966
1267.91,186.43771428571438
1270.06,174.15404761904773
1272.22,174.25898095238102
1274.37,148.23138571428575
1276.51,119.0740095238096
1278.66,115.9325761904763
1280.81,131.00064285714294
1282.95,126.1383428571429
1285.09,100.5391285714286
1287.23,73.87230952380958
1289.37,73.95064285714294
1291.51,96.1577571428572
1293.65,111.11560952380958
1295.78,104.25551428571434
1297.92,104.15191428571435
1300.05,110.95036190476198
1302.18,131.41559047619057
1304.31,144.59805714285721
1306.44,165.11961904761915
1308.57,169.88752380952394
1310.69,187.09509523809535
1312.82,196.41133333333343
1314.94,201.98185714285725
1317.06,203.23776190476204
1319.18,213.89600000000013
1321.3,216.4829047619049
1323.41,230.28661904761924
1325.53,275.118523809524
1327.64,301.9337142857145
1329.75,304.5437142857145
1331.87,294.5700476190478
1333.98,286.491142857143
1336.08,288.26138095238116
1338.19,292.45385714285726
1340.3,278.3564761904763
1342.4,226.4949238095239
1344.5,158.53749523809535
1346.6,118.15280000000008
1348.7,126.96113333333344
1350.8,124.86907142857152
1352.9,134.5448952380953
1354.99,135.46607142857147
1357.09,111.34819047619054
1359.18,85.7164571428572
1361.27,86.28604761904768
1363.36,103.77234761904771
1365.45,131.03325714285725
1367.54,165.4983380952382
1369.62,204.50170476190488
1371.7,202.42476190476205
1373.79,211.9825714285716
1375.87,238.65128571428588
1377.95,266.9553809523811
1380.03,270.6568095238097
1382.1,279.7558571428573
1384.18,241.91885714285726
1386.25,213.52666666666678
1388.33,189.4358095238096
1390.4,163.93206666666674
1392.47,127.34781428571435
1394.54,99.34943809523814
1396.6,71.22160000000005
1398.67,74.1538190476191
1400.74,68.3829904761905
1402.8,68.47938571428575
1404.86,61.58447142857146
1406.92,70.55374761904767
1408.98,73.14756190476196
1411.04,80.79266190476194
1413.09,69.20137142857146
1415.15,67.41913333333338
1417.2,67.44389523809531
1419.25,101.60646666666673
1421.3,115.42813333333339
1423.35,123.19197619047625
1425.4,102.37149047619052
1427.45,70.29721428571432
1429.49,51.29974476190479
1431.54,30.47130904761907
1433.58,28.475337142857185
1435.62,60.16582428571432
1437.66,60.34902761904766
1439.7,68.54541190476193
1441.74,55.0848761904762
1443.77,33.48777714285717
1445.81,28.179154285714315
1447.84,38.203024761904786
1449.87,40.5557647619048
1451.9,49.709898095238124
1453.93,49.66167619047626
1455.96,91.26447619047626
1457.98,119.08592857142865
1460.01,131.6464857142858
1462.03,146.0850857142858
1464.05,181.96938095238107
1466.07,221.1050952380954
1468.09,304.8217619047621
1470.11,353.8772857142859
1472.13,372.60185714285734
1474.14,374.22971428571446
1476.16,372.900142857143
1478.17,351.56219047619066
1480.18,336.8790476190478
1482.19,283.4660952380953
1484.2,222.70114285714294
1486.21,180.8190857142858
1488.21,119.05458571428579
1490.22,104.35723809523816
1492.22,100.20002857142862
1494.22,98.9612190476191
1496.22,98.01885238095242
1498.22,108.75141428571432
1500.22,85.489580952381
1502.22,57.65980476190478
1504.21,49.73588000000004
1506.21,41.81119428571429
1508.2,21.264598095238114
1510.19,13.475339047619055
1512.18,21.775198095238103
1514.17,12.59132285714289
1516.16,27.541527619047642
1518.14,40.48185714285717
1520.13,51.36378095238099
1522.11,63.519820000000045
1524.09,68.37791523809526
1526.07,51.413711428571446
1528.05,36.15068952380955
1530.03,39.87429714285719
1532.01,54.679634285714336
1533.98,83.42382952380957
1535.96,80.77363809523813
1537.93,79.06251428571434
1539.9,75.3861047619048
1541.87,70.31626666666672
1543.84,76.09138571428578
1545.81,102.42656666666673
1547.78,101.3700571428572
1549.74,95.97019523809529
1551.7,109.32304761904771
1553.67,142.47706666666676
1555.63,184.8618666666668
1557.59,211.85976190476202
1559.55,198.85248571428582
1561.5,172.9842380952382
1563.46,154.06561904761915
1565.41,154.19319047619058
1567.37,166.84466666666677
1569.32,151.87866666666673
1571.27,146.62966666666676
1573.22,160.09938095238107
1575.17,138.00338095238104
1577.11,151.39114285714294
1579.06,160.2165714285715
1581.0,157.38600000000014
1582.95,171.51995238095247
1584.89,166.42971428571434
1586.83,152.68809523809534
1588.77,156.72590476190484
1590.7,136.11623809523817
1592.64,129.2890476190477
1594.58,127.7223095238096
1596.51,133.41766666666683
1598.44,148.0434523809526
