Raman Shift,Processed Intensity
331.095,44.984611666666524
333.909,-18.988672857142987
336.721,-30.86133142857146
339.531,-16.021229047619048
342.339,-9.356903333333355
345.145,-33.85117666666669
347.949,-22.88916333333332
350.751,-12.758770476190481
353.55,-2.698357142857147
356.348,7.103299047619037
359.144,-4.5406271428571525
361.937,-9.19596380952378
364.729,14.906674761904778
367.518,23.25296476190481
370.306,54.23518238095248
373.091,185.19967523809544
375.874,307.0660428571431
378.656,411.37455238095254
381.435,387.9529142857144
384.212,303.1070380952382
386.988,180.04891428571435
389.761,123.75409047619056
392.532,73.10449047619052
395.301,67.26916190476192
398.068,20.704430952380974
400.833,30.106370476190506
403.596,26.3626382857143
406.358,27.36251780952382
409.117,6.806172761904758
411.874,-5.414378285714299
414.629,-23.739180095238083
417.382,11.393207809523853
420.133,32.78334209523815
422.882,81.61388714285724
425.629,138.54507523809536
428.374,217.14291428571445
431.117,273.4506333333335
433.858,307.08432380952394
436.597,293.32714285714303
439.334,255.51076190476203
442.069,234.30133333333347
444.802,218.93690476190488
447.533,208.79928571428584
450.262,201.414142857143
452.989,233.59347619047637
455.714,278.1498095238097
458.438,292.89619047619055
461.159,271.40821904761924
463.878,196.5474571428572
466.595,143.70002857142867
469.31,111.06225238095246
472.024,125.64019047619055
474.735,128.44027142857152
477.444,154.70730476190482
480.152,147.30528095238105
482.857,190.9086380952382
485.561,224.28661904761918
488.262,248.3522380952382
490.962,262.6849047619049
493.659,238.38789523809533
496.355,184.2315380952382
499.048,137.51026666666675
501.74,105.80393809523815
504.43,98.21679047619058
507.118,124.99530000000009
509.804,155.10094285714297
512.488,187.92333333333343
515.17,214.61414285714295
517.85,208.99176190476203
520.528,207.39822857142866
523.204,170.55630000000008
525.878,130.8081238095239
528.551,118.54309047619056
531.221,119.10283809523817
533.89,97.11466666666672
536.556,105.44365714285719
539.221,72.71693809523813
541.883,65.22818095238101
544.544,60.0326285714286
547.203,73.23259047619052
549.86,72.88313809523814
552.515,72.61014761904765
555.168,83.89671904761913
557.819,127.41628095238103
560.469,128.22260476190485
563.116,143.6547476190477
565.761,150.0523095238096
568.405,146.563361904762
571.047,163.85991904761912
573.687,180.8042857142858
576.324,148.8771761904763
578.96,146.082761904762
581.594,133.56832857142865
584.227,135.5278857142858
586.857,141.10780476190484
589.485,125.12101428571432
592.112,94.71310476190484
594.737,88.12467142857147
597.359,55.21523809523813
599.98,49.843690476190524
602.599,75.05935238095243
605.216,82.95889047619053
607.831,95.54326190476195
610.445,98.2893666666667
613.056,54.53097380952383
615.666,43.077538095238154
618.274,75.59567857142864
620.88,89.37071904761912
623.484,108.97322619047625
626.086,133.97372380952388
628.686,134.79949523809535
631.284,153.5916523809525
633.881,179.30058095238104
636.476,161.0194761904763
639.068,125.50773809523815
641.659,128.66754285714296
644.249,128.21052380952386
646.836,120.22881428571434
649.421,96.38583333333335
652.005,55.91610000000002
654.587,29.91113333333338
657.166,48.176442857142895
659.745,57.80341809523812
662.321,50.311660952380954
664.895,34.64923142857144
667.468,12.049796190476219
670.038,36.17529809523815
672.607,57.783184761904806
675.174,68.29730857142862
677.739,87.52228571428579
680.303,125.54853809523817
682.864,130.2759000000001
685.424,146.93758571428577
687.982,119.29051904761906
690.538,78.28209047619052
693.092,68.66919523809528
695.645,53.01841428571429
698.195,39.610647619047654
700.744,38.15564285714286
703.291,13.124647619047643
705.836,37.56092380952385
708.38,42.697961904761904
710.921,25.817100000000032
713.461,45.914209523809554
715.999,51.41381428571432
718.535,51.169119047619105
721.069,78.50984761904766
723.602,100.52765238095245
726.133,97.17128571428577
728.662,86.77078571428575
731.189,64.56101904761907
733.714,45.63413333333336
736.238,26.225285714285757
738.759,58.14134761904766
741.279,65.6175285714286
743.798,50.841757142857176
746.314,61.0020428571429
748.829,53.61981904761908
751.342,65.97858095238102
753.853,82.07621428571433
756.362,90.1486571428572
758.869,95.14638571428577
761.375,118.40124761904768
763.879,109.19709047619054
766.381,108.29424761904767
768.882,87.02456190476195
771.38,54.62454761904764
773.877,47.616742857142896
776.372,39.71455238095241
778.866,48.86915714285719
781.357,75.60314571428577
783.847,84.05870047619051
786.335,62.6159247619048
788.821,67.6075328571429
791.306,39.12802952380956
793.789,74.0819100000001
796.27,117.27765047619056
798.749,136.5246857142858
801.227,149.25131904761915
803.702,169.17191428571437
806.176,161.0955238095239
808.649,170.3082857142858
811.119,152.76190476190487
813.588,138.45700000000008
816.055,152.96484761904773
818.521,146.90513333333342
820.984,142.56355238095244
823.446,134.416961904762
825.906,131.79898095238104
828.365,122.42480000000009
830.821,136.53251428571434
833.276,126.83761904761913
835.729,110.67400000000008
838.181,115.66128571428581
840.631,135.51461904761914
843.079,131.9015238095239
845.525,139.8230476190477
847.97,142.8041714285715
850.412,110.1317952380953
852.854,75.28299047619052
855.293,76.16354761904766
857.731,64.01285714285719
860.167,66.49896190476196
862.601,75.95628095238098
865.034,76.9102428571429
867.465,81.79062380952388
869.894,104.07496190476196
872.321,91.62192857142861
874.747,87.86156666666673
877.171,86.46213333333341
879.594,96.13956666666675
882.014,136.70493333333343
884.433,145.2073238095239
886.851,144.22004761904773
889.266,155.22071428571437
891.68,172.87809523809537
894.092,196.24123809523823
896.503,228.6929523809525
898.912,211.2824761904763
901.319,192.34514285714295
903.724,152.26361904761913
906.128,140.61138095238107
908.53,164.62804761904775
910.931,185.36347619047632
913.329,189.24780952380962
915.726,196.47347619047628
918.122,169.5662857142858
920.516,166.48033333333342
922.908,155.9318571428572
925.298,152.82790476190485
927.687,150.02695238095245
930.074,164.29321904761915
932.459,147.29518571428576
934.843,138.03473809523817
937.225,101.7519190476191
939.605,90.97248571428577
941.984,60.793323809523855
944.361,82.07380952380959
946.736,79.24427619047624
949.11,100.3540333333334
951.482,94.35754285714289
953.853,94.58992857142862
956.222,59.672104761904805
958.589,62.74874761904766
960.954,57.48829523809529
963.318,77.51140952380958
965.68,87.10575257142862
968.041,77.03487590476193
970.4,63.68144704761908
972.757,62.90424695238098
975.113,46.27639942857145
977.467,23.609018761904785
979.819,52.189524000000034
982.17,39.25739523809528
984.519,62.2429190476191
986.866,78.05206666666669
989.212,72.68656190476194
991.556,86.09978571428582
993.899,130.2932952380953
996.24,139.64928095238105
998.579,179.59781904761914
1000.92,165.71108571428582
1003.25,139.46674285714295
1005.59,134.3414857142858
1007.92,124.86055238095247
1010.25,136.16769523809535
1012.58,159.35912857142864
1014.91,141.57842380952388
1017.24,118.11218571428577
1019.56,88.05627619047624
1021.88,57.45930952380958
1024.2,89.55972380952389
1026.52,128.07256190476198
1028.84,168.569842857143
1031.16,204.90944761904774
1033.48,210.0440761904763
1035.79,188.59333333333345
1038.1,192.74780952380962
1040.41,209.03171428571443
1042.72,245.0642857142859
1045.03,283.2747619047621
1047.33,287.5202857142858
1049.64,263.9442380952382
1051.94,224.26080952380966
1054.24,183.18433333333346
1056.54,165.5719523809525
1058.84,167.18595238095247
1061.13,162.31195238095248
1063.43,168.80685714285727
1065.72,173.67080952380962
1068.01,174.66547619047628
1070.3,189.74304761904773
1072.59,199.42728571428586
1074.87,217.00376190476206
1077.16,245.28152380952395
1079.44,251.6892857142859
1081.72,278.13157142857165
1084.0,324.4171428571431
1086.28,375.5458571428574
1088.56,524.2790000000005
1090.84,659.1400952380957
1093.11,749.1287142857148
1095.38,760.9113333333337
1097.65,691.1537619047623
1099.92,565.7129523809526
1102.19,470.7784285714288
1104.46,377.11190476190495
1106.72,337.33157142857164
1108.98,313.3417619047621
1111.24,325.4273809523812
1113.5,388.82590476190506
1115.76,449.8698571428574
1118.02,523.5589047619052
1120.28,568.3206190476194
1122.53,568.9639523809527
1124.78,518.5832857142859
1127.03,468.36828571428595
1129.28,397.8417142857145
1131.53,343.71723809523826
1133.77,290.6608095238097
1136.02,245.8619047619049
1138.26,212.65333333333348
1140.5,211.93885714285727
1142.74,209.57438095238106
1144.98,216.74976190476207
1147.22,250.65442857142875
1149.45,251.62066666666684
1151.69,254.69547619047637
1153.92,238.40145714285725
1156.15,186.07095714285722
1158.38,126.60798571428579
1160.61,119.53529142857151
1162.83,78.99468428571433
1165.06,74.93754952380957
1167.28,67.17226333333336
1169.5,45.07884952380955
1171.72,36.227689047619094
1173.94,67.9037866666667
1176.16,67.43912857142863
1178.37,62.213714285714325
1180.58,71.70258571428575
1182.8,48.90482380952383
1185.01,46.48610476190482
1187.22,63.30270000000004
1189.42,62.496319047619075
1191.63,59.11364952380957
1193.84,57.77266857142858
1196.04,46.52015619047622
1198.24,42.069431428571455
1200.44,47.75291809523813
1202.64,54.569754285714325
1204.84,68.37624000000002
1207.03,57.171528571428595
1209.23,47.4786761904762
1211.42,36.487366666666695
1213.61,33.19688095238098
1215.8,41.17794761904765
1217.99,49.19183333333335
1220.18,30.23791428571429
1222.36,25.648990476190505
1224.55,35.472166666666695
1226.73,49.56410000000004
1228.91,57.44816666666669
1231.09,47.124033333333344
1233.27,43.35312380952385
1235.44,51.9924428571429
1237.62,59.23220476190482
1239.79,74.40526190476194
1241.96,114.89258095238102
1244.13,122.83677142857152
1246.3,143.47546666666676
1248.47,143.09454285714293
1250.64,154.93167619047628
1252.8,146.60575714285724
1254.96,160.21233333333342
1257.13,150.17961428571436
1259.29,136.7930571428572
1261.44,147.5291000000001
1263.6,187.101742857143
1265.76,196.8441904761906
1267.91,204.04257142857153
1270.06,206.1729523809525
1272.22,202.61604761904775
1274.37,208.80090476190486
1276.51,213.7749523809525
1278.66,219.8716190476192
1280.81,237.75776190476205
1282.95,240.62395238095255
1285.09,248.13695238095255
1287.23,248.34471428571442
1289.37,237.58052380952392
1291.51,204.32090476190487
1293.65,184.8992857142858
1295.78,144.74442857142864
1297.92,160.809142857143
1300.05,188.71252380952393
1302.18,213.9311904761906
1304.31,213.1794285714287
1306.44,219.79133333333345
1308.57,224.48114285714306
1310.69,259.10623809523827
1312.82,297.0477142857145
1314.94,306.8300952380954
1317.06,297.2629523809526
1319.18,282.442523809524
1321.3,297.60666666666685
1323.41,316.94633333333354
1325.53,378.5571428571431
1327.64,433.534666666667
1329.75,479.11742857142895
1331.87,505.5917142857146
1333.98,497.0055714285717
1336.08,477.740285714286
1338.19,470.12990476190504
1340.3,449.8885714285717
1342.4,434.54085714285736
1344.5,408.0395714285716
1346.6,373.480523809524
1348.7,357.81633333333355
1350.8,336.7145714285716
1352.9,303.0326190476192
1354.99,287.67571428571443
1357.09,281.64442857142876
1359.18,302.2249523809526
1361.27,336.46514285714306
1363.36,366.41342857142877
1365.45,388.4037142857145
1367.54,395.72209523809545
1369.62,407.75009523809547
1371.7,411.2503333333336
1373.79,412.60371428571455
1375.87,409.4778571428574
1377.95,422.20661904761937
1380.03,431.0286666666669
1382.1,434.51609523809555
1384.18,435.0024285714288
1386.25,395.3929523809525
1388.33,346.5457142857145
1390.4,311.5086190476192
1392.47,285.8060476190478
1394.54,251.29595238095254
1396.6,255.26419047619066
1398.67,243.94966666666684
1400.74,258.6860952380954
1402.8,273.6168571428573
1404.86,288.40923809523827
1406.92,263.0161904761906
1408.98,245.96209523809537
1411.04,230.43804761904775
1413.09,230.58700000000013
1415.15,218.55271428571444
1417.2,234.47833333333347
1419.25,228.93595238095253
1421.3,231.25947619047633
1423.35,250.63980952380965
1425.4,255.26776190476204
1427.45,247.1915714285716
1429.49,219.60214285714295
1431.54,197.11923809523822
1433.58,191.457761904762
1435.62,194.7607142857144
1437.66,222.69523809523824
1439.7,251.07128571428584
1441.74,242.27023809523826
1443.77,232.10200000000012
1445.81,221.51985714285726
1447.84,207.00019047619062
1449.87,229.44823809523825
1451.9,247.00714285714304
1453.93,249.5342857142859
1455.96,228.172761904762
1457.98,219.7804285714287
1460.01,214.73871428571442
1462.03,225.667142857143
1464.05,253.3276190476192
1466.07,272.2921904761906
1468.09,291.37038095238114
1470.11,301.8006666666668
1472.13,287.72638095238113
1474.14,273.7193333333335
1476.16,275.0177142857145
1478.17,261.95523809523826
1480.18,255.62700000000012
1482.19,226.89077142857153
1484.2,168.22293809523816
1486.21,136.2426380952382
1488.21,114.85501904761912
1490.22,81.96480952380958
1492.22,94.23893333333342
1494.22,102.67770952380958
1496.22,90.42389047619055
1498.22,115.8109571428572
1500.22,110.791380952381
1502.22,93.98427619047627
1504.21,79.86603809523814
1506.21,82.24618571428577
1508.2,80.93421428571435
1510.19,102.35887142857149
1512.18,95.0914028571429
1514.17,67.32230761904763
1516.16,39.242022857142885
1518.14,23.660128571428586
1520.13,34.86216952380956
1522.11,37.8956461904762
1524.09,43.71286285714288
1526.07,28.123166190476212
1528.05,47.745604761904794
1530.03,51.96086523809529
1532.01,77.14975333333338
1533.98,67.21685238095242
1535.96,66.49533333333336
1537.93,53.937433333333374
1539.9,65.44785238095243
1541.87,66.55010000000003
1543.84,50.95826666666669
1545.81,48.00557619047623
1547.78,54.59644761904767
1549.74,83.30223809523817
1551.7,119.12246190476196
1553.67,127.72376666666673
1555.63,109.86785714285719
1557.59,98.64970952380958
1559.55,95.21185714285723
1561.5,119.22097619047628
1563.46,139.676561904762
1565.41,149.0546952380953
1567.37,126.73597142857147
1569.32,105.57699047619055
1571.27,89.67283809523815
1573.22,115.11866666666674
1575.17,113.62857619047625
1577.11,135.91655238095245
1579.06,124.74412380952387
1581.0,130.06319047619056
1582.95,119.0163571428572
1584.89,121.222380952381
1586.83,87.2524333333334
1588.77,101.91582857142865
1590.7,96.0216476190477
1592.64,124.7123238095239
1594.58,151.2495261904762
1596.51,166.01394761904763
1598.44,157.33865476190476
