Raman Shift,Processed Intensity
331.095,13.95222380952374
333.909,-39.6688761904762
336.721,-65.62996190476188
339.531,-67.65516666666669
342.339,-46.44553333333333
345.145,-6.105847619047626
347.949,5.7855904761904675
350.751,-14.299866666666686
353.55,-11.745923809523802
356.348,-0.17239999999998634
359.144,4.326804761904773
361.937,13.088290476190512
364.729,55.54604285714292
367.518,99.99321904761918
370.306,182.48661428571447
373.091,289.2278666666669
375.874,359.46823809523835
378.656,399.41280952380976
381.435,392.3166190476192
384.212,319.4838095238096
386.988,221.22037142857153
389.761,135.35753809523817
392.532,106.44287809523817
395.301,83.59646380952384
398.068,60.32141333333337
400.833,51.931702857142895
403.596,61.838439047619076
406.358,56.16813000000003
409.117,46.38250095238094
411.874,8.99200047619047
414.629,-16.872219999999984
417.382,6.208066190476252
420.133,54.55725428571436
422.882,118.88189523809535
425.629,188.79505238095254
428.374,252.57718095238113
431.117,312.9860000000002
433.858,353.59009523809544
436.597,370.43504761904785
439.334,341.42490476190494
442.069,303.274142857143
444.802,239.22161904761916
447.533,217.88809523809542
450.262,206.03800000000018
452.989,269.2457142857145
455.714,306.6584285714288
458.438,337.47071428571445
461.159,308.6403333333335
463.878,275.41109523809536
466.595,197.74138095238106
469.31,174.8284761904763
472.024,163.63180952380964
474.735,164.96828571428583
477.444,174.56004761904774
480.152,194.70090476190487
482.857,216.30404761904776
485.561,234.1401904761906
488.262,252.3609047619049
490.962,227.21361904761912
493.659,222.56447619047634
496.355,204.9943333333335
499.048,214.08419047619063
501.74,189.03395238095248
504.43,180.61519047619055
507.118,155.59976190476203
509.804,177.7589047619049
512.488,216.76871428571445
515.17,265.8296666666668
517.85,271.7604285714287
520.528,246.61842857142864
523.204,198.69853333333342
525.878,146.4860714285715
528.551,115.51384761904768
531.221,83.60059523809528
533.89,82.94522857142864
536.556,97.27084285714294
539.221,128.63315238095245
541.883,135.8024952380953
544.544,160.21554285714296
547.203,144.07036666666673
549.86,126.08869047619055
552.515,121.0870714285715
555.168,128.64408095238105
557.819,144.1950047619049
560.469,182.7465095238096
563.116,188.44730476190483
565.761,160.39842857142867
568.405,152.51023809523818
571.047,148.5022857142858
573.687,140.09385714285722
576.324,154.099380952381
578.96,149.42765238095245
581.594,121.51117619047626
584.227,130.30602380952388
586.857,115.529780952381
589.485,102.47120476190484
592.112,117.3713428571429
594.737,93.37531904761909
597.359,76.34217619047625
599.98,88.46443333333339
602.599,97.07672380952388
605.216,113.65639523809531
607.831,126.7284190476191
610.445,116.2928952380953
613.056,99.1119714285715
615.666,98.94800000000006
618.274,107.13353809523814
620.88,82.76330476190482
623.484,79.02720476190481
626.086,84.49508571428578
628.686,97.64194761904771
631.284,141.51398095238105
633.881,196.44218095238108
636.476,210.90080952380964
639.068,205.1258095238096
641.659,171.11447619047627
644.249,154.3880000000001
646.836,159.41978095238107
649.421,151.82548095238104
652.005,123.64964285714291
654.587,97.12692857142862
657.166,85.0631952380953
659.745,62.40732857142861
662.321,79.29853809523813
664.895,51.25678571428573
667.468,24.135338095238133
670.038,42.358938095238145
672.607,66.30459047619051
675.174,70.73021428571435
677.739,94.3462190476191
680.303,105.95822857142863
682.864,97.51459047619052
685.424,89.86854761904766
687.982,83.44469047619052
690.538,51.096238095238114
693.092,39.34323809523814
695.645,48.99145238095241
698.195,49.179973333333365
700.744,40.80989190476192
703.291,39.78240285714285
705.836,3.094001428571435
708.38,1.7412438095238238
710.921,4.76838714285716
713.461,26.41023619047622
715.999,47.94925619047623
718.535,67.04894952380957
721.069,80.42047619047625
723.602,97.58456666666672
726.133,86.30012857142862
728.662,82.75470000000003
731.189,77.75489523809527
733.714,64.96454285714289
736.238,43.333219047619075
738.759,36.001047619047654
741.279,35.060366666666724
743.798,102.36597428571439
746.314,136.20089571428576
748.829,132.8483247619048
751.342,96.06766619047619
753.853,50.28504857142859
756.362,12.164600476190524
758.869,46.89477904761908
761.375,56.90174761904766
763.879,60.89765714285718
766.381,57.83269047619051
768.882,79.08588571428577
771.38,73.98839457142861
773.877,65.5859183809524
776.372,39.447992595238105
778.866,23.144245428571452
781.357,7.244343547619084
783.847,46.22301552380957
786.335,73.31654230952385
788.821,97.9994602380953
791.306,106.9372714285715
793.789,129.6520761904763
796.27,133.19022857142866
798.749,137.550561904762
801.227,145.54128571428578
803.702,151.16152380952389
806.176,144.98176190476198
808.649,148.38173333333341
811.119,119.78909047619054
813.588,126.72684761904773
816.055,146.86095714285725
818.521,159.33358095238106
820.984,146.906061904762
823.446,147.29215238095244
825.906,116.2058857142858
828.365,117.50399047619055
830.821,144.13906666666676
833.276,157.87216190476198
835.729,147.798761904762
838.181,150.6806476190477
840.631,121.61336190476194
843.079,87.16829523809531
845.525,91.77466666666672
847.97,90.38480476190482
850.412,74.66597619047621
852.854,70.47587619047623
855.293,49.38663809523813
857.731,53.113066666666725
860.167,80.98951428571434
862.601,95.01690476190481
865.034,97.52959523809528
867.465,87.05250952380955
869.894,42.01545714285716
872.321,25.800476190476218
874.747,36.409142857142896
877.171,62.17619523809532
879.594,106.43683809523816
882.014,142.0971571428572
884.433,127.39740952380959
886.851,148.57733333333346
889.266,167.35314285714298
891.68,172.250761904762
894.092,195.8916666666668
896.503,205.32533333333342
898.912,181.74461904761915
901.319,171.34219047619055
903.724,157.54895238095247
906.128,135.2244761904763
908.53,141.70466666666678
910.931,171.94476190476203
913.329,198.61376190476201
915.726,199.0475238095239
918.122,202.6771904761906
920.516,190.36251428571435
922.908,143.34427619047625
925.298,131.8637714285715
927.687,108.6377571428572
930.074,97.66871904761912
932.459,83.95949047619052
934.843,75.79850000000005
937.225,71.80772857142863
939.605,80.89469047619053
941.984,91.96669047619055
944.361,92.4074285714286
946.736,75.07674285714289
949.11,63.21539523809527
951.482,49.68332380952384
953.853,51.10205238095243
956.222,69.56940000000003
958.589,54.32605238095242
960.954,66.1839190476191
963.318,89.28825714285718
965.68,81.1178190476191
968.041,94.7702028571429
970.4,78.00956238095239
972.757,50.98098190476195
975.113,42.59120904761908
977.467,57.50891523809528
979.819,54.1172147619048
982.17,64.51316000000004
984.519,90.84156190476199
986.866,98.38976190476195
989.212,102.20695714285722
991.556,137.81869523809533
993.899,151.1310095238096
996.24,150.28841428571437
998.579,167.7206761904763
1000.92,151.9528095238096
1003.25,150.7002380952382
1005.59,167.67844761904772
1007.92,162.17392380952387
1010.25,131.14017142857148
1012.58,91.57761428571433
1014.91,82.34430476190482
1017.24,103.77394000000007
1019.56,97.10509714285719
1021.88,87.24311333333338
1024.2,90.71202666666673
1026.52,86.13081333333342
1028.84,130.21404952380965
1031.16,195.4378400000001
1033.48,201.70671428571438
1035.79,196.49700000000013
1038.1,233.47476190476203
1040.41,267.87766666666687
1042.72,311.41966666666684
1045.03,335.6713809523812
1047.33,308.48923809523825
1049.64,242.72990476190486
1051.94,203.44004761904773
1054.24,191.85709523809533
1056.54,175.26576190476203
1058.84,195.5219523809525
1061.13,200.52928571428583
1063.43,208.42957142857156
1065.72,228.65028571428587
1068.01,230.52338095238107
1070.3,203.66633333333345
1072.59,211.12580952380964
1074.87,191.94776190476205
1077.16,191.22576190476207
1079.44,240.24423809523825
1081.72,266.7158571428573
1084.0,296.114904761905
1086.28,372.4876190476193
1088.56,482.26109523809566
1090.84,604.2902857142861
1093.11,704.2879047619052
1095.38,715.5380952380956
1097.65,649.6577142857145
1099.92,530.9308571428575
1102.19,427.5462380952383
1104.46,362.35900000000015
1106.72,337.79590476190504
1108.98,339.759904761905
1111.24,395.53438095238124
1113.5,451.64147619047645
1115.76,521.650666666667
1118.02,571.1315714285718
1120.28,581.6537619047622
1122.53,550.5011428571431
1124.78,498.52847619047645
1127.03,426.495904761905
1129.28,371.16366666666687
1131.53,318.8153809523812
1133.77,296.40166666666687
1136.02,288.0637619047621
1138.26,270.60919047619063
1140.5,274.27442857142876
1142.74,263.5336190476192
1144.98,258.6708571428573
1147.22,271.01757142857156
1149.45,257.38157142857153
1151.69,239.3330000000001
1153.92,245.29885714285732
1156.15,214.13447619047628
1158.38,184.02919047619056
1160.61,153.93355238095245
1162.83,105.79842857142862
1165.06,71.09890952380958
1167.28,75.9765047619048
1169.5,70.00139047619052
1171.72,77.41056190476196
1173.94,86.4885428571429
1176.16,75.7104428571429
1178.37,60.40863333333336
1180.58,59.01074571428575
1182.8,35.51596952380954
1185.01,31.971158095238124
1187.22,40.75658285714289
1189.42,45.728762857142875
1191.63,49.60145142857146
1193.84,40.70754428571429
1196.04,18.903840000000017
1198.24,8.76150142857145
1200.44,35.13770666666671
1202.64,61.55607476190481
1204.84,76.06426761904764
1207.03,61.56720952380954
1209.23,53.68420952380955
1211.42,38.272829523809555
1213.61,30.333731904761926
1215.8,42.34356380952382
1217.99,29.35069190476191
1220.18,7.736844761904781
1222.36,24.979165238095266
1224.55,41.364414285714304
1226.73,35.655663333333365
1228.91,45.47320761904763
1231.09,27.342241428571427
1233.27,18.883212380952415
1235.44,21.81196333333335
1237.62,39.892008571428605
1239.79,47.17269523809527
1241.96,56.465280952381
1244.13,77.77151904761911
1246.3,94.56959047619051
1248.47,89.76623333333339
1250.64,98.17289047619053
1252.8,86.88691904761909
1254.96,92.52956666666675
1257.13,119.53138571428579
1259.29,128.0375333333334
1261.44,124.00255238095247
1263.6,141.85699047619056
1265.76,118.93646190476197
1267.91,136.1482095238096
1270.06,144.4943952380953
1272.22,152.59659047619056
1274.37,131.02841428571435
1276.51,124.79186666666672
1278.66,112.74647619047627
1280.81,120.13278571428579
1282.95,109.57207142857152
1285.09,121.78088095238103
1287.23,116.09454761904769
1289.37,114.8487952380953
1291.51,119.99806666666672
1293.65,112.68735238095243
1295.78,75.7758285714286
1297.92,52.31291428571432
1300.05,40.7767666666667
1302.18,59.40774285714292
1304.31,80.06475238095246
1306.44,132.6540095238096
1308.57,177.55843333333345
1310.69,180.39858095238105
1312.82,163.1762095238096
1314.94,162.41656190476198
1317.06,163.97849523809535
1319.18,195.4342952380954
1321.3,235.3096761904763
1323.41,259.74842857142875
1325.53,295.08528571428593
1327.64,342.035904761905
1329.75,383.31547619047643
1331.87,420.63952380952406
1333.98,421.91385714285735
1336.08,419.1868571428574
1338.19,419.6024761904764
1340.3,389.97114285714304
1342.4,338.0551428571431
1344.5,273.99876190476203
1346.6,244.23090476190492
1348.7,219.60971428571446
1350.8,223.80223809523824
1352.9,214.80923809523821
1354.99,201.3450476190477
1357.09,165.12495238095252
1359.18,214.673142857143
1361.27,230.0373809523811
1363.36,262.5990952380954
1365.45,273.3111904761907
1367.54,277.3639047619049
1369.62,265.6626190476192
1371.7,306.5886190476192
1373.79,325.427142857143
1375.87,357.2741904761907
1377.95,360.46266666666685
1380.03,357.4690476190478
1382.1,340.1028095238097
1384.18,322.8879047619049
1386.25,310.0620000000002
1388.33,294.76780952380966
1390.4,238.10038095238107
1392.47,210.34538095238105
1394.54,171.97885714285724
1396.6,143.71461904761912
1398.67,148.40961904761915
1400.74,162.77776190476197
1402.8,141.15190476190486
1404.86,147.91280952380959
1406.92,137.7744761904763
1408.98,135.30738095238104
1411.04,144.3682857142858
1413.09,153.67119047619056
1415.15,141.54842857142864
1417.2,155.14300000000011
1419.25,169.4062857142858
1421.3,178.52825714285723
1423.35,165.8888857142858
1425.4,127.48771428571433
1427.45,96.94275238095244
1429.49,88.63466190476197
1431.54,91.4196857142858
1433.58,106.53520476190484
1435.62,116.07541904761914
1437.66,125.70658571428582
1439.7,155.52265714285724
1441.74,191.1895238095239
1443.77,195.56357142857152
1445.81,185.1200000000001
1447.84,192.9054761904763
1449.87,186.5383809523811
1451.9,166.6365238095239
1453.93,163.10380952380962
1455.96,161.65342857142866
1457.98,148.85590476190487
1460.01,170.75780952380964
1462.03,175.6912857142858
1464.05,200.5125714285716
1466.07,232.55395238095255
1468.09,264.1952857142859
1470.11,272.1974285714287
1472.13,276.55947619047635
1474.14,252.94647619047632
1476.16,262.54795238095255
1478.17,246.22000000000006
1480.18,196.77119047619058
1482.19,156.62880952380962
1484.2,124.45852380952387
1486.21,97.63984761904769
1488.21,93.50503809523815
1490.22,97.91021904761911
1492.22,113.18747619047626
1494.22,108.19266666666671
1496.22,89.21042857142864
1498.22,95.66824761904768
1500.22,83.42200476190483
1502.22,83.422880952381
1504.21,94.71725714285718
1506.21,71.35163809523812
1508.2,47.03909523809527
1510.19,52.25467619047622
1512.18,38.28290000000002
1514.17,29.408357142857163
1516.16,44.58203809523813
1518.14,63.279190476190514
1520.13,60.641485714285736
1522.11,51.4772904761905
1524.09,30.309271428571442
1526.07,27.422023809523857
1528.05,52.004766666666725
1530.03,82.4852047619048
1532.01,75.43370000000002
1533.98,61.468309523809545
1535.96,43.68325238095241
1537.93,60.74447142857148
1539.9,69.46039047619051
1541.87,61.87772380952384
1543.84,62.66251428571434
1545.81,85.33746190476197
1547.78,94.80662380952387
1549.74,135.73590000000007
1551.7,173.41039047619057
1553.67,169.35309523809534
1555.63,159.84923809523818
1557.59,142.51700000000005
1559.55,131.9748095238096
1561.5,139.93609523809533
1563.46,167.30561904761913
1565.41,172.08257142857153
1567.37,162.55195238095246
1569.32,149.99933333333345
1571.27,163.80476190476202
1573.22,179.3964761904763
1575.17,201.6790000000001
1577.11,204.84209523809537
1579.06,189.50461904761914
1581.0,179.8567142857144
1582.95,167.18347619047628
1584.89,157.1514761904763
1586.83,152.1890476190477
1588.77,142.81947619047628
1590.7,142.13833333333343
1592.64,161.24009523809534
1594.58,181.3626666666666
1596.51,186.3390238095237
1598.44,162.33549999999985
