Raman Shift,Processed Intensity
331.095,57.61574476190435
333.909,-45.480896428571725
336.721,-72.66204142857163
339.531,-56.32234523809525
342.339,-48.35734380952383
345.145,-25.80423047619052
347.949,-45.67295904761907
350.751,-53.06631428571431
353.55,-50.846247619047645
356.348,-43.96732857142858
359.144,-24.333871428571417
361.937,-5.847495238095216
364.729,31.925923809523873
367.518,86.70882857142868
370.306,167.0832095238097
373.091,308.4906095238098
375.874,418.0417523809526
378.656,456.3726666666669
381.435,422.36009523809537
384.212,328.6446666666668
386.988,228.67851428571439
389.761,165.58224285714294
392.532,115.4786952380953
395.301,85.53945714285717
398.068,59.12904285714289
400.833,39.089619047619074
403.596,30.836414285714305
406.358,39.88123333333338
409.117,52.975728571428604
411.874,46.06337619047621
414.629,32.660447619047645
417.382,60.99891904761911
420.133,68.7881333333334
422.882,123.88145238095251
425.629,193.2289142857144
428.374,242.8291619047621
431.117,302.967104761905
433.858,370.024723809524
436.597,370.9556190476192
439.334,329.9049047619049
442.069,284.82861904761916
444.802,233.87357142857155
447.533,215.32995238095253
450.262,243.48919047619066
452.989,311.0713809523812
455.714,320.9402857142859
458.438,308.96023809523825
461.159,270.1867142857144
463.878,197.8182380952382
466.595,162.76814285714295
469.31,156.75985714285724
472.024,158.37419047619056
474.735,170.14438095238106
477.444,201.36652380952395
480.152,206.14547619047627
482.857,194.30133333333345
485.561,195.89242857142872
488.262,205.92966666666678
490.962,211.37638095238108
493.659,220.5294761904763
496.355,204.06619047619057
499.048,174.7596666666668
501.74,171.76414285714296
504.43,167.2811904761906
507.118,180.56014285714298
509.804,193.61185714285727
512.488,236.35200000000015
515.17,259.2200952380954
517.85,264.5129523809525
520.528,242.8603238095239
523.204,186.4631333333334
525.878,119.76021904761912
528.551,111.09515238095244
531.221,102.66814285714294
533.89,109.01289047619056
536.556,115.66287142857148
539.221,96.86537619047624
541.883,68.96308571428575
544.544,78.9169952380953
547.203,94.92624761904767
549.86,101.85623333333339
552.515,116.09596666666675
555.168,137.17695714285722
557.819,143.48734285714295
560.469,140.55800952380957
563.116,131.82435238095243
565.761,110.91206190476197
568.405,112.2556857142858
571.047,133.43249047619057
573.687,132.20956666666672
576.324,97.21121428571432
578.96,66.63236190476194
581.594,39.287228571428614
584.227,53.322228571428624
586.857,74.93170952380957
589.485,94.9762333333334
592.112,99.22040190476194
594.737,82.38099952380955
597.359,42.603027619047644
599.98,52.41199571428575
602.599,63.19032285714291
605.216,82.17729000000006
607.831,80.70667333333336
610.445,81.20755904761907
613.056,35.44154000000003
615.666,61.83708476190484
618.274,108.96431238095246
620.88,126.29839428571437
623.484,130.88558761904773
626.086,142.2477447619048
628.686,134.23977142857154
631.284,173.76388571428586
633.881,184.4835523809525
636.476,191.82419047619058
639.068,175.7825714285715
641.659,144.02119047619058
644.249,145.1074095238096
646.836,148.60796190476196
649.421,108.70871428571435
652.005,93.4045428571429
654.587,60.54758095238098
657.166,31.13224285714289
659.745,35.39091904761909
662.321,54.889133333333376
664.895,61.09700952380956
667.468,59.15113809523813
670.038,65.90219047619053
672.607,75.62956190476197
675.174,102.04065238095245
677.739,116.70013333333338
680.303,126.1250190476191
682.864,120.5940333333334
685.424,122.38590000000006
687.982,97.54145714285718
690.538,91.10092857142861
693.092,70.24797619047624
695.645,67.11849523809529
698.195,80.37226190476197
700.744,100.145180952381
703.291,80.19237142857148
705.836,96.50705238095242
708.38,52.32087142857144
710.921,35.818123809523854
713.461,42.18299047619051
715.999,57.5524333333334
718.535,87.01569523809533
721.069,138.47202857142864
723.602,124.10676190476197
726.133,134.4865714285715
728.662,119.79669047619055
731.189,97.98500476190483
733.714,88.33240476190483
736.238,83.73954761904767
738.759,90.5834476190477
741.279,110.95528095238103
743.798,130.04169523809531
746.314,145.45832380952388
748.829,121.91590000000005
751.342,94.69708571428578
753.853,98.2749095238096
756.362,100.21811428571436
758.869,110.57159523809531
761.375,124.0946952380953
763.879,124.49947619047626
766.381,112.11680000000007
768.882,132.56375238095245
771.38,142.2195714285715
773.877,152.84413333333345
776.372,149.10260476190484
778.866,145.1840857142858
781.357,120.94461428571435
783.847,112.76405714285721
786.335,112.59357619047627
788.821,153.24174285714295
791.306,170.32695238095246
793.789,192.94395238095248
796.27,185.85438095238106
798.749,179.58161904761914
801.227,179.4112380952382
803.702,190.3904761904763
806.176,197.04357142857154
808.649,195.18033333333346
811.119,184.75309523809534
813.588,201.8579047619049
816.055,209.20928571428584
818.521,200.0935238095239
820.984,211.46419047619057
823.446,189.32190476190485
825.906,179.2392857142858
828.365,171.9318571428572
830.821,149.8765714285715
833.276,144.02728571428582
835.729,157.90919047619056
838.181,179.90466666666677
840.631,188.34900000000007
843.079,170.91042857142867
845.525,165.7332857142858
847.97,160.96233333333345
850.412,145.93295238095246
852.854,148.17102380952386
855.293,111.82166666666672
857.731,81.98226190476197
860.167,87.27404761904768
862.601,84.27060000000006
865.034,97.73632380952387
867.465,87.19747142857146
869.894,70.75194285714291
872.321,74.97383333333339
874.747,98.38952380952388
877.171,105.52532380952387
879.594,142.0510095238096
882.014,137.63585714285722
884.433,162.187761904762
886.851,172.23338095238105
889.266,202.10900000000015
891.68,210.62723809523823
894.092,232.93400000000014
896.503,223.55609523809537
898.912,208.16357142857152
901.319,174.37861904761914
903.724,147.68057142857154
906.128,135.02519047619057
908.53,167.60595238095252
910.931,195.9979047619049
913.329,214.9664761904763
915.726,225.70538095238106
918.122,194.93190476190483
920.516,165.74495238095247
922.908,157.29100000000008
925.298,146.23988571428583
927.687,117.21439047619054
930.074,105.21784761904767
932.459,73.44411428571432
934.843,45.56348095238098
937.225,32.91290952380955
939.605,44.59075714285717
941.984,26.457838095238124
944.361,58.56535714285719
946.736,51.77378095238096
949.11,49.943714285714336
951.482,47.36434761904765
953.853,56.27722857142861
956.222,52.733376190476235
958.589,72.97444761904764
960.954,41.52746190476193
963.318,55.96726666666672
965.68,57.34469047619052
968.041,65.42484761904767
970.4,76.972580952381
972.757,107.4674190476191
975.113,91.15021428571434
977.467,89.59530952380956
979.819,76.32912380952384
982.17,37.97332380952383
984.519,32.33966666666673
986.866,73.04981904761911
989.212,113.86770952380962
991.556,155.31899523809534
993.899,201.83435238095245
996.24,203.60557142857152
998.579,202.91995238095248
1000.92,202.39820000000012
1003.25,179.1843190476191
1005.59,146.61266666666674
1007.92,112.06542380952386
1010.25,91.39998095238101
1012.58,99.04590952380961
1014.91,118.7184952380953
1017.24,132.84641904761912
1019.56,131.7634190476191
1021.88,105.66020952380958
1024.2,98.48884761904768
1026.52,95.20220952380959
1028.84,99.18105714285724
1031.16,134.23477142857152
1033.48,164.2674285714287
1035.79,170.61209523809532
1038.1,207.7919523809525
1040.41,249.4734285714287
1042.72,265.5602380952383
1045.03,287.9563809523811
1047.33,275.1369523809525
1049.64,211.3389523809525
1051.94,163.46638095238103
1054.24,140.47052380952388
1056.54,117.63585714285723
1058.84,134.57971428571437
1061.13,144.34866666666673
1063.43,143.65519047619057
1065.72,149.35509523809532
1068.01,170.73285714285726
1070.3,170.88185714285723
1072.59,179.37152380952392
1074.87,167.81942857142866
1077.16,187.08052380952395
1079.44,204.77223809523827
1081.72,251.9882380952383
1084.0,285.34509523809544
1086.28,348.26928571428596
1088.56,432.90185714285747
1090.84,579.145285714286
1093.11,664.2834761904766
1095.38,691.2190000000004
1097.65,628.4257619047621
1099.92,508.2348095238098
1102.19,402.1201428571431
1104.46,349.2223809523812
1106.72,341.348523809524
1108.98,367.40123809523834
1111.24,398.37819047619075
1113.5,431.18185714285744
1115.76,486.6193809523813
1118.02,523.8789523809527
1120.28,559.7201428571432
1122.53,549.2838095238099
1124.78,501.3290952380955
1127.03,445.5203809523812
1129.28,400.95033333333356
1131.53,329.14071428571447
1133.77,290.5180000000002
1136.02,259.7940952380954
1138.26,238.63328571428588
1140.5,232.89052380952393
1142.74,231.1826190476192
1144.98,208.2693809523811
1147.22,222.91042857142872
1149.45,251.67490476190494
1151.69,247.6086666666668
1153.92,233.04289523809535
1156.15,182.83299047619053
1158.38,134.21498095238104
1160.61,125.37725714285722
1162.83,108.17503809523816
1165.06,91.17801428571434
1167.28,77.47948095238098
1169.5,51.744590476190524
1171.72,55.2575190476191
1173.94,85.87373714285718
1176.16,70.73456333333337
1178.37,70.93376952380956
1180.58,48.6604985714286
1182.8,25.151498095238118
1185.01,40.97711095238099
1187.22,48.23128238095239
1189.42,46.1510428571429
1191.63,39.25924047619047
1193.84,21.507366666666684
1196.04,27.32333571428576
1198.24,61.80170000000004
1200.44,65.41791904761908
1202.64,73.50488095238097
1204.84,47.062257142857156
1207.03,34.85163333333337
1209.23,45.49204952380955
1211.42,43.22134714285715
1213.61,31.182403809523816
1215.8,14.327662380952383
1217.99,6.943037142857169
1220.18,29.647747142857177
1222.36,51.87070285714288
1224.55,48.42180333333335
1226.73,46.30152571428573
1228.91,30.55797285714288
1231.09,28.191725714285752
1233.27,47.06049857142861
1235.44,67.68880095238099
1237.62,69.55352857142861
1239.79,72.41737619047623
1241.96,78.23359047619053
1244.13,90.24111904761911
1246.3,103.96455238095244
1248.47,129.21465238095246
1250.64,127.03992857142863
1252.8,112.4890571428572
1254.96,102.13459047619051
1257.13,81.69188571428576
1259.29,50.20967619047623
1261.44,56.641647619047674
1263.6,86.08439523809534
1265.76,135.1104380952382
1267.91,189.53064761904773
1270.06,205.7274380952382
1272.22,179.98790476190484
1274.37,156.5515238095239
1276.51,136.2770476190477
1278.66,132.21338095238104
1280.81,146.40961904761912
1282.95,152.62919047619056
1285.09,148.63570476190483
1287.23,134.38301428571435
1289.37,113.20582857142864
1291.51,98.72506666666673
1293.65,89.32324761904768
1295.78,74.28773333333338
1297.92,79.47753333333341
1300.05,104.27507142857151
1302.18,138.39630476190484
1304.31,147.70019047619056
1306.44,155.95007619047627
1308.57,154.24314285714294
1310.69,172.6762380952382
1312.82,190.77504761904774
1314.94,193.25561904761915
1317.06,187.54847619047632
1319.18,185.79804761904776
1321.3,205.38700000000017
1323.41,252.98361904761924
1325.53,303.7802857142859
1327.64,352.63557142857167
1329.75,398.5514761904764
1331.87,423.6252380952384
1333.98,425.6678095238098
1336.08,426.8238571428573
1338.19,399.333523809524
1340.3,352.19809523809545
1342.4,322.2762857142859
1344.5,293.522523809524
1346.6,288.5098571428573
1348.7,280.5730952380954
1350.8,275.80952380952397
1352.9,241.83938095238108
1354.99,229.61652380952395
1357.09,187.57166666666674
1359.18,194.8966666666668
1361.27,195.30733333333347
1363.36,237.5671904761906
1365.45,260.344142857143
1367.54,287.63952380952395
1369.62,298.407523809524
1371.7,331.696904761905
1373.79,348.5567619047621
1375.87,373.17890476190496
1377.95,391.6600000000002
1380.03,379.14414285714304
1382.1,362.48966666666684
1384.18,324.3170000000002
1386.25,263.0556666666668
1388.33,224.5164761904763
1390.4,192.27195238095248
1392.47,170.70381904761913
1394.54,157.1940857142858
1396.6,126.0295952380953
1398.67,99.06833333333338
1400.74,109.59695714285722
1402.8,102.4735095238096
1404.86,112.3175190476191
1406.92,119.7013952380953
1408.98,108.10188571428579
1411.04,101.56720476190486
1413.09,121.24046666666675
1415.15,136.12266666666676
1417.2,143.21414285714292
1419.25,147.32471428571435
1421.3,136.54995238095245
1423.35,123.74706666666674
1425.4,101.34475714285722
1427.45,103.81971428571435
1429.49,96.45768095238101
1431.54,97.44896190476197
1433.58,104.65074761904768
1435.62,120.63413333333341
1437.66,131.63730476190483
1439.7,139.23120952380958
1441.74,134.6537333333334
1443.77,126.04703809523815
1445.81,120.31540000000008
1447.84,125.31558095238104
1449.87,149.18975238095246
1451.9,154.1752333333334
1453.93,121.2713190476191
1455.96,81.42931904761909
1457.98,66.69572857142863
1460.01,104.87934761904773
1462.03,129.26448095238106
1464.05,167.27855238095245
1466.07,173.11073333333343
1468.09,189.52174285714298
1470.11,187.46194285714296
1472.13,210.8350380952382
1474.14,180.30585714285726
1476.16,167.01585714285721
1478.17,150.5344952380953
1480.18,135.38417142857148
1482.19,109.18180476190483
1484.2,87.25918619047623
1486.21,53.85241880952383
1488.21,21.00747047619049
1490.22,23.341263571428605
1492.22,38.23289333333339
1494.22,68.25184071428576
1496.22,92.5389628571429
1498.22,96.42568857142862
1500.22,73.10051428571433
1502.22,66.22827619047622
1504.21,54.28307619047621
1506.21,44.1201666666667
1508.2,48.11856380952384
1510.19,42.276370714285726
1512.18,23.6392886904762
1514.17,21.919729761904776
1516.16,12.68727964285716
1518.14,27.368724047619082
1520.13,51.48609916666669
1522.11,46.70432880952382
1524.09,37.02170571428574
1526.07,36.769883809523826
1528.05,18.090097142857157
1530.03,13.837928571428591
1532.01,39.964175238095265
1533.98,31.56257761904764
1535.96,53.298261904761944
1537.93,64.40793476190478
1539.9,60.414008571428596
1541.87,41.50565190476194
1543.84,62.11002571428575
1545.81,65.36879047619053
1547.78,74.5187428571429
1549.74,79.511280952381
1551.7,88.24990476190482
1553.67,85.73347619047625
1555.63,103.4846095238096
1557.59,123.83567619047625
1559.55,122.59519047619057
1561.5,138.23848571428582
1563.46,135.5264857142858
1565.41,130.83911428571434
1567.37,134.50899047619055
1569.32,119.77354285714294
1571.27,139.15577142857154
1573.22,167.36934285714295
1575.17,171.41328571428582
1577.11,181.90580952380964
1579.06,188.51314285714295
1581.0,161.75852380952392
1582.95,148.4985714285715
1584.89,139.256761904762
1586.83,136.6510000000001
1588.77,147.63357142857154
1590.7,163.87066666666678
1592.64,173.64761904761917
1594.58,177.2022619047621
1596.51,198.93876190476234
1598.44,254.0232857142867
