Raman Shift,Processed Intensity
331.095,5.363269047618977
333.909,-6.486919047618959
336.721,-24.192476190476114
339.531,-40.64248571428574
342.339,-54.84570476190477
345.145,-28.548114285714302
347.949,-4.945723809523813
350.751,-11.851800000000022
353.55,-22.12531333333334
356.348,-32.43296333333335
359.144,-8.963202857142829
361.937,11.239939523809568
364.729,56.03905428571434
367.518,86.0608176190477
370.306,137.36199142857157
373.091,224.71561428571454
375.874,352.75325714285736
378.656,403.0133809523811
381.435,376.035761904762
384.212,287.0765238095239
386.988,195.20262857142865
389.761,108.53086666666672
392.532,78.08354285714292
395.301,86.9330190476191
398.068,69.24814285714288
400.833,34.4373761904762
403.596,25.672619047619044
406.358,5.07997619047622
409.117,5.11996666666671
411.874,50.01671523809527
414.629,45.99598904761905
417.382,20.618049523809546
420.133,15.873072857142901
422.882,66.37154476190486
425.629,123.86815571428585
428.374,219.11849619047638
431.117,295.83173333333355
433.858,334.24209523809543
436.597,336.0130952380954
439.334,285.4762380952382
442.069,227.201761904762
444.802,183.80852380952393
447.533,177.39200000000017
450.262,191.62052380952397
452.989,242.3528571428573
455.714,280.2587142857145
458.438,302.5792571428573
461.159,268.31865714285726
463.878,192.38591428571436
466.595,120.64349523809531
469.31,89.09678095238104
472.024,100.08529523809534
474.735,117.66280000000009
477.444,153.16930476190487
480.152,160.897761904762
482.857,173.7602857142858
485.561,183.955142857143
488.262,204.72880952380964
490.962,210.08895238095252
493.659,228.3299523809525
496.355,223.79357142857157
499.048,184.0600000000001
501.74,160.23300000000015
504.43,167.27428571428584
507.118,172.19257142857157
509.804,196.33023809523823
512.488,243.8390952380954
515.17,278.7758095238097
517.85,275.38709523809536
520.528,239.20607619047627
523.204,175.38440000000008
525.878,90.40680952380959
528.551,95.56793333333344
531.221,120.54278571428578
533.89,104.95882857142864
536.556,102.25330000000005
539.221,89.7670952380953
541.883,80.69886190476201
544.544,131.77078095238102
547.203,143.37118095238102
549.86,135.6028095238096
552.515,114.33002857142864
555.168,114.70220952380961
557.819,134.29778095238106
560.469,170.218361904762
563.116,187.0893523809525
565.761,201.91644761904774
568.405,177.56258095238104
571.047,143.31879523809528
573.687,126.8094000000001
576.324,120.27715714285722
578.96,126.63148380952389
581.594,97.59069333333336
584.227,105.68274857142862
586.857,82.29231619047624
589.485,99.99419619047626
592.112,99.22009809523814
594.737,112.82983142857147
597.359,67.73083809523814
599.98,71.25856666666671
602.599,65.03406666666672
605.216,82.39218571428577
607.831,92.23920380952387
610.445,85.00477523809526
613.056,54.213550476190505
615.666,47.81856761904766
618.274,48.67715047619053
620.88,57.12267047619053
623.484,93.63106571428578
626.086,112.10677142857152
628.686,139.50156666666678
631.284,183.71906666666678
633.881,224.09138095238106
636.476,217.09323809523823
639.068,182.72297619047623
641.659,136.74095238095245
644.249,100.7639095238096
646.836,82.78944285714293
649.421,97.48182857142862
652.005,87.55260476190479
654.587,69.42757619047623
657.166,65.96096190476194
659.745,74.57787742857147
662.321,68.41803719047623
664.895,46.14461866666668
667.468,12.468349952380976
670.038,20.48096914285719
672.607,56.36899528571437
675.174,117.89059028571437
677.739,144.0894295238096
680.303,162.91414285714293
682.864,129.884380952381
685.424,82.56767142857147
687.982,24.769314285714294
690.538,11.009223809523832
693.092,-3.5737809523809183
695.645,35.25461428571432
698.195,51.633085714285734
700.744,50.41490000000002
703.291,28.215166666666686
705.836,33.649066666666684
708.38,24.998469523809543
710.921,12.450014761904773
713.461,20.80940571428574
715.999,37.977709047619086
718.535,62.332029523809595
721.069,116.01164333333342
723.602,145.536640952381
726.133,120.18906190476194
728.662,80.25102380952383
731.189,60.57611904761909
733.714,44.63688571428577
736.238,62.00139523809529
738.759,76.42800000000004
741.279,77.15135714285718
743.798,65.69189047619052
746.314,80.61769523809528
748.829,68.78259523809528
751.342,63.1833428571429
753.853,69.05485238095244
756.362,82.2511190476191
758.869,88.81668571428577
761.375,129.4627057142858
763.879,110.8054128571429
766.381,90.46094000000005
768.882,75.14081571428575
771.38,65.08041142857147
773.877,47.84845095238099
776.372,47.585081904761914
778.866,42.668957142857195
781.357,82.14526190476197
783.847,97.15439523809529
786.335,105.83699523809528
788.821,101.9052047619048
791.306,87.16623333333341
793.789,100.04712857142866
796.27,110.87909523809529
798.749,112.18420000000008
801.227,131.4365476190477
803.702,162.2540000000001
806.176,183.34869047619054
808.649,193.33890476190484
811.119,164.222761904762
813.588,158.3801904761906
816.055,158.9048095238096
818.521,157.36761904761914
820.984,153.67195238095246
823.446,148.86490476190482
825.906,139.27871428571436
828.365,135.3410095238096
830.821,110.1465333333334
833.276,106.02816190476199
835.729,112.03313333333341
838.181,130.78049523809534
840.631,138.60339047619058
843.079,152.50110476190486
845.525,146.61680952380962
847.97,141.85514285714294
850.412,133.74028571428576
852.854,124.60625142857147
855.293,73.97723952380956
857.731,62.04395047619051
860.167,51.711884285714305
862.601,18.74361714285716
865.034,44.3304728571429
867.465,56.568789523809556
869.894,62.88824000000006
872.321,61.57579000000002
874.747,73.87061809523814
877.171,62.155433809523885
879.594,107.28895142857151
882.014,126.32030428571439
884.433,156.3942257142858
886.851,163.08385714285728
889.266,206.53390476190492
891.68,217.98457142857154
894.092,237.34280952380965
896.503,235.27757142857152
898.912,207.36290476190487
901.319,174.26761904761915
903.724,156.75638095238102
906.128,153.30733333333342
908.53,160.2091904761906
910.931,194.75009523809535
913.329,199.4569523809525
915.726,174.95157142857153
918.122,159.23690476190487
920.516,153.79195238095247
922.908,150.6675238095239
925.298,160.24720000000008
927.687,147.0105571428572
930.074,132.81791428571435
932.459,122.00572857142862
934.843,105.48214761904768
937.225,92.77414285714289
939.605,80.31360952380956
941.984,59.53241904761909
944.361,62.767266666666714
946.736,68.16443809523814
949.11,72.63208095238099
951.482,76.45934761904768
953.853,82.55442438095241
956.222,59.873144380952404
958.589,49.180879238095265
960.954,41.1953765714286
963.318,52.39640304761912
965.68,82.73969676190482
968.041,91.18110533333336
970.4,81.77170000000004
972.757,76.18161809523812
975.113,46.65238714285717
977.467,32.94946000000001
979.819,30.218973809523817
982.17,11.46434476190478
984.519,12.926990000000014
986.866,17.610247619047627
989.212,11.517388571428594
991.556,30.55652285714291
993.899,69.82582761904769
996.24,107.37628095238104
998.579,129.06792857142864
1000.92,135.7608885714286
1003.25,92.98189095238098
1005.59,72.97192380952384
1007.92,44.44777000000002
1010.25,36.79321333333336
1012.58,33.67727761904764
1014.91,48.38804380952383
1017.24,31.737294285714313
1019.56,42.441403809523834
1021.88,41.50229523809527
1024.2,59.63605238095243
1026.52,65.65389523809529
1028.84,83.31908095238101
1031.16,108.4426333333334
1033.48,134.12093809523822
1035.79,152.0214904761906
1038.1,200.097942857143
1040.41,213.82704761904776
1042.72,233.49500000000018
1045.03,258.29290476190494
1047.33,236.6496000000001
1049.64,177.27955238095248
1051.94,143.6118190476191
1054.24,106.93178095238102
1056.54,99.28686666666675
1058.84,114.43850476190484
1061.13,128.1481238095239
1063.43,132.79623809523818
1065.72,139.00128571428579
1068.01,131.76238095238102
1070.3,131.03138095238106
1072.59,121.18814285714294
1074.87,146.94561904761918
1077.16,167.1122857142858
1079.44,201.9724285714287
1081.72,226.71500000000017
1084.0,273.43390476190496
1086.28,346.36571428571455
1088.56,451.46080952380987
1090.84,579.1938095238098
1093.11,666.2773333333337
1095.38,666.2329047619052
1097.65,616.867904761905
1099.92,519.8946190476192
1102.19,421.26333333333355
1104.46,361.3525714285716
1106.72,345.96971428571453
1108.98,340.96914285714314
1111.24,377.82447619047645
1113.5,416.77128571428597
1115.76,472.8072380952384
1118.02,512.358047619048
1120.28,542.8971904761908
1122.53,514.0884761904765
1124.78,461.7858571428574
1127.03,420.2723809523812
1129.28,370.4020000000002
1131.53,335.21957142857156
1133.77,287.29333333333346
1136.02,240.2868571428573
1138.26,222.19680952380966
1140.5,216.97261904761916
1142.74,212.99147619047633
1144.98,203.34561904761918
1147.22,202.60304761904774
1149.45,188.52271428571441
1151.69,205.33914285714297
1153.92,192.19180952380964
1156.15,189.45790476190484
1158.38,165.4674190476191
1160.61,151.40742380952386
1162.83,100.798480952381
1165.06,77.3511428571429
1167.28,57.72854761904766
1169.5,43.069928571428605
1171.72,46.84802380952386
1173.94,84.82103238095243
1176.16,81.03325523809526
1178.37,64.76688285714289
1180.58,59.92314666666669
1182.8,36.30811809523812
1185.01,18.489735238095264
1187.22,30.892983809523827
1189.42,42.4194466666667
1191.63,41.63723809523813
1193.84,57.01931428571432
1196.04,72.32448095238098
1198.24,51.740228571428595
1200.44,61.358800952381
1202.64,68.84420333333335
1204.84,49.67007333333335
1207.03,28.929177619047618
1209.23,5.619268571428559
1211.42,-14.452206190476172
1213.61,4.046124761904771
1215.8,19.065120095238107
1217.99,22.889055571428575
1220.18,9.802453999999994
1222.36,1.328124904761923
1224.55,23.512939333333357
1226.73,31.64212280952383
1228.91,43.14393361904763
1231.09,33.208785142857145
1233.27,21.170173523809556
1235.44,25.933154857142892
1237.62,50.30783866666671
1239.79,69.6282790476191
1241.96,76.84773142857148
1244.13,94.53882380952389
1246.3,106.89324761904768
1248.47,107.05522380952388
1250.64,129.78832857142865
1252.8,161.85614285714294
1254.96,159.6417238095239
1257.13,158.67096190476195
1259.29,145.32671428571436
1261.44,130.65923809523818
1263.6,156.28971428571438
1265.76,171.506761904762
1267.91,169.50357142857152
1270.06,143.8542857142858
1272.22,136.18085714285723
1274.37,158.10585714285727
1276.51,177.9654761904763
1278.66,169.429761904762
1280.81,167.59710476190483
1282.95,132.18510476190482
1285.09,115.626161904762
1287.23,124.68580000000009
1289.37,137.89139047619057
1291.51,135.5322857142858
1293.65,144.04110476190485
1295.78,120.80245714285721
1297.92,111.05875238095244
1300.05,82.09934761904768
1302.18,95.54716190476198
1304.31,120.263661904762
1306.44,128.82424285714293
1308.57,146.47084285714294
1310.69,162.49369047619055
1312.82,155.70622857142868
1314.94,158.44604285714294
1317.06,175.28901904761915
1319.18,174.85785714285726
1321.3,209.8708571428573
1323.41,241.2850952380954
1325.53,286.9139047619049
1327.64,332.66628571428595
1329.75,364.1653333333336
1331.87,382.98633333333356
1333.98,378.56195238095256
1336.08,368.70595238095257
1338.19,351.4695714285716
1340.3,339.28533333333354
1342.4,303.1570952380954
1344.5,269.94604761904776
1346.6,233.41766666666683
1348.7,218.67057142857155
1350.8,223.61300000000014
1352.9,220.15333333333345
1354.99,215.1043809523811
1357.09,213.5649047619049
1359.18,217.87138095238112
1361.27,212.36023809523823
1363.36,231.8438571428573
1365.45,232.42052380952396
1367.54,241.0451904761906
1369.62,231.19676190476204
1371.7,234.35414285714296
1373.79,236.28166666666687
1375.87,251.7906190476192
1377.95,260.5498571428573
1380.03,273.9423333333335
1382.1,284.2557619047621
1384.18,271.8728571428573
1386.25,258.4616666666668
1388.33,224.7375142857144
1390.4,159.17791904761913
1392.47,129.30756190476197
1394.54,102.46083809523813
1396.6,70.44769523809529
1398.67,69.36369523809527
1400.74,74.0185190476191
1402.8,67.74563809523815
1404.86,82.11617714285717
1406.92,54.65363904761905
1408.98,36.07166380952384
1411.04,37.75046095238098
1413.09,44.49857809523812
1415.15,57.981596190476225
1417.2,70.43627714285718
1419.25,71.14697142857148
1421.3,85.4928571428572
1423.35,99.90085714285719
1425.4,108.1309571428572
1427.45,101.37161428571434
1429.49,92.95375238095244
1431.54,87.73247142857147
1433.58,70.99091904761909
1435.62,67.58364761904768
1437.66,92.69876666666674
1439.7,118.00000952380962
1441.74,144.05571904761914
1443.77,124.38690476190479
1445.81,95.56193333333339
1447.84,72.10136190476196
1449.87,91.81178095238104
1451.9,106.73734761904768
1453.93,116.3511333333334
1455.96,97.64947142857149
1457.98,90.58148571428578
1460.01,110.66738571428581
1462.03,144.04636190476197
1464.05,151.66742857142864
1466.07,166.24128571428577
1468.09,184.05000000000013
1470.11,188.13771428571442
1472.13,221.26261904761918
1474.14,207.2305238095239
1476.16,187.13290476190488
1478.17,170.77571428571437
1480.18,161.63137142857153
1482.19,146.69644285714293
1484.2,125.3007714285715
1486.21,94.25034571428577
1488.21,56.44620523809526
1490.22,44.599434285714324
1492.22,39.27767095238098
1494.22,44.28728190476194
1496.22,43.196367142857184
1498.22,66.09690761904766
1500.22,59.98572761904765
1502.22,55.95497761904763
1504.21,31.096874285714296
1506.21,19.694155714285728
1508.2,8.220221904761926
1510.19,34.29136333333337
1512.18,44.23826095238097
1514.17,57.24884761904765
1516.16,73.60645238095242
1518.14,66.7373380952381
1520.13,52.40128095238098
1522.11,24.64379523809523
1524.09,17.748919047619083
1526.07,22.333776190476218
1528.05,42.587271428571455
1530.03,41.603252380952405
1532.01,48.99946190476192
1533.98,16.06045000000002
1535.96,39.69020952380955
1537.93,35.31620714285716
1539.9,53.74722380952386
1541.87,53.74451666666669
1543.84,54.64080952380955
1545.81,43.197533333333375
1547.78,76.50963809523816
1549.74,82.0052476190477
1551.7,120.54139047619054
1553.67,133.403380952381
1555.63,135.35320000000007
1557.59,144.62904285714296
1559.55,157.2309714285715
1561.5,144.73057142857152
1563.46,155.6040000000001
1565.41,142.9467380952382
1567.37,132.18770476190485
1569.32,118.37510952380958
1571.27,115.4618857142858
1573.22,128.30555714285723
1575.17,154.62074285714294
1577.11,163.884561904762
1579.06,155.4308714285715
1581.0,129.97461904761911
1582.95,128.89792857142865
1584.89,126.96300000000006
1586.83,132.6470714285715
1588.77,136.90342857142863
1590.7,135.87609523809533
1592.64,129.42309523809533
1594.58,136.97428571428586
1596.51,158.19700000000026
1598.44,197.75873809523844
