Raman Shift,Processed Intensity
331.095,138.02184330838645
333.909,124.40208495742354
336.721,152.15299153655997
339.531,206.27457684716774
342.339,252.26688229334923
345.145,359.201419254764
347.949,363.93546860227707
350.751,382.42161830886835
353.55,372.7077772510147
356.348,400.36576043864625
359.144,432.0627313879413
361.937,466.3707397322487
364.729,459.7667350234651
367.518,444.6325805334218
370.306,450.7788765790874
373.091,477.0640219430088
375.874,534.4418467223431
378.656,545.0092451778764
381.435,485.76809429733294
384.212,380.6252675967853
386.988,302.15455368396397
389.761,196.31095577393717
392.532,91.85927691909183
395.301,25.18365762005851
398.068,-8.18860084906828
400.833,-21.3013083536016
403.596,-10.912229239716908
406.358,-36.016878901388736
409.117,-92.99137024285483
411.874,-109.40192798313637
414.629,-81.19535941957656
417.382,-47.88953668627346
420.133,-18.00198832265596
422.882,32.33102265886919
425.629,91.97350997809372
428.374,182.98020165462913
431.117,337.0250766281615
433.858,486.9251497927444
436.597,587.4023710777692
439.334,679.321715005125
442.069,707.834032151135
444.802,695.70937679896
447.533,697.2417631624376
450.262,717.2015406575415
452.989,735.1211025071643
455.714,780.104403869725
458.438,815.0650513963346
461.159,775.2501070736985
463.878,702.7162730193904
466.595,650.37750484856
469.31,598.5288155168205
472.024,562.4653172584012
474.735,585.4822159052401
477.444,597.731948063235
480.152,602.8908420980042
482.857,625.9210172158987
485.561,633.546568259293
488.262,685.7773695494961
490.962,747.9090692058503
493.659,833.6659406076787
496.355,921.2008767133739
499.048,992.9049081890089
501.74,1069.59767391791
504.43,1191.8131296054498
507.118,1330.8947801933837
509.804,1485.1861503694158
512.488,1660.4117312672493
515.17,1828.7245938333022
517.85,2025.9920974315055
520.528,2223.5101698767053
523.204,2376.193777944227
525.878,2408.5769216889717
528.551,2380.4316763835573
531.221,2381.1967582659827
533.89,2418.4537093349068
536.556,2482.593558335405
539.221,2489.8644341256795
541.883,2420.895369519948
544.544,2349.982009893261
547.203,2313.5151789291594
549.86,2282.4570634149677
552.515,2319.5316837513424
555.168,2337.0344120808686
557.819,2388.1176808928512
560.469,2547.4576440090586
563.116,2674.87321852185
565.761,2796.516555303732
568.405,2904.873033326444
571.047,3000.142206361001
573.687,3023.7616068205903
576.324,3101.3591210320365
578.96,3126.943459745373
581.594,3167.5708191195863
584.227,3180.8686845655216
586.857,3226.41677744592
589.485,3182.508954156432
592.112,3116.200819492324
594.737,3057.833530491383
597.359,2961.7480764672973
599.98,2855.5709876144656
602.599,2773.642900755662
605.216,2750.828077470659
607.831,2757.8953507962783
610.445,2877.2800243073866
613.056,2974.2743426264897
615.666,3100.075104790447
618.274,3276.3550871410025
620.88,3559.215418596262
623.484,3871.4236702078965
626.086,4233.842420908813
628.686,4551.762585165594
631.284,4775.284359678548
633.881,4911.460074843668
636.476,4913.437046214582
639.068,4715.3147116787895
641.659,4341.144625776764
644.249,3826.835215925798
646.836,3234.1517767391138
649.421,2657.383131011622
652.005,2089.0559097533105
654.587,1634.02978460358
657.166,1257.6403192932084
659.745,967.6989639634576
662.321,778.9692399613741
664.895,647.071496063666
667.468,506.5305218434387
670.038,417.2041134178776
672.607,306.14021062452
675.174,231.05308181656756
677.739,193.27569913439174
680.303,176.42639949134173
682.864,154.17078365478028
685.424,115.17409151760921
687.982,63.434529750732054
690.538,26.426123265047863
693.092,8.09872109262551
695.645,1.2113422962584082
698.195,9.665524761524466
700.744,21.45772250119262
703.291,30.822179283436526
705.836,3.4690413982471
708.38,-2.225146362159194
710.921,3.4968679843377686
713.461,56.15401933095609
715.999,81.21742477781345
718.535,109.7770737676442
721.069,132.63708965009255
723.602,136.22051505552463
726.133,137.09314488789323
728.662,149.63021646045627
731.189,94.06405201245525
733.714,69.38884408293461
736.238,49.3606789797941
738.759,9.497560248844366
741.279,36.17467023810741
743.798,17.148203090686366
746.314,-10.063659405227554
748.829,-29.942629109197696
751.342,-68.1607642499689
753.853,-69.48520786116705
756.362,-9.159119695861591
758.869,-6.901662896050311
761.375,11.520573494209657
763.879,12.007866301381455
766.381,-44.920254766879225
768.882,-51.55357249200506
771.38,-34.895937990974744
773.877,3.715683178278141
776.372,33.94454060741555
778.866,59.73980958062111
781.357,59.52706352229552
783.847,53.44636549236111
786.335,82.78083587204219
788.821,145.19474385917738
791.306,211.49540848733022
793.789,355.06176631157905
796.27,518.844367665728
798.749,656.6510872052354
801.227,862.8614058787111
803.702,1038.4264071851317
806.176,1165.8211543834327
808.649,1273.520877225923
811.119,1273.2390634535914
813.588,1207.8798360057112
816.055,1159.3474730865732
818.521,1076.8321187084243
820.984,992.7145408534466
823.446,871.3280324928928
825.906,732.2917411776484
828.365,622.653522438311
830.821,562.8423169948051
833.276,522.572908918371
835.729,493.084017126891
838.181,437.2335297373602
840.631,350.784214608826
843.079,313.59419179009365
845.525,305.2835964436158
847.97,296.80600367415536
850.412,263.82937716695415
852.854,217.73606544495533
855.293,139.6704171736369
857.731,148.0625869420469
860.167,160.4380553295441
862.601,164.32238706778298
865.034,167.47932253603585
867.465,152.19648830412552
869.894,139.33301243726828
872.321,173.98618741996188
874.747,184.4438473655914
877.171,188.6129357022155
879.594,154.06712047740302
882.014,138.09440966306602
884.433,128.07809979362446
886.851,142.73486746131857
889.266,173.25762271628037
891.68,222.45836246660838
894.092,211.3872143546323
896.503,228.57052825221717
898.912,235.48706299417063
901.319,222.9013159687911
903.724,235.86351937507607
906.128,264.32868409898083
908.53,292.7756435896813
910.931,316.1594310691694
913.329,308.53032340851587
915.726,282.2243135755616
918.122,275.76786879689826
920.516,255.11602205319014
922.908,242.36665405068425
925.298,239.42715614509916
927.687,256.15728374171476
930.074,297.51200969545243
932.459,307.92247294905883
934.843,300.24835574271356
937.225,281.34930844269684
939.605,283.9897077033784
941.984,300.4577003434979
944.361,318.13662817483237
946.736,311.9335956880004
949.11,295.0413710716066
951.482,280.5098110409049
953.853,264.8649047140866
956.222,268.10876986951325
958.589,266.43393491723873
960.954,273.1280970610146
963.318,291.05030903172064
965.68,299.4881182017525
968.041,289.10994379464455
970.4,263.44126361850795
972.757,204.6265150851791
975.113,152.0957581341313
977.467,125.85038577543537
979.819,99.55835844223611
982.17,92.5542002479915
984.519,46.5056619103766
986.866,4.223240818039812
989.212,-1.1493465216881305
991.556,4.055312615760158
993.899,35.50451899902555
996.24,86.29403409923043
998.579,109.90046269439563
1000.92,100.13363547386643
1003.25,69.13661069034742
1005.59,48.67139009765879
1007.92,29.357015840867007
1010.25,13.241000679758145
1012.58,13.513615355157526
1014.91,20.079318812399833
1017.24,37.93771356000843
1019.56,69.08831055217615
1021.88,79.05434169030423
1024.2,79.31133422929815
1026.52,39.52520899339015
1028.84,33.02847383005428
1031.16,57.24879801629686
1033.48,69.18520571256977
1035.79,118.21760275001543
1038.1,154.72582722723564
1040.41,133.04203344039752
1042.72,127.40307581335219
1045.03,113.5219404468071
1047.33,108.49251000082904
1049.64,116.40861429162578
1051.94,110.0783189835729
1054.24,122.88107142409899
1056.54,144.4343702880924
1058.84,149.73662569850285
1061.13,155.92906696598948
1063.43,143.5814598523857
1065.72,114.9778238341587
1068.01,124.354530318255
1070.3,137.32887704841687
1072.59,149.89909108292568
1074.87,135.77766510567926
1077.16,157.72469373727563
1079.44,140.7383527032298
1081.72,184.00728276410427
1084.0,215.5296403123025
1086.28,262.7797670164782
1088.56,343.85104994213634
1090.84,427.97973405319453
1093.11,501.49730614211376
1095.38,581.3066882838348
1097.65,569.7393836706842
1099.92,479.8411938758336
1102.19,409.27698373582734
1104.46,330.4735414711904
1106.72,333.8576769022866
1108.98,353.3324149032642
1111.24,400.41985552267715
1113.5,439.5468912469578
1115.76,493.28330521626503
1118.02,586.8655837260599
1120.28,664.1016811096156
1122.53,692.6091179538835
1124.78,708.3387936010586
1127.03,700.0511796025289
1129.28,628.3639417442496
1131.53,595.8948001673584
1133.77,517.8805799649817
1136.02,503.08197606475505
1138.26,528.164508587532
1140.5,596.9366210632361
1142.74,689.6353976943246
1144.98,809.2598996668703
1147.22,864.3806919378358
1149.45,893.1398462128273
1151.69,847.9176105905126
1153.92,746.0943173022765
1156.15,642.4313380709305
1158.38,552.3568013741797
1160.61,505.72750018427587
1162.83,460.2574663743462
1165.06,404.94654512471516
1167.28,318.8899217101939
1169.5,247.51621971592886
1171.72,194.9208373484962
1173.94,185.2469027946163
1176.16,152.3995629131996
1178.37,120.85551002263082
1180.58,80.56774678328384
1182.8,51.82273203242812
1185.01,28.383240904834565
1187.22,10.964558286712418
1189.42,-21.71789915891668
1191.63,-28.472386697307684
1193.84,-32.72606267193623
1196.04,-33.524983891775264
1198.24,-32.20077078540044
1200.44,-25.180133299898444
1202.64,12.205599485370385
1204.84,69.86332711398245
1207.03,110.5572131885242
1209.23,145.19438877731636
1211.42,140.9201866432727
1213.61,161.30861356799323
1215.8,223.64806077110325
1217.99,285.7508238533983
1220.18,316.81024178761527
1222.36,350.3530740044289
1224.55,328.7633060498865
1226.73,289.28214571902254
1228.91,258.4842096656703
1231.09,251.75371001226586
1233.27,262.3320695310881
1235.44,355.1750606350156
1237.62,414.71470627304416
1239.79,459.2878474924805
1241.96,567.9932824296975
1244.13,738.072714824707
1246.3,952.0536072976261
1248.47,1258.8920346251412
1250.64,1569.925060826502
1252.8,1921.870735297132
1254.96,2412.5899937041413
1257.13,2929.8009398342238
1259.29,3384.221698870119
1261.44,3738.9513659051645
1263.6,3904.3747639816743
1265.76,3886.1624402245398
1267.91,3747.0801857843685
1270.06,3493.9890319710935
1272.22,3152.8928654352158
1274.37,2809.9384243014088
1276.51,2477.2248181116634
1278.66,2177.6606668160352
1280.81,1917.5831445253066
1282.95,1693.996070882693
1285.09,1499.3794310069925
1287.23,1390.5941335309535
1289.37,1328.1201019729992
1291.51,1316.3896042041638
1293.65,1356.88248667695
1295.78,1405.8404562732226
1297.92,1443.8385050092538
1300.05,1524.975382359809
1302.18,1586.9212104393864
1304.31,1656.8698610882157
1306.44,1730.6341901011015
1308.57,1800.8365095515232
1310.69,1844.5752505918958
1312.82,1960.6630548252874
1314.94,2049.2458180580657
1317.06,2134.7074483382603
1319.18,2199.384147803457
1321.3,2217.802504052484
1323.41,2160.346152945689
1325.53,2085.6843461670974
1327.64,1944.4862330722967
1329.75,1806.9446663458461
1331.87,1665.3476267063056
1333.98,1512.744885706492
1336.08,1343.5670494861279
1338.19,1165.958888238767
1340.3,985.5888561549209
1342.4,841.1252780318455
1344.5,730.7125358833287
1346.6,608.4948745970987
1348.7,494.04496949698887
1350.8,414.17344628606315
1352.9,328.1669724183025
1354.99,279.1215865655422
1357.09,248.41888522725412
1359.18,232.58316172128752
1361.27,210.28140231746374
1363.36,194.51375856164805
1365.45,165.5659243617306
1367.54,132.2472273593189
1369.62,102.6049107776239
1371.7,138.92412955505552
1373.79,171.82318457405836
1375.87,203.25352928828443
1377.95,227.54739539738648
1380.03,190.13208518847068
1382.1,170.91093054422572
1384.18,162.26329957009375
1386.25,167.18746036430412
1388.33,150.01487335933462
1390.4,100.64829318718193
1392.47,30.37129911604552
1394.54,-18.770745941560563
1396.6,-57.20878403973211
1398.67,-22.897671418167192
1400.74,-9.554265998791834
1402.8,12.866383253487129
1404.86,49.21865395921577
1406.92,60.1187288213323
1408.98,50.896975474975534
1411.04,105.4550931776057
1413.09,189.98040235626922
1415.15,299.7553722500943
1417.2,471.3004818861168
1419.25,635.0885096265488
1421.3,789.0207274779382
1423.35,908.426904924142
1425.4,947.4462651402541
1427.45,868.1703459684368
1429.49,786.5001466080325
1431.54,663.0032743056818
1433.58,566.1996624740182
1435.62,487.7044316675024
1437.66,412.98979817730424
1439.7,349.67079214999103
1441.74,344.12430903955465
1443.77,335.77482772610074
1445.81,316.09441434883047
1447.84,316.9836785199691
1449.87,335.9622533482211
1451.9,354.40689450984746
1453.93,436.1229126530725
1455.96,528.53465342154
1457.98,629.9235965253829
1460.01,804.0950262408701
1462.03,1048.711368576714
1464.05,1350.292195107047
1466.07,1766.357083947259
1468.09,2268.663718825056
1470.11,2864.2078929134395
1472.13,3492.033036473209
1474.14,4088.4683159240367
1476.16,4557.223875772683
1478.17,4804.3432233983585
1480.18,4808.060375742847
1482.19,4578.657006000616
1484.2,4081.79578078514
1486.21,3510.7584591999625
1488.21,2903.4458966716697
1490.22,2295.6637630685764
1492.22,1762.3606417717992
1494.22,1324.056604936788
1496.22,939.2241697072609
1498.22,680.6692544291168
1500.22,496.67403962624985
1502.22,344.33030516685403
1504.21,249.15848171542393
1506.21,185.0600355181059
1508.2,138.07937699756394
1510.19,109.78481696690005
1512.18,60.935237129285724
1514.17,33.52771295854268
1516.16,15.368946103536928
1518.14,-3.924731778856767
1520.13,-29.689259952694556
1522.11,-21.355701912853874
1524.09,-11.355003854253255
1526.07,22.786767564874026
1528.05,51.257947151025064
1530.03,58.29460146269798
1532.01,27.180525764327513
1533.98,21.818669551650373
1535.96,33.5882763627867
1537.93,45.20202358931965
1539.9,82.32506704928096
1541.87,102.2893236553748
1543.84,123.95061122605875
1545.81,159.3076930585346
1547.78,191.54989393030314
1549.74,231.62852562453213
1551.7,271.25688388399317
1553.67,271.76738822214907
1555.63,309.34967411518437
1557.59,375.24106614641846
1559.55,469.91705115071954
1561.5,579.4246085017649
1563.46,642.3345880183617
1565.41,611.1226592993271
1567.37,557.8359753440825
1569.32,470.712217125636
1571.27,414.9891143540399
1573.22,385.6187281446082
1575.17,341.26744797185825
1577.11,331.55408386153863
1579.06,317.66891096362065
1581.0,281.659380791953
1582.95,266.668213416292
1584.89,244.6476801305207
1586.83,201.59769564467956
1588.77,211.70867218176477
1590.7,220.45675452690216
1592.64,206.46095983842724
1594.58,192.840317458958
1596.51,141.45196110742722
1598.44,30.462554404426783
