Raman Shift,Processed Intensity
331.095,14.573165238095203
333.909,17.946054047619015
336.721,28.159966190476183
339.531,35.842390000000016
342.339,19.715820952380945
345.145,-12.211221428571427
347.949,-0.26268095238095857
350.751,-8.999907142857138
353.55,-6.554878095238097
356.348,-0.34448761904762915
359.144,-6.975294285714286
361.937,3.4232495238095506
364.729,17.00826761904764
367.518,24.080783809523847
370.306,70.2757600000001
373.091,157.70561428571446
375.874,264.3881666666669
378.656,339.96180000000015
381.435,324.9700000000001
384.212,224.91022857142866
386.988,113.61383523809526
389.761,24.72312095238097
392.532,-3.5474199999999874
395.301,-23.743597142857148
398.068,-15.696510476190475
400.833,-13.616453333333347
403.596,-20.760453333333334
406.358,-9.050967619047606
409.117,14.495450476190474
411.874,1.0538771428571403
414.629,-0.9614128571428657
417.382,-1.563556190476187
420.133,-4.717056666666645
422.882,16.043260952380994
425.629,57.4215233333334
428.374,107.88493523809532
431.117,167.23503333333346
433.858,227.55973809523823
436.597,239.51941904761915
439.334,201.20364761904773
442.069,153.1312952380953
444.802,117.39378095238102
447.533,110.2261523809525
450.262,154.4827904761906
452.989,195.49512380952393
455.714,207.49985714285725
458.438,188.06757142857148
461.159,164.57950476190484
463.878,112.36931428571432
466.595,97.62818095238102
469.31,87.50030952380956
472.024,91.4163333333334
474.735,89.71159047619054
477.444,90.72241904761908
480.152,83.97545714285722
482.857,110.75985714285721
485.561,114.26977142857149
488.262,139.5572095238096
490.962,143.1499190476191
493.659,133.7668857142858
496.355,117.31780952380957
499.048,98.42685238095241
501.74,41.051595238095274
504.43,53.43558571428577
507.118,57.96533333333339
509.804,96.69404285714293
512.488,129.91353809523818
515.17,181.48698095238106
517.85,180.5154238095239
520.528,191.9575238095239
523.204,155.48617142857148
525.878,124.8692952380953
528.551,91.20850476190482
531.221,101.27192857142863
533.89,73.25605238095241
536.556,52.11974285714288
539.221,29.059552380952404
541.883,29.748342857142895
544.544,47.954123809523864
547.203,75.11138095238098
549.86,84.03569047619055
552.515,122.5424333333334
555.168,146.54181904761916
557.819,190.13479523809536
560.469,217.1842000000001
563.116,200.07585714285722
565.761,174.67238095238105
568.405,161.12166666666675
571.047,140.04700000000008
573.687,148.5962380952382
576.324,150.58331428571435
578.96,128.05950476190483
581.594,131.1720095238096
584.227,133.87668571428577
586.857,133.51029523809532
589.485,140.40950476190486
592.112,154.3868857142858
594.737,161.20686666666677
597.359,164.9197952380953
599.98,134.62292380952385
602.599,114.4613476190477
605.216,117.7700257142858
607.831,99.02661857142863
610.445,109.66081809523814
613.056,103.43559095238099
615.666,70.06592285714291
618.274,100.88580428571439
620.88,124.89552095238099
623.484,105.8092571428572
626.086,103.05530476190484
628.686,131.39538095238106
631.284,154.68561904761918
633.881,216.21109523809537
636.476,233.92300000000012
639.068,214.29626666666675
641.659,157.66279047619057
644.249,141.44966666666673
646.836,124.84520000000008
649.421,96.94273809523814
652.005,97.40663809523815
654.587,62.37746190476191
657.166,32.614765714285745
659.745,20.592149047619056
662.321,31.164123809523833
664.895,20.13743428571431
667.468,33.93780476190477
670.038,19.65758761904763
672.607,9.246139523809525
675.174,6.700374761904793
677.739,33.9694985714286
680.303,59.33599619047624
682.864,77.51083000000006
685.424,86.10964571428575
687.982,62.31944714285717
690.538,34.13671523809525
693.092,27.319737619047643
695.645,31.67445523809526
698.195,29.149543333333355
700.744,40.741255238095256
703.291,37.44583333333334
705.836,26.259491428571458
708.38,26.987907619047633
710.921,32.10347333333335
713.461,12.411844285714297
715.999,27.00439809523813
718.535,42.63920333333336
721.069,53.931455238095275
723.602,59.35354428571431
726.133,51.13975285714286
728.662,17.09583000000001
731.189,7.31326714285715
733.714,-2.878263333333327
736.238,-4.863389999999978
738.759,27.925844285714334
741.279,81.3905895238096
743.798,116.86076190476197
746.314,138.7139428571429
748.829,116.08970476190478
751.342,75.84197142857147
753.853,48.72959047619051
756.362,53.74940952380957
758.869,45.61281428571432
761.375,49.7455047619048
763.879,56.8114047619048
766.381,39.71263809523811
768.882,41.87527142857146
771.38,48.296866095238116
773.877,29.737043714285736
776.372,24.479330285714312
778.866,38.47401628571431
781.357,52.05262076190483
783.847,84.78468657142864
786.335,111.7159994285715
788.821,108.74987142857148
791.306,90.02772380952386
793.789,70.54818095238099
796.27,65.54829047619052
798.749,58.836338095238155
801.227,84.74445238095245
803.702,110.03383333333342
806.176,128.22748095238103
808.649,130.27722857142865
811.119,133.23019047619056
813.588,131.9430000000001
816.055,128.2723333333334
818.521,139.55133333333342
820.984,155.87507619047628
823.446,133.7674571428572
825.906,119.18100952380958
828.365,107.44901904761912
830.821,100.38134285714295
833.276,124.5975523809525
835.729,164.4313142857144
838.181,145.6928571428572
840.631,123.90676190476198
843.079,111.35923809523815
845.525,86.71795714285717
847.97,70.50772380952385
850.412,61.30089523809525
852.854,29.52729523809526
855.293,25.473860000000027
857.731,30.04663047619048
860.167,14.723266666666676
862.601,13.124261904761916
865.034,20.441749523809552
867.465,32.29639619047622
869.894,52.3090066666667
872.321,64.62429428571431
874.747,67.33938095238099
877.171,68.78961904761911
879.594,95.40555238095246
882.014,107.04657619047626
884.433,127.42920476190486
886.851,149.5553714285715
889.266,153.23687619047627
891.68,140.0952857142858
894.092,157.99019047619058
896.503,161.06700000000012
898.912,159.56614285714295
901.319,150.0135714285715
903.724,146.31690476190485
906.128,141.81204761904775
908.53,159.40644761904773
910.931,137.67425714285721
913.329,113.85603809523816
915.726,91.76398095238103
918.122,110.30556190476202
920.516,131.91206666666676
922.908,153.9194476190477
925.298,120.04483333333337
927.687,110.1954952380953
930.074,85.80280476190484
932.459,96.63126666666675
934.843,100.49328571428576
937.225,103.29622857142861
939.605,86.3284333333334
941.984,93.54480000000005
944.361,76.61475238095242
946.736,76.9694466666667
949.11,49.70662761904763
951.482,33.733660000000036
953.853,40.95758190476195
956.222,73.66670761904768
958.589,85.14921809523815
960.954,85.59787047619051
963.318,72.53887142857147
965.68,78.54579047619053
968.041,103.0492333333334
970.4,117.76578952380957
972.757,89.26894428571431
975.113,57.98924095238098
977.467,41.11912428571431
979.819,25.041280952380976
982.17,25.13843857142859
984.519,19.459887619047628
986.866,20.673908571428612
989.212,45.92482571428577
991.556,74.4045590476191
993.899,109.68563333333341
996.24,129.1028333333334
998.579,139.60960000000009
1000.92,123.11166666666671
1003.25,85.80038571428574
1005.59,53.24793904761907
1007.92,31.407177142857165
1010.25,25.27888761904766
1012.58,32.625275238095256
1014.91,48.494287619047675
1017.24,83.17188190476197
1019.56,133.372281904762
1021.88,132.19056666666674
1024.2,119.67419047619055
1026.52,114.20376190476199
1028.84,134.63628571428583
1031.16,149.01871428571437
1033.48,168.01719047619056
1035.79,163.20242857142867
1038.1,160.71652380952395
1040.41,200.51076190476203
1042.72,227.39409523809533
1045.03,225.50795238095253
1047.33,218.04190476190487
1049.64,182.7090000000001
1051.94,162.12700000000012
1054.24,167.48480952380964
1056.54,176.73366666666678
1058.84,174.34814285714296
1061.13,177.8504285714287
1063.43,166.81028571428584
1065.72,172.60709523809535
1068.01,185.62004761904774
1070.3,200.4664761904763
1072.59,183.95404761904774
1074.87,168.69961904761914
1077.16,172.41571428571442
1079.44,177.91000000000014
1081.72,217.60919047619063
1084.0,275.4156666666669
1086.28,342.3273809523812
1088.56,439.7232380952384
1090.84,536.9346190476194
1093.11,618.7211428571431
1095.38,642.2713809523813
1097.65,602.8207142857145
1099.92,508.5098571428574
1102.19,428.76557142857166
1104.46,379.3948095238097
1106.72,365.5381428571431
1108.98,361.6223333333336
1111.24,391.025904761905
1113.5,408.5083333333336
1115.76,445.1154285714289
1118.02,479.22533333333365
1120.28,488.4077619047622
1122.53,484.75552380952405
1124.78,441.07614285714305
1127.03,379.74833333333345
1129.28,329.19871428571446
1131.53,280.52000000000015
1133.77,251.56771428571443
1136.02,247.33933333333346
1138.26,215.9761904761906
1140.5,211.7143809523811
1142.74,205.1234761904763
1144.98,207.7724761904763
1147.22,193.46961904761918
1149.45,209.64133333333345
1151.69,187.14338095238105
1153.92,193.92633333333342
1156.15,160.36978571428577
1158.38,151.37650476190484
1160.61,101.56457619047625
1162.83,90.93215238095242
1165.06,60.049566666666706
1167.28,65.82017619047623
1169.5,64.10020000000006
1171.72,93.650180952381
1173.94,77.89777619047624
1176.16,91.60387619047624
1178.37,87.81539047619052
1180.58,96.7221190476191
1182.8,76.3712523809524
1185.01,65.80984952380953
1187.22,23.037642380952388
1189.42,22.387824476190506
1191.63,16.479443285714304
1193.84,35.97937514285716
1196.04,26.69742004761906
1198.24,32.967382857142866
1200.44,17.123175523809536
1202.64,14.927436571428574
1204.84,10.761929666666685
1207.03,19.58003114285716
1209.23,20.763720333333357
1211.42,40.40942580952384
1213.61,37.61358285714287
1215.8,50.13961904761909
1217.99,70.32213333333337
1220.18,73.59123809523813
1222.36,60.71043809523811
1224.55,48.824276190476205
1226.73,28.839228571428606
1228.91,36.47156190476194
1231.09,50.43726190476194
1233.27,60.738252380952424
1235.44,76.85271904761909
1237.62,80.6398247619048
1239.79,66.76826285714287
1241.96,47.00199714285718
1244.13,44.34322761904767
1246.3,65.31785904761912
1248.47,95.26126761904769
1250.64,136.31852476190483
1252.8,141.44440952380958
1254.96,139.3075714285715
1257.13,161.29142857142867
1259.29,169.9220000000001
1261.44,161.91538095238104
1263.6,172.6550000000001
1265.76,163.09576190476199
1267.91,143.04914285714295
1270.06,158.56514285714294
1272.22,154.55104761904772
1274.37,150.24708571428582
1276.51,128.65553809523814
1278.66,118.6836571428572
1280.81,92.61910952380958
1282.95,82.08315238095243
1285.09,66.31643809523813
1287.23,65.84510952380955
1289.37,58.57604761904767
1291.51,71.51173809523814
1293.65,79.17807619047625
1295.78,89.24403333333336
1297.92,72.56902380952384
1300.05,72.82196190476195
1302.18,73.76694761904766
1304.31,75.88241904761911
1306.44,95.64656666666674
1308.57,109.06176666666673
1310.69,119.0825095238096
1312.82,117.23476666666672
1314.94,122.23510476190485
1317.06,119.60921428571437
1319.18,128.73987619047628
1321.3,139.53422857142868
1323.41,170.3750380952382
1325.53,199.2168571428573
1327.64,234.68076190476202
1329.75,268.8639523809525
1331.87,293.2443333333335
1333.98,308.4904285714287
1336.08,307.1754285714287
1338.19,288.87252380952395
1340.3,241.4409047619049
1342.4,213.69170476190487
1344.5,174.53138095238103
1346.6,129.48522857142865
1348.7,111.84083809523818
1350.8,118.64682857142866
1352.9,128.09591428571437
1354.99,143.712761904762
1357.09,154.45124761904768
1359.18,130.74142857142863
1361.27,120.68014285714294
1363.36,113.98242857142863
1365.45,107.2690952380953
1367.54,105.49323809523818
1369.62,120.27485714285723
1371.7,148.7107142857144
1373.79,170.65866666666676
1375.87,209.59576190476207
1377.95,225.0945238095239
1380.03,233.20304761904777
1382.1,218.58900000000008
1384.18,197.34845714285723
1386.25,146.1006952380953
1388.33,122.27486666666674
1390.4,106.68116190476198
1392.47,103.70064285714291
1394.54,103.28624761904767
1396.6,83.10481904761907
1398.67,65.91838571428575
1400.74,46.727076190476225
1402.8,45.76912857142861
1404.86,53.568147619047664
1406.92,68.55263333333338
1408.98,73.10331428571435
1411.04,86.45790952380958
1413.09,101.28295619047624
1415.15,78.81585619047623
1417.2,74.96079333333338
1419.25,76.05050571428575
1421.3,65.2746885714286
1423.35,55.01350380952385
1425.4,59.4090942857143
1427.45,41.17454285714289
1429.49,44.737366666666716
1431.54,74.2869428571429
1433.58,78.96483809523814
1435.62,75.38879047619052
1437.66,73.1763904761905
1439.7,65.8023704761905
1441.74,46.83658238095241
1443.77,39.753646666666675
1445.81,18.170880476190483
1447.84,12.13413333333336
1449.87,18.11779571428574
1451.9,47.929315238095285
1453.93,64.13828666666672
1455.96,81.69526285714291
1457.98,96.8835095238096
1460.01,118.27266666666677
1462.03,118.76518095238103
1464.05,148.54899047619057
1466.07,167.76495238095248
1468.09,175.50609523809536
1470.11,203.81747619047633
1472.13,232.36380952380966
1474.14,243.99933333333348
1476.16,245.29304761904774
1478.17,240.52804761904773
1480.18,210.4162857142858
1482.19,182.71714285714296
1484.2,155.28561904761912
1486.21,140.11861904761912
1488.21,122.11865714285722
1490.22,105.75903809523814
1492.22,97.32304761904766
1494.22,73.52219523809526
1496.22,47.02081904761908
1498.22,36.577900000000035
1500.22,51.095838095238136
1502.22,52.524347142857174
1504.21,55.146588809523834
1506.21,39.67425761904762
1508.2,17.58097404761905
1510.19,-3.802455714285705
1512.18,3.7595626190476352
1514.17,18.931200476190497
1516.16,34.70997000000003
1518.14,34.18870380952383
1520.13,35.74594571428573
1522.11,37.37937333333336
1524.09,33.5629104761905
1526.07,50.29428380952385
1528.05,45.618950476190484
1530.03,29.153857142857163
1532.01,22.658866666666682
1533.98,21.560638095238115
1535.96,33.28590476190482
1537.93,71.16636190476196
1539.9,100.390561904762
1541.87,117.14755238095245
1543.84,102.0072428571429
1545.81,83.96827142857148
1547.78,91.41037619047626
1549.74,115.85601428571438
1551.7,142.11331904761911
1553.67,141.13375238095244
1555.63,121.48787619047624
1557.59,121.26981904761914
1559.55,131.95498095238105
1561.5,160.44726666666676
1563.46,177.74604761904772
1565.41,177.85080952380963
1567.37,169.90409523809535
1569.32,169.23819047619057
1571.27,158.5192380952382
1573.22,154.93766666666676
1575.17,174.63576190476203
1577.11,195.08985714285728
1579.06,210.58542857142868
1581.0,210.02680952380962
1582.95,184.604380952381
1584.89,140.88971428571438
1586.83,134.93057142857154
1588.77,156.06033333333346
1590.7,175.6602380952382
1592.64,178.11133333333342
1594.58,164.55659523809544
1596.51,162.8057380952386
1598.44,190.52559523809617
