Raman Shift,Processed Intensity
331.095,62.98710999999975
333.909,1.397443333333264
336.721,-13.61343238095234
339.531,-1.7509338095237847
342.339,18.826853333333332
345.145,-9.013913809523821
347.949,0.11769333333334231
350.751,-4.529395238095249
353.55,-2.800647619047581
356.348,36.93561428571432
359.144,59.978609523809546
361.937,44.15235238095242
364.729,66.66266190476195
367.518,84.00239047619057
370.306,154.33135714285729
373.091,250.23935238095257
375.874,316.6505333333335
378.656,338.585142857143
381.435,305.5882095238096
384.212,218.82511428571436
386.988,139.5568571428572
389.761,58.52208571428573
392.532,11.793904761904784
395.301,-1.4584761904761774
398.068,10.125788571428592
400.833,13.146733809523825
403.596,36.44357238095239
406.358,8.04710904761904
409.117,7.608291428571429
411.874,-13.125623333333342
414.629,-11.644330476190467
417.382,-5.341204761904743
420.133,13.200980952380975
422.882,37.59098571428578
425.629,82.00998571428579
428.374,129.83057142857155
431.117,180.71213809523823
433.858,238.0294285714287
436.597,243.30061904761916
439.334,230.8539523809525
442.069,184.92361904761916
444.802,145.03023809523816
447.533,123.31390476190487
450.262,163.05909523809535
452.989,177.55000000000013
455.714,200.26213333333345
458.438,171.8624428571429
461.159,136.54211428571435
463.878,98.68285238095243
466.595,92.76282857142864
469.31,78.21241428571435
472.024,89.89143809523813
474.735,54.279166666666704
477.444,64.14067619047624
480.152,72.95618571428577
482.857,102.63459047619057
485.561,136.4181000000001
488.262,149.8828571428572
490.962,152.41502857142868
493.659,142.30533809523814
496.355,122.55961428571435
499.048,89.65962380952385
501.74,82.5158333333334
504.43,75.65795238095245
507.118,86.85419047619054
509.804,95.58698571428579
512.488,126.86277619047628
515.17,145.8783000000001
517.85,176.11664285714295
520.528,166.96514761904768
523.204,140.287561904762
525.878,114.42400476190484
528.551,114.47622857142865
531.221,104.26020952380958
533.89,87.6398428571429
536.556,62.145442857142896
539.221,66.40251714285718
541.883,50.703336190476215
544.544,59.62555333333336
547.203,42.080220952380955
549.86,25.692467619047658
552.515,45.13513142857148
555.168,74.03302190476197
557.819,105.20145714285722
560.469,132.74127619047624
563.116,120.22932857142862
565.761,84.48041904761908
568.405,94.26164285714293
571.047,96.53015238095244
573.687,123.24292857142865
576.324,159.30945238095248
578.96,159.590961904762
581.594,136.09161904761913
584.227,136.62452380952385
586.857,124.0026190476191
589.485,114.3720476190477
592.112,118.49809523809532
594.737,120.43100000000008
597.359,130.69719047619057
599.98,125.0127857142858
602.599,119.23700000000008
605.216,114.70472857142862
607.831,95.75091904761912
610.445,91.80538571428578
613.056,105.05950952380958
615.666,98.98988571428579
618.274,120.64463333333343
620.88,146.54718095238104
623.484,151.8402380952382
626.086,139.42823809523816
628.686,161.40566666666678
631.284,162.34295238095248
633.881,182.85790476190488
636.476,201.18690476190488
639.068,208.13776190476202
641.659,185.1847523809525
644.249,155.80154761904768
646.836,112.50953333333338
649.421,78.35366666666671
652.005,57.42630952380957
654.587,72.438780952381
657.166,68.2926285714286
659.745,67.26990000000005
662.321,69.51000000000002
664.895,62.723486666666695
667.468,40.858894000000014
670.038,26.531298285714282
672.607,-12.549057238095228
675.174,2.851673142857173
677.739,34.30079419047623
680.303,65.12732971428575
682.864,80.46978114285717
685.424,70.27617476190477
687.982,32.780214285714294
690.538,5.596536190476193
693.092,-6.3744571428571355
695.645,7.577153333333354
698.195,13.637481904761916
700.744,25.659430000000018
703.291,26.114948095238105
705.836,28.476068571428588
708.38,9.072068095238103
710.921,19.089430476190493
713.461,28.619550952380987
715.999,48.61103904761908
718.535,56.29831904761909
721.069,89.53485714285719
723.602,76.22209523809528
726.133,76.73761361904765
728.662,55.22104385714287
731.189,48.00247819047623
733.714,42.03129757142862
736.238,52.018730571428605
738.759,49.15248671428577
741.279,81.95360409523815
743.798,90.84796190476197
746.314,117.16621619047626
748.829,101.28690190476193
751.342,72.44571333333336
753.853,26.973674285714317
756.362,44.53514190476196
758.869,61.985235238095285
761.375,71.32187333333337
763.879,92.40045714285722
766.381,99.59989047619052
768.882,90.53753333333341
771.38,112.16390000000007
773.877,100.52509047619053
776.372,79.33389047619053
778.866,84.77951428571431
781.357,52.66998095238098
783.847,57.05188571428577
786.335,81.35240000000005
788.821,85.42763333333339
791.306,101.75275238095244
793.789,115.4220952380953
796.27,87.72056190476196
798.749,110.02837142857152
801.227,131.10652380952388
803.702,132.0022000000001
806.176,149.52431428571438
808.649,175.14861904761915
811.119,139.20806666666675
813.588,128.6546095238096
816.055,122.29760000000006
818.521,114.94646666666677
820.984,142.6008761904763
823.446,164.45125714285723
825.906,163.59309523809537
828.365,164.7882380952382
830.821,167.1320476190477
833.276,155.1009523809525
835.729,160.55233333333342
838.181,123.01038095238101
840.631,112.1900476190477
843.079,107.47242857142864
845.525,107.62004761904768
847.97,109.20490476190484
850.412,121.1324047619048
852.854,88.45078571428576
855.293,85.35145238095244
857.731,92.69206190476196
860.167,85.664280952381
862.601,88.69750952380957
865.034,88.98315238095242
867.465,57.426966666666715
869.894,70.41121904761911
872.321,104.98434761904768
874.747,108.67143809523814
877.171,118.28324761904767
879.594,103.29720952380957
882.014,86.09568095238102
884.433,80.20378095238101
886.851,107.48011904761913
889.266,111.83072380952389
891.68,116.54299047619055
894.092,140.9039904761906
896.503,178.05841904761917
898.912,181.86457142857154
901.319,192.75309523809534
903.724,172.9635714285715
906.128,142.497761904762
908.53,164.35742857142867
910.931,165.02080952380962
913.329,168.34668571428583
915.726,161.14653809523816
918.122,132.94600000000005
920.516,91.12777142857149
922.908,102.12238095238101
925.298,85.26536666666674
927.687,93.08264761904768
930.074,84.19520000000004
932.459,94.79551428571435
934.843,87.45722380952387
937.225,110.70599047619054
939.605,108.30617142857147
941.984,105.0694190476191
944.361,92.85507619047627
946.736,94.85572380952385
949.11,87.4546571428572
951.482,81.08255238095244
953.853,68.83707142857149
956.222,82.05378095238102
958.589,91.92549047619053
960.954,85.59741428571435
963.318,107.8335952380953
965.68,109.6842333333334
968.041,104.86594761904769
970.4,109.09539723809527
972.757,74.66071604761906
975.113,47.421466380952424
977.467,37.80840109523811
979.819,8.538448285714292
982.17,10.090136523809544
984.519,16.32306580952382
986.866,9.858684285714315
989.212,40.55675809523814
991.556,78.03870952380957
993.899,103.11645714285721
996.24,130.696961904762
998.579,148.92543809523818
1000.92,140.04228095238102
1003.25,118.002280952381
1005.59,82.42663809523813
1007.92,63.26979523809527
1010.25,44.34311428571433
1012.58,49.457961904761945
1014.91,61.330300000000044
1017.24,94.05714380952386
1019.56,86.30643428571433
1021.88,79.93658761904767
1024.2,77.6156990476191
1026.52,74.7729733333334
1028.84,95.26683428571437
1031.16,132.2887676190477
1033.48,136.5057714285715
1035.79,141.10890476190485
1038.1,176.71785714285727
1040.41,196.76119047619062
1042.72,224.7634285714287
1045.03,231.3434285714287
1047.33,215.07238095238108
1049.64,200.85519047619061
1051.94,203.40580952380964
1054.24,173.771761904762
1056.54,166.6191904761906
1058.84,166.70952380952392
1061.13,156.51804761904773
1063.43,161.90138095238103
1065.72,161.28742857142868
1068.01,146.6275714285715
1070.3,155.73023809523824
1072.59,172.88038095238107
1074.87,197.02909523809538
1077.16,225.03233333333344
1079.44,233.27004761904777
1081.72,251.07376190476208
1084.0,257.3467619047621
1086.28,316.897285714286
1088.56,416.58100000000036
1090.84,520.7295238095242
1093.11,620.3891904761907
1095.38,656.9388571428575
1097.65,588.7575714285717
1099.92,512.6057619047622
1102.19,413.00514285714314
1104.46,346.90623809523834
1106.72,335.83114285714305
1108.98,349.4440000000002
1111.24,367.7428571428575
1113.5,414.3449523809527
1115.76,445.4858571428574
1118.02,481.87809523809557
1120.28,490.6147142857145
1122.53,473.31223809523834
1124.78,442.2069523809526
1127.03,393.2014285714288
1129.28,332.48333333333346
1131.53,287.05071428571443
1133.77,239.66328571428585
1136.02,208.50904761904775
1138.26,196.6334761904763
1140.5,183.65314285714297
1142.74,175.0894285714287
1144.98,186.41633333333343
1147.22,189.15557142857153
1149.45,200.30457142857153
1151.69,190.09909523809534
1153.92,185.2034761904763
1156.15,164.80614285714296
1158.38,145.09514285714295
1160.61,129.7350476190477
1162.83,146.24720000000008
1165.06,146.96291428571436
1167.28,144.59432857142863
1169.5,132.37727619047627
1171.72,122.7381095238096
1173.94,110.38920000000007
1176.16,121.37606190476197
1178.37,112.22056190476194
1180.58,80.4445047619048
1182.8,50.33145238095241
1185.01,49.78438095238099
1187.22,50.27770476190481
1189.42,60.52390000000005
1191.63,73.94979523809528
1193.84,75.1251666666667
1196.04,77.04841904761909
1198.24,68.33715619047621
1200.44,42.51378952380953
1202.64,16.19607428571429
1204.84,-2.045727619047611
1207.03,-4.212620952380935
1209.23,28.59928000000002
1211.42,30.96067233333334
1213.61,19.585211500000007
1215.8,7.615284904761911
1217.99,17.95542683333337
1220.18,47.55778966666672
1222.36,79.5652162619048
1224.55,74.26354471428573
1226.73,56.891190476190495
1228.91,21.59142380952383
1231.09,25.745890476190517
1233.27,45.498033333333375
1235.44,68.27728666666671
1237.62,62.322672380952405
1239.79,50.301992380952406
1241.96,47.31144666666672
1244.13,75.16213047619054
1246.3,100.5695533333334
1248.47,112.15436761904768
1250.64,136.72789523809536
1252.8,125.05349523809532
1254.96,149.70429523809537
1257.13,191.68231428571443
1259.29,197.4656000000001
1261.44,174.3899047619049
1263.6,187.8382857142858
1265.76,162.00328571428582
1267.91,163.02990476190487
1270.06,177.01566666666676
1272.22,158.01085714285725
1274.37,145.54185714285722
1276.51,148.94461904761914
1278.66,140.5074857142858
1280.81,125.47098571428579
1282.95,113.74254285714292
1285.09,95.18225238095245
1287.23,107.88806666666676
1289.37,136.9107000000001
1291.51,157.01477142857152
1293.65,156.29835238095245
1295.78,131.33592380952388
1297.92,101.79713333333339
1300.05,94.35179047619054
1302.18,106.14580000000008
1304.31,126.13440000000007
1306.44,132.8444952380953
1308.57,151.6602857142858
1310.69,156.2510476190477
1312.82,164.09647619047632
1314.94,195.15200000000013
1317.06,199.37309523809535
1319.18,200.0008095238097
1321.3,221.41923809523823
1323.41,229.48852380952394
1325.53,246.54519047619064
1327.64,273.9729523809525
1329.75,285.77519047619063
1331.87,308.38319047619063
1333.98,317.99033333333347
1336.08,310.93295238095254
1338.19,279.64257142857156
1340.3,238.1693809523811
1342.4,212.46880952380968
1344.5,195.68666666666678
1346.6,181.92047619047628
1348.7,156.36338095238102
1350.8,125.06590476190483
1352.9,128.5540857142858
1354.99,120.02091904761912
1357.09,126.99283809523817
1359.18,139.37665238095246
1361.27,143.5083142857144
1363.36,151.53263333333348
1365.45,179.45165714285724
1367.54,176.74366666666677
1369.62,199.3154285714287
1371.7,202.45428571428582
1373.79,190.82914285714298
1375.87,211.06038095238108
1377.95,215.57823809523825
1380.03,230.9079523809525
1382.1,262.81276190476206
1384.18,238.5792380952382
1386.25,199.06600000000012
1388.33,169.08367619047624
1390.4,112.29992380952388
1392.47,85.19171904761912
1394.54,80.18820952380958
1396.6,67.28971428571434
1398.67,69.02057619047623
1400.74,82.52380000000005
1402.8,74.46631904761907
1404.86,82.56238000000003
1406.92,58.90706095238097
1408.98,54.88088380952385
1411.04,60.67398190476195
1413.09,67.23792190476193
1415.15,59.762565714285756
1417.2,54.72313714285715
1419.25,33.8804047619048
1421.3,50.94728571428577
1423.35,89.68438571428578
1425.4,103.04243333333339
1427.45,110.30542857142864
1429.49,92.471480952381
1431.54,82.96715238095243
1433.58,64.40935238095241
1435.62,72.79584571428575
1437.66,55.40991476190478
1439.7,42.772891428571455
1441.74,38.07256619047623
1443.77,56.925377142857194
1445.81,73.89982428571436
1447.84,92.85012190476195
1449.87,90.77315238095242
1451.9,100.04702380952386
1453.93,109.620580952381
1455.96,111.2052333333334
1457.98,117.13080952380957
1460.01,114.48911428571436
1462.03,105.80062857142865
1464.05,131.681361904762
1466.07,156.65088571428583
1468.09,185.61080952380965
1470.11,207.50985714285727
1472.13,247.43952380952396
1474.14,253.53909523809534
1476.16,249.6148571428573
1478.17,250.37704761904774
1480.18,244.82214285714298
1482.19,199.5657142857144
1484.2,186.03271428571438
1486.21,161.45742857142864
1488.21,136.50345714285723
1490.22,120.83373809523815
1492.22,94.11131428571433
1494.22,68.47575714285719
1496.22,69.35219047619053
1498.22,77.49903809523815
1500.22,94.38952190476195
1502.22,68.6394123809524
1504.21,39.95990095238098
1506.21,32.39571142857145
1508.2,39.80094857142861
1510.19,46.887088571428606
1512.18,52.65139333333335
1514.17,55.51978571428575
1516.16,69.82312857142861
1518.14,58.0828285714286
1520.13,70.20137047619052
1522.11,49.890889523809534
1524.09,28.19697904761908
1526.07,32.54627714285717
1528.05,44.937072380952394
1530.03,19.55817571428573
1532.01,37.88428095238097
1533.98,36.53308523809527
1535.96,43.45574380952385
1537.93,70.69869571428576
1539.9,72.11811238095241
1541.87,64.66566666666671
1543.84,84.10216190476196
1545.81,88.61748571428578
1547.78,111.87791428571438
1549.74,147.88296190476197
1551.7,148.44180952380964
1553.67,154.7922380952382
1555.63,152.6958095238096
1557.59,136.81919047619056
1559.55,149.63885714285723
1561.5,162.58361904761912
1563.46,153.0345238095239
1565.41,153.08690476190483
1567.37,130.884380952381
1569.32,127.99857142857152
1571.27,134.47761904761913
1573.22,128.27461904761913
1575.17,132.72385714285724
1577.11,133.15919047619056
1579.06,127.29604761904771
1581.0,143.1350000000001
1582.95,148.72461904761911
1584.89,133.39957142857153
1586.83,139.6373333333334
1588.77,144.62909523809532
1590.7,144.18571428571437
1592.64,140.92738095238101
1594.58,131.11757142857152
1596.51,135.11521428571447
1598.44,166.25530952380998
