Raman Shift,Processed Intensity
331.095,39.56789761904745
333.909,-17.568257142857263
336.721,-18.49672142857144
339.531,9.90970476190478
342.339,25.34948571428573
345.145,35.25936666666668
347.949,28.74348571428572
350.751,21.573147619047656
353.55,41.66314285714287
356.348,31.30974761904762
359.144,27.143309523809535
361.937,15.747138095238103
364.729,14.89602380952386
367.518,42.36513809523816
370.306,110.50220952380965
373.091,190.65551428571447
375.874,293.8885047619049
378.656,310.26600000000013
381.435,267.4248857142858
384.212,178.43137619047621
386.988,90.21015714285716
389.761,21.591433333333352
392.532,-0.8791857142857218
395.301,-26.130719047619056
398.068,-29.28203095238095
400.833,-11.212465714285708
403.596,10.91408666666667
406.358,5.2207161904761765
409.117,-17.644529523809545
411.874,-19.937079047619047
414.629,-18.958736666666674
417.382,-16.29578904761904
420.133,3.7524104761904824
422.882,16.602023333333364
425.629,34.241567619047686
428.374,114.94673380952392
431.117,187.7562647619049
433.858,225.90003333333345
436.597,232.22815238095248
439.334,203.87723809523817
442.069,154.41323809523817
444.802,133.07042857142864
447.533,123.3690476190477
450.262,158.3064285714287
452.989,188.92828571428583
455.714,193.6617857142858
458.438,161.31585238095244
461.159,111.27184761904766
463.878,66.19693809523815
466.595,55.616566666666714
469.31,64.72294761904767
472.024,88.09024761904769
474.735,107.14965714285722
477.444,123.14299523809532
480.152,138.5500476190477
482.857,127.18461904761912
485.561,135.9085238095239
488.262,159.06042857142867
490.962,147.9310476190477
493.659,144.19280952380961
496.355,111.70859523809528
499.048,102.53226666666676
501.74,110.05120476190483
504.43,113.22430476190482
507.118,95.4393952380953
509.804,102.46504761904768
512.488,120.92733333333348
515.17,197.30969523809534
517.85,217.3809761904763
520.528,192.2914095238096
523.204,146.14370000000005
525.878,109.46901904761913
528.551,106.27450000000007
531.221,111.66283809523813
533.89,84.59356190476194
536.556,60.407400000000024
539.221,47.68298095238099
541.883,40.141785714285746
544.544,52.40977619047624
547.203,42.77968571428574
549.86,57.01998571428578
552.515,92.51868571428578
555.168,112.75845238095245
557.819,132.55491904761917
560.469,161.81923809523818
563.116,169.79538095238107
565.761,151.44154285714293
568.405,126.14468571428576
571.047,105.33868571428579
573.687,98.36174761904769
576.324,113.07609523809532
578.96,141.7243952380953
581.594,136.93026666666674
584.227,135.60248095238103
586.857,147.26899047619057
589.485,126.45704285714292
592.112,105.26526666666673
594.737,115.22080476190483
597.359,97.08813809523816
599.98,104.48871904761911
602.599,81.4249428571429
605.216,71.32706666666672
607.831,74.14924761904769
610.445,84.89296428571431
613.056,66.08290000000004
615.666,69.38646904761909
618.274,78.08973333333341
620.88,96.66901666666674
623.484,121.26691904761911
626.086,135.8357000000001
628.686,153.8028761904763
631.284,174.31050952380966
633.881,208.02372380952391
636.476,222.36947619047632
639.068,204.86964761904773
641.659,177.28443333333342
644.249,149.13480000000007
646.836,108.79957619047623
649.421,87.2281095238096
652.005,86.36968095238097
654.587,67.5068285714286
657.166,42.350400000000015
659.745,37.65847619047621
662.321,31.99888095238099
664.895,49.9866666666667
667.468,47.76063809523812
670.038,47.697542857142885
672.607,35.364509523809545
675.174,48.328523809523844
677.739,48.72796666666669
680.303,66.7963666666667
682.864,47.71959523809525
685.424,44.01682380952384
687.982,44.39765714285718
690.538,40.57172095238097
693.092,17.10580190476192
695.645,20.28098476190476
698.195,-0.002568571428559707
700.744,13.536299047619082
703.291,43.89308285714288
705.836,43.77768285714288
708.38,46.32856190476193
710.921,49.970014285714306
713.461,25.793028571428582
715.999,16.983933333333347
718.535,24.538633333333358
721.069,40.59600952380957
723.602,62.81877619047623
726.133,93.20309047619054
728.662,93.03095238095243
731.189,80.06063333333339
733.714,71.8600047619048
736.238,55.66375238095242
738.759,57.277785714285784
741.279,86.93696190476197
743.798,101.20964285714291
746.314,94.37842380952384
748.829,80.86890476190477
751.342,54.297204761904794
753.853,30.707938095238116
756.362,28.0984666666667
758.869,45.03780000000005
761.375,58.761433333333386
763.879,72.31466666666672
766.381,85.9332666666667
768.882,83.61519523809528
771.38,79.02498571428576
773.877,98.54179523809529
776.372,90.35419047619051
778.866,79.03191428571432
781.357,62.716195238095274
783.847,64.405580952381
786.335,68.71781428571434
788.821,92.41343809523816
791.306,113.30075238095246
793.789,124.80711428571435
796.27,118.97911428571436
798.749,126.53031428571435
801.227,137.98370476190485
803.702,129.6719714285715
806.176,152.3562095238096
808.649,168.75014285714298
811.119,182.04380952380967
813.588,179.9511904761906
816.055,184.28171428571437
818.521,166.9877142857144
820.984,169.54504761904772
823.446,162.14419047619057
825.906,152.9278095238096
828.365,149.99118095238106
830.821,144.1443952380953
833.276,135.86407619047628
835.729,151.15046190476198
838.181,139.81345714285723
840.631,132.42515714285724
843.079,140.31933333333342
845.525,115.49677142857148
847.97,102.81535238095245
850.412,111.08537142857149
852.854,114.87898095238101
855.293,106.00703809523816
857.731,93.89890000000004
860.167,59.936642857142886
862.601,62.692804761904824
865.034,71.88288571428578
867.465,82.26992857142862
869.894,100.1409714285715
872.321,108.54507619047624
874.747,101.86470000000008
877.171,120.86334285714294
879.594,116.7804428571429
882.014,111.95100000000008
884.433,104.47167619047624
886.851,104.10633333333341
889.266,130.23762857142867
891.68,159.29597142857153
894.092,187.3306142857144
896.503,224.58154285714298
898.912,209.09842857142868
901.319,188.40709523809534
903.724,183.55712380952392
906.128,146.97924285714294
908.53,150.72281904761917
910.931,155.50430952380958
913.329,128.27853809523816
915.726,122.04768095238103
918.122,128.86164285714293
920.516,119.53205714285724
922.908,133.0611476190477
925.298,126.45088571428576
927.687,103.65652380952389
930.074,127.77533333333344
932.459,134.76242857142864
934.843,139.048761904762
937.225,145.25595238095246
939.605,142.81438095238101
941.984,122.15570952380959
944.361,110.80581428571433
946.736,88.19617619047622
949.11,62.66266190476195
951.482,53.63643809523814
953.853,68.7385952380953
956.222,101.25801428571435
958.589,126.38751428571436
960.954,143.7011714285715
963.318,125.20163809523812
965.68,103.31991904761911
968.041,79.48721428571434
970.4,79.13507238095244
972.757,61.26588904761906
975.113,54.93002095238097
977.467,19.368187142857153
979.819,13.725644761904773
982.17,-0.6138085714285645
984.519,15.304805714285735
986.866,19.150802380952403
989.212,38.64111904761908
991.556,62.73067380952387
993.899,103.04108095238102
996.24,121.43221904761911
998.579,137.71577619047625
1000.92,126.03708571428578
1003.25,95.87463333333339
1005.59,90.23074285714293
1007.92,97.6789190476191
1010.25,93.22132380952385
1012.58,71.09766190476195
1014.91,61.45266666666671
1017.24,88.47845714285722
1019.56,110.46231904761912
1021.88,122.78635238095245
1024.2,124.261480952381
1026.52,120.12640952380961
1028.84,129.19163333333344
1031.16,172.36273333333344
1033.48,197.4021142857144
1035.79,205.88142857142867
1038.1,212.5154761904763
1040.41,218.2087142857144
1042.72,212.10414285714296
1045.03,191.77323809523818
1047.33,180.64438095238106
1049.64,166.90738095238106
1051.94,166.70466666666678
1054.24,160.7023333333334
1056.54,156.28033333333343
1058.84,154.5806476190477
1061.13,137.60255238095246
1063.43,118.7257238095239
1065.72,143.2824000000001
1068.01,135.31908095238103
1070.3,150.40574285714297
1072.59,170.35019523809532
1074.87,177.86533333333347
1077.16,179.85430952380963
1079.44,234.2200476190478
1081.72,256.48442857142874
1084.0,276.78885714285735
1086.28,323.3693333333336
1088.56,408.46166666666704
1090.84,502.01666666666705
1093.11,601.1747142857146
1095.38,627.4095714285718
1097.65,556.9098571428575
1099.92,470.5303333333336
1102.19,407.7922857142859
1104.46,359.93176190476214
1106.72,350.231904761905
1108.98,355.78542857142884
1111.24,395.2086666666669
1113.5,420.26109523809555
1115.76,437.60695238095263
1118.02,427.24333333333357
1120.28,437.5488095238098
1122.53,427.5206190476193
1124.78,402.6800952380954
1127.03,378.78666666666686
1129.28,324.0754761904763
1131.53,275.0676666666668
1133.77,237.47476190476203
1136.02,193.91300000000007
1138.26,146.99933333333342
1140.5,163.0164285714287
1142.74,180.53280952380965
1144.98,203.8794285714287
1147.22,225.14895238095252
1149.45,220.38647619047632
1151.69,211.35138095238108
1153.92,219.70744761904777
1156.15,197.02373333333344
1158.38,178.72621904761917
1160.61,147.19375714285718
1162.83,102.23330476190482
1165.06,84.7470714285715
1167.28,102.16144285714293
1169.5,91.52190000000006
1171.72,93.82610952380956
1173.94,70.7863047619048
1176.16,64.97169523809528
1178.37,59.8564047619048
1180.58,53.72433333333337
1182.8,50.52591619047622
1185.01,35.06885190476192
1187.22,27.780013333333365
1189.42,45.51488142857146
1191.63,33.31953238095238
1193.84,19.621104285714303
1196.04,25.65641142857144
1198.24,23.32905238095241
1200.44,41.39995238095243
1202.64,72.63016285714288
1204.84,60.97136285714287
1207.03,55.18493523809526
1209.23,23.651541904761906
1211.42,18.08529238095241
1213.61,24.2481104761905
1215.8,32.854500952380974
1217.99,46.66676190476194
1220.18,64.54260476190478
1222.36,60.958995238095284
1224.55,61.488280952380975
1226.73,61.60775238095241
1228.91,44.03298571428574
1231.09,41.24157619047622
1233.27,54.99713333333339
1235.44,72.0155190476191
1237.62,63.012895238095275
1239.79,65.56270000000002
1241.96,50.14319523809528
1244.13,77.94729047619056
1246.3,103.92969523809529
1248.47,135.42592857142864
1250.64,146.39121428571434
1252.8,139.16159047619055
1254.96,130.93011904761914
1257.13,154.22366666666676
1259.29,154.61661904761914
1261.44,168.92123809523818
1263.6,194.9506666666668
1265.76,202.51733333333345
1267.91,188.8622380952382
1270.06,165.17952380952386
1272.22,129.8058095238096
1274.37,107.5060476190477
1276.51,120.42699047619058
1278.66,128.38124285714292
1280.81,111.89603809523815
1282.95,99.21329047619054
1285.09,77.14583333333339
1287.23,84.93497619047625
1289.37,90.44176190476195
1291.51,88.52675333333336
1293.65,57.86012952380954
1295.78,48.68346380952384
1297.92,35.333537142857175
1300.05,40.28978285714289
1302.18,41.74623428571432
1304.31,61.56348666666671
1306.44,69.26853333333338
1308.57,95.57908095238102
1310.69,120.35536666666675
1312.82,126.79107619047628
1314.94,134.31795238095248
1317.06,127.89166666666674
1319.18,134.03914285714296
1321.3,167.81100000000015
1323.41,213.6386666666668
1325.53,248.19161904761924
1327.64,254.9011904761906
1329.75,234.2463809523811
1331.87,225.56366666666682
1333.98,255.2840952380954
1336.08,266.9340000000002
1338.19,258.18247619047634
1340.3,215.174761904762
1342.4,195.91315238095248
1344.5,150.06705238095248
1346.6,127.11480000000007
1348.7,111.15361428571434
1350.8,86.32846666666673
1352.9,84.02220476190483
1354.99,93.1414285714286
1357.09,80.11668571428578
1359.18,88.90183809523816
1361.27,112.4985333333334
1363.36,127.81334285714294
1365.45,140.9427714285715
1367.54,137.98338095238103
1369.62,133.46014285714296
1371.7,150.89785714285725
1373.79,162.0117142857144
1375.87,197.2791904761906
1377.95,219.4626666666668
1380.03,234.42009523809537
1382.1,215.5329047619049
1384.18,175.08733333333342
1386.25,140.0836380952382
1388.33,124.85544285714293
1390.4,101.02165238095243
1392.47,90.62998095238099
1394.54,83.5372428571429
1396.6,65.50505238095242
1398.67,74.15210000000005
1400.74,60.382457142857156
1402.8,41.10020000000003
1404.86,43.11393809523814
1406.92,55.803619047619094
1408.98,58.21570000000004
1411.04,69.72980952380956
1413.09,68.43975238095241
1415.15,64.72496190476195
1417.2,81.5359047619048
1419.25,77.10899523809528
1421.3,78.20422380952385
1423.35,77.48607142857148
1425.4,75.95236190476194
1427.45,84.50552857142863
1429.49,89.00010000000003
1431.54,89.81457428571434
1433.58,81.27966952380955
1435.62,52.63062952380955
1437.66,29.959887619047652
1439.7,57.93094380952386
1441.74,61.159955238095286
1443.77,83.92943619047622
1445.81,67.61709047619048
1447.84,39.69578095238098
1449.87,19.781109523809562
1451.9,37.536080952380985
1453.93,55.05258571428576
1455.96,63.517419047619086
1457.98,63.117519047619105
1460.01,97.46813333333343
1462.03,125.42249523809534
1464.05,176.26287142857157
1466.07,226.0804666666668
1468.09,229.34761904761922
1470.11,237.584523809524
1472.13,265.26342857142873
1474.14,273.57133333333354
1476.16,268.1710952380954
1478.17,259.2016666666668
1480.18,218.1354761904763
1482.19,192.73085714285725
1484.2,170.31747619047627
1486.21,151.27309523809535
1488.21,134.78413333333341
1490.22,118.08558571428577
1492.22,93.36455238095243
1494.22,80.61789047619051
1496.22,81.03279047619054
1498.22,92.51117619047628
1500.22,122.33561142857148
1502.22,103.31299000000003
1504.21,56.96443238095238
1506.21,31.335005238095263
1508.2,28.898399047619073
1510.19,19.319190000000024
1512.18,39.54760666666669
1514.17,44.86744761904763
1516.16,33.800795238095276
1518.14,56.155525714285744
1520.13,60.07304238095239
1522.11,39.932972571428586
1524.09,22.6389020952381
1526.07,21.761216571428594
1528.05,24.87041790476193
1530.03,29.156152285714303
1532.01,30.18916733333335
1533.98,32.58784542857145
1535.96,50.63763238095244
1537.93,71.43319000000004
1539.9,93.78370666666672
1541.87,107.64129523809531
1543.84,118.43443809523815
1545.81,107.49656190476198
1547.78,108.54226666666672
1549.74,90.33331904761911
1551.7,83.48902857142863
1553.67,104.24763333333341
1555.63,135.75246666666675
1557.59,143.71823809523818
1559.55,142.33623809523817
1561.5,149.98795238095246
1563.46,141.43566666666675
1565.41,139.2518571428572
1567.37,135.1990476190477
1569.32,118.2780476190477
1571.27,110.58519047619055
1573.22,121.78819047619055
1575.17,129.88771428571437
1577.11,134.8375238095239
1579.06,150.16260952380964
1581.0,141.9118476190477
1582.95,137.37202857142864
1584.89,125.11615238095246
1586.83,139.1453142857144
1588.77,157.2702285714287
1590.7,191.87370476190483
1592.64,180.62342857142866
1594.58,160.64014285714296
1596.51,149.63985714285752
1598.44,163.9575714285722
