Raman Shift,Processed Intensity
331.095,-12.784204999999941
333.909,-14.114392142857167
336.721,-15.261598571428603
339.531,-14.265084285714288
342.339,-1.0215276190476215
345.145,0.858518571428585
347.949,8.62257714285714
350.751,2.0428052380952404
353.55,18.89216476190478
356.348,4.563509523809536
359.144,27.831333333333376
361.937,48.661904761904786
364.729,61.974519047619104
367.518,71.21356190476197
370.306,131.44307619047632
373.091,179.96619523809542
375.874,285.6107904761907
378.656,314.01566666666685
381.435,292.24907619047633
384.212,204.61840000000007
386.988,116.47950000000004
389.761,54.76083333333338
392.532,34.392014285714296
395.301,-16.07706666666667
398.068,-3.6192295238095014
400.833,11.984203809523828
403.596,16.6199123809524
406.358,21.128062857142854
409.117,3.159515904761885
411.874,-32.34792052380951
414.629,-6.741087714285702
417.382,-0.9369551904761915
420.133,8.815194190476209
422.882,12.933856619047644
425.629,57.88614161904771
428.374,119.71182380952393
431.117,206.8798380952382
433.858,263.0506285714287
436.597,261.5526761904763
439.334,204.09571428571437
442.069,160.20009523809532
444.802,132.1012857142858
447.533,113.4640000000001
450.262,144.4770476190477
452.989,166.71152380952392
455.714,195.3578761904763
458.438,184.1787714285715
461.159,160.55640476190482
463.878,104.44520000000004
466.595,61.27566190476193
469.31,60.47920000000006
472.024,83.58307619047625
474.735,80.25762857142863
477.444,77.60225714285718
480.152,100.66900000000008
482.857,107.08177142857151
485.561,116.46495238095245
488.262,122.87181428571434
490.962,101.45076666666671
493.659,84.92222857142863
496.355,95.00654285714292
499.048,78.09108095238098
501.74,73.03982857142863
504.43,74.38340000000004
507.118,65.98586190476196
509.804,102.09221904761912
512.488,128.47156190476198
515.17,151.7977000000001
517.85,173.7922952380953
520.528,170.319761904762
523.204,152.53041904761912
525.878,135.57401428571436
528.551,118.45795238095248
531.221,112.76072380952385
533.89,91.2990571428572
536.556,75.65149523809528
539.221,57.30119523809527
541.883,40.397790476190515
544.544,45.37666190476194
547.203,75.4347476190477
549.86,86.29286190476196
552.515,110.43340476190484
555.168,125.95761904761912
557.819,139.3476857142858
560.469,133.03809523809534
563.116,149.1770476190477
565.761,121.0552857142858
568.405,140.77309523809535
571.047,160.33519047619058
573.687,179.1747142857144
576.324,176.3436952380953
578.96,140.75086190476196
581.594,119.63791428571437
584.227,131.62744285714294
586.857,120.62710000000007
589.485,133.06813809523817
592.112,145.81034761904766
594.737,112.28442380952387
597.359,118.39742380952386
599.98,99.38881904761908
602.599,57.307400000000044
605.216,71.43985714285722
607.831,93.45383809523815
610.445,120.20653809523817
613.056,124.26977142857145
615.666,123.0715333333334
618.274,111.70668571428578
620.88,109.98384761904768
623.484,102.42591428571436
626.086,119.0311714285715
628.686,123.84573333333344
631.284,154.20048571428583
633.881,190.09329523809535
636.476,215.66452380952393
639.068,219.38752380952394
641.659,197.25895238095248
644.249,181.08539047619055
646.836,134.57705238095244
649.421,99.3968571428572
652.005,85.54080000000005
654.587,85.14730952380958
657.166,64.2118047619048
659.745,70.25371428571432
662.321,42.886990476190505
664.895,48.20192380952386
667.468,52.38375714285718
670.038,57.23670476190478
672.607,40.803042857142884
675.174,62.26757619047624
677.739,65.6725333333334
680.303,116.67891904761913
682.864,115.9954190476191
685.424,116.75915238095244
687.982,109.67885238095243
690.538,80.74872380952382
693.092,63.39194761904767
695.645,63.98384285714287
698.195,15.519100000000023
700.744,29.80187714285718
703.291,35.112827142857135
705.836,9.875516190476212
708.38,24.418453809523832
710.921,35.594111428571445
713.461,33.73124619047624
715.999,65.8256247619048
718.535,79.39676666666672
721.069,102.72625714285721
723.602,121.71469523809532
726.133,127.92986666666673
728.662,105.89190000000005
731.189,94.74039047619056
733.714,85.94796666666673
736.238,81.32086190476197
738.759,90.04611904761913
741.279,103.2163190476191
743.798,102.39985714285723
746.314,110.07020476190483
748.829,110.60564761904767
751.342,110.24184761904769
753.853,116.54754285714291
756.362,120.04481904761911
758.869,122.9695333333334
761.375,112.89104761904767
763.879,112.56964000000006
766.381,89.76541619047622
768.882,67.85755619047623
771.38,56.178302857142896
773.877,67.63131809523816
776.372,86.54855428571435
778.866,114.11965904761911
781.357,87.34370952380955
783.847,69.17244761904766
786.335,67.2242190476191
788.821,89.49889523809532
791.306,103.04366666666674
793.789,122.76327619047628
796.27,142.22913333333344
798.749,158.82209523809536
801.227,181.6849047619049
803.702,206.34185714285726
806.176,192.7459523809525
808.649,167.32609523809532
811.119,180.17857142857156
813.588,173.73219047619057
816.055,160.7022380952382
818.521,167.2325714285715
820.984,160.80046666666678
823.446,124.93053809523818
825.906,133.3386476190477
828.365,131.97817619047626
830.821,140.04107619047628
833.276,152.8622523809525
835.729,167.6335333333334
838.181,135.2137095238096
840.631,127.79503809523817
843.079,121.80795714285722
845.525,120.39684761904769
847.97,127.80206190476198
850.412,137.3109495238096
852.854,101.6875471428572
855.293,74.31493238095241
857.731,69.62378904761908
860.167,46.13999714285718
862.601,46.723114761904796
865.034,53.08956571428573
867.465,42.47975333333337
869.894,53.37238380952387
872.321,91.1506552380953
874.747,91.3884428571429
877.171,84.80253333333339
879.594,98.82402857142864
882.014,107.1220238095239
884.433,123.46102857142866
886.851,132.55787619047626
889.266,121.46290476190484
891.68,110.22614285714295
894.092,132.278761904762
896.503,151.90942857142863
898.912,156.92985714285723
901.319,169.7717142857144
903.724,159.34233333333344
906.128,174.40602857142866
908.53,171.10831428571436
910.931,160.07105714285723
913.329,146.48706666666675
915.726,124.40696190476197
918.122,101.88099047619056
920.516,93.95922857142862
922.908,82.21563809523816
925.298,94.17644761904768
927.687,97.27283333333338
930.074,105.9360476190477
932.459,120.88286190476197
934.843,107.25839047619054
937.225,113.7793857142858
939.605,102.3053666666667
941.984,69.41009047619053
944.361,79.47687142857149
946.736,82.60311428571433
949.11,74.79105714285717
951.482,71.85237142857147
953.853,62.64634761904767
956.222,67.22253809523815
958.589,85.0590571428572
960.954,95.63395238095244
963.318,103.80650952380958
965.68,112.19735238095247
968.041,124.09397619047625
970.4,118.59317619047624
972.757,101.07748571428576
975.113,68.40543809523813
977.467,31.769228571428584
979.819,12.931828571428593
982.17,39.65648571428576
984.519,50.08713809523813
986.866,69.08197142857146
989.212,72.78478095238097
991.556,67.95850476190482
993.899,105.22275238095249
996.24,136.91166666666675
998.579,148.64460952380958
1000.92,137.46987619047624
1003.25,105.81642380952387
1005.59,78.63707619047625
1007.92,88.12222380952386
1010.25,76.51020952380958
1012.58,85.99137142857147
1014.91,84.89912857142863
1017.24,103.23334761904768
1019.56,106.27946190476196
1021.88,103.65608571428578
1024.2,105.74400476190483
1026.52,107.92348095238103
1028.84,112.0511238095239
1031.16,141.79330000000007
1033.48,154.482561904762
1035.79,166.7371904761906
1038.1,177.4136190476192
1040.41,189.12976190476203
1042.72,207.50380952380968
1045.03,225.72557142857156
1047.33,215.7937142857144
1049.64,192.27861904761915
1051.94,171.08376190476199
1054.24,151.16061904761915
1056.54,172.5556190476192
1058.84,194.02938095238108
1061.13,202.34228571428582
1063.43,203.39759047619057
1065.72,181.00328095238103
1068.01,155.53913333333344
1070.3,156.57533809523818
1072.59,164.39570476190488
1074.87,200.18947142857158
1077.16,246.3833047619049
1079.44,264.3567142857145
1081.72,299.2984285714288
1084.0,327.7782857142859
1086.28,368.27076190476214
1088.56,451.7740952380956
1090.84,535.858047619048
1093.11,622.4256190476194
1095.38,667.6655714285716
1097.65,621.1951904761908
1099.92,523.0604285714288
1102.19,421.02100000000024
1104.46,359.4086190476193
1106.72,357.2692380952384
1108.98,373.98200000000026
1111.24,422.44985714285747
1113.5,447.5281428571431
1115.76,475.5957142857146
1118.02,518.9365714285717
1120.28,520.0253809523812
1122.53,487.71733333333356
1124.78,455.7251904761907
1127.03,381.57076190476215
1129.28,329.6809047619049
1131.53,291.05400000000014
1133.77,237.8787142857144
1136.02,206.81985714285724
1138.26,180.44752380952391
1140.5,167.85509523809537
1142.74,177.42204761904776
1144.98,200.43252380952396
1147.22,235.12319047619064
1149.45,265.9685714285716
1151.69,252.4908571428573
1153.92,236.26038095238107
1156.15,198.6085714285715
1158.38,157.53438095238107
1160.61,140.60795238095247
1162.83,141.30426666666676
1165.06,123.90763333333342
1167.28,111.65524761904767
1169.5,84.35523333333336
1171.72,62.72097619047622
1173.94,50.13223333333338
1176.16,76.25477619047625
1178.37,92.13537619047624
1180.58,91.05884761904767
1182.8,98.26256380952387
1185.01,83.26958571428574
1187.22,49.22215190476192
1189.42,29.024484761904773
1191.63,15.485555714285734
1193.84,15.938274285714318
1196.04,37.953737619047644
1198.24,33.1030642857143
1200.44,38.43367523809526
1202.64,31.659739523809534
1204.84,20.87641904761906
1207.03,18.08373000000001
1209.23,16.043672380952394
1211.42,17.804035238095274
1213.61,34.41269619047621
1215.8,59.1557628571429
1217.99,58.366938095238126
1220.18,65.76100000000004
1222.36,65.48139047619051
1224.55,86.95728952380958
1226.73,64.80851571428576
1228.91,77.89326476190479
1231.09,62.92650333333336
1233.27,51.433002857142895
1235.44,64.03303476190482
1237.62,83.87040380952385
1239.79,83.27964285714293
1241.96,91.30994761904766
1244.13,91.72434285714291
1246.3,97.28624285714292
1248.47,100.14029523809529
1250.64,100.2877714285715
1252.8,119.6827714285715
1254.96,130.5177142857144
1257.13,169.65109523809537
1259.29,201.70400000000012
1261.44,198.1067142857144
1263.6,194.3374761904763
1265.76,186.92214285714294
1267.91,160.0055238095239
1270.06,157.39919047619057
1272.22,143.96223809523818
1274.37,146.17304761904774
1276.51,144.74833333333345
1278.66,154.30909523809532
1280.81,145.0956857142858
1282.95,125.49173333333339
1285.09,107.97522857142863
1287.23,114.02498095238103
1289.37,128.11940952380962
1291.51,132.3085333333334
1293.65,117.92811904761909
1295.78,97.4570571428572
1297.92,83.04014761904767
1300.05,86.91803809523819
1302.18,118.33130000000008
1304.31,116.71066666666673
1306.44,142.01123809523824
1308.57,181.47376190476203
1310.69,195.38604761904776
1312.82,203.7031904761906
1314.94,199.57052380952393
1317.06,165.03752380952392
1319.18,165.34538095238108
1321.3,178.2104285714287
1323.41,194.25433333333348
1325.53,226.05080952380968
1327.64,269.69761904761924
1329.75,306.76823809523825
1331.87,328.69390476190495
1333.98,328.1904285714287
1336.08,297.8798095238096
1338.19,257.7162857142859
1340.3,219.9879523809525
1342.4,205.7923333333335
1344.5,182.6077142857144
1346.6,167.72161904761913
1348.7,146.0888095238096
1350.8,155.56790476190486
1352.9,153.0657142857144
1354.99,151.15585714285723
1357.09,143.83990476190485
1359.18,151.45319047619057
1361.27,134.711761904762
1363.36,154.99785714285724
1365.45,167.9801904761906
1367.54,158.8982380952382
1369.62,185.27700000000013
1371.7,202.59404761904776
1373.79,226.8510952380954
1375.87,258.38238095238114
1377.95,279.7610476190478
1380.03,265.17809523809535
1382.1,249.872761904762
1384.18,195.56004761904774
1386.25,167.19366666666676
1388.33,132.29776190476198
1390.4,129.53995238095246
1392.47,116.25382380952387
1394.54,105.72578571428578
1396.6,85.19419047619051
1398.67,67.89760000000004
1400.74,62.83596666666672
1402.8,76.96184761904766
1404.86,71.98945238095243
1406.92,81.06150952380958
1408.98,83.89201428571434
1411.04,81.052020952381
1413.09,62.96958761904764
1415.15,46.453565714285745
1417.2,55.12243619047626
1419.25,95.16576571428578
1421.3,112.91572095238101
1423.35,121.18094476190481
1425.4,116.7693333333334
1427.45,99.77494285714292
1429.49,93.57741904761912
1431.54,103.1274190476191
1433.58,84.70895238095243
1435.62,85.17740952380959
1437.66,87.81624761904767
1439.7,85.86169523809528
1441.74,64.597180952381
1443.77,49.30605714285716
1445.81,53.17626666666672
1447.84,64.58624285714289
1449.87,75.7239333333334
1451.9,97.01503809523814
1453.93,98.26618571428578
1455.96,85.47433809523817
1457.98,90.68398571428578
1460.01,103.32066666666675
1462.03,109.38097619047628
1464.05,148.7667000000001
1466.07,185.04565714285724
1468.09,203.64319047619063
1470.11,225.9844285714287
1472.13,252.4946666666668
1474.14,241.31314285714296
1476.16,248.57957142857157
1478.17,249.76604761904773
1480.18,200.29785714285723
1482.19,166.50488571428576
1484.2,120.90762380952384
1486.21,99.59799047619055
1488.21,79.47731428571434
1490.22,81.54204761904765
1492.22,60.6461428571429
1494.22,65.59601428571432
1496.22,63.2455190476191
1498.22,71.06786190476194
1500.22,75.34567619047623
1502.22,51.21892857142859
1504.21,33.39907142857145
1506.21,38.502428571428595
1508.2,43.95502380952384
1510.19,39.51627619047621
1512.18,42.707680952380954
1514.17,19.955557142857153
1516.16,23.63877142857146
1518.14,24.08866666666668
1520.13,29.493914285714304
1522.11,28.281409523809526
1524.09,12.830538095238104
1526.07,21.282752380952413
1528.05,38.065339523809534
1530.03,26.796175238095252
1532.01,20.807571904761907
1533.98,18.71770571428573
1535.96,24.33528619047624
1537.93,57.42162761904767
1539.9,89.7378752380953
1541.87,90.33138571428574
1543.84,78.63037619047623
1545.81,68.1108428571429
1547.78,70.53464761904767
1549.74,83.04454761904768
1551.7,116.40236190476199
1553.67,132.8465857142858
1555.63,129.23440476190484
1557.59,124.18516190476197
1559.55,113.08030000000008
1561.5,113.58725714285723
1563.46,117.27803333333341
1565.41,123.2485333333334
1567.37,117.21360000000007
1569.32,110.31699047619053
1571.27,95.03581428571434
1573.22,71.60938095238099
1575.17,87.75281428571435
1577.11,100.51478571428578
1579.06,123.61052857142866
1581.0,132.42265238095243
1582.95,137.42839047619054
1584.89,103.39101428571436
1586.83,96.74030476190481
1588.77,103.2396857142858
1590.7,127.31905714285723
1592.64,139.45655238095247
1594.58,154.08205238095252
1596.51,143.53046666666677
1598.44,91.8033285714285
