Raman Shift,Processed Intensity
331.095,77.88963208131099
333.909,22.080089425826372
336.721,33.55137820425489
339.531,84.13683952050496
342.339,143.90792525773486
345.145,174.6503963251089
347.949,176.26909233312062
350.751,169.2879393641615
353.55,168.89757679070408
356.348,194.57441266491787
359.144,203.36634577495397
361.937,196.46420198694432
364.729,197.77317058699418
367.518,192.91281205175756
370.306,237.50278010472312
373.091,311.1628294867919
375.874,383.27472848876187
378.656,410.3632191028646
381.435,407.619834317155
384.212,355.71242969562036
386.988,263.26138162494954
389.761,192.55388079939712
392.532,120.59155903898545
395.301,44.99525896484829
398.068,6.2431370079102635
400.833,5.7182902270856175
403.596,-25.148378777270864
406.358,-4.592439807064693
409.117,-13.087355867292445
411.874,-22.582573251712347
414.629,-51.74161209404019
417.382,-38.94206302533166
420.133,-60.18034809000574
422.882,-35.59553490377266
425.629,10.197321212764564
428.374,56.53573322121474
431.117,78.04309645134754
433.858,164.0096227609024
436.597,187.2018461239577
439.334,169.62450917168917
442.069,138.2348306855074
444.802,40.132963566391936
447.533,-2.24754719577777
450.262,54.24116963758024
452.989,129.36605523736625
455.714,198.0845308224084
458.438,243.97305063222075
461.159,154.7032739473766
463.878,82.47061806227293
466.595,53.80376363883033
469.31,46.469398155447834
472.024,37.3769593559482
474.735,35.102426317573645
477.444,46.697824804704396
480.152,31.310260226320224
482.857,55.1342875120622
485.561,95.98333331598542
488.262,122.67064526389822
490.962,149.91405625323432
493.659,176.5740820862561
496.355,134.7491619603943
499.048,100.5375656252595
501.74,107.94215768250979
504.43,149.9656380761976
507.118,200.1819730592997
509.804,235.49830235072614
512.488,258.8692272447074
515.17,297.5349082439916
517.85,371.35440078828697
520.528,416.948514792221
523.204,431.46172180235044
525.878,450.3240621541727
528.551,405.4416235577055
531.221,383.529876825929
533.89,403.923202079417
536.556,440.8129863795384
539.221,446.9619118378523
541.883,459.7991961064554
544.544,431.1348804873778
547.203,419.7312608991224
549.86,402.01717598606456
552.515,448.8022952278525
555.168,483.18188323927325
557.819,489.2034688320364
560.469,496.8668474098854
563.116,470.45741669702693
565.761,412.11760770465935
568.405,434.41831569749183
571.047,457.549378779318
573.687,462.84338981191877
576.324,458.1566511911137
578.96,423.0596534323249
581.594,361.31326804186256
584.227,345.05922610248854
586.857,306.29631114468975
589.485,292.11845677985957
592.112,282.8099871906161
594.737,295.8456195258864
597.359,296.5095139150335
599.98,328.75241872008655
602.599,359.47738721653786
605.216,407.8254942741396
607.831,468.4615530376973
610.445,516.8122125602445
613.056,526.1611982933632
615.666,555.6016954346387
618.274,561.5601608465445
620.88,590.7487064038969
623.484,660.4508156746424
626.086,738.3784891720729
628.686,763.767484845132
631.284,807.9963680925343
633.881,805.3960379673554
636.476,798.3449676673349
639.068,819.078730739463
641.659,825.2138129988552
644.249,771.4142815904734
646.836,671.7251207175191
649.421,536.7150911793515
652.005,412.95292324272987
654.587,327.3882714178244
657.166,257.73266923421943
659.745,182.22143639787055
662.321,109.4232049956886
664.895,81.23992189059209
667.468,72.00208921180365
670.038,90.37352865466528
672.607,88.44662197092794
675.174,64.170884792371
677.739,83.0672547401391
680.303,91.94237953407765
682.864,79.79338129254984
685.424,75.56976368939468
687.982,45.84008101565405
690.538,24.172892955579755
693.092,17.232005076935366
695.645,10.871709321289472
698.195,-7.244163499264232
700.744,-16.785094185841444
703.291,-20.70624831556529
705.836,-8.43894541241616
708.38,-4.700177539480364
710.921,18.555012736868548
713.461,38.75258206335161
715.999,50.88996409530591
718.535,51.9646444077689
721.069,48.783687787514054
723.602,49.43993219175559
726.133,68.40723032589608
728.662,81.06426264985043
731.189,71.07549324151114
733.714,69.39117327925965
736.238,42.39020166733326
738.759,11.45155708976904
741.279,-1.8552223166093427
743.798,-14.531940241573466
746.314,-16.532691099932663
748.829,-9.478142451025633
751.342,11.249228707502425
753.853,17.933707469266437
756.362,3.526340156334072
758.869,17.45445726595267
761.375,21.431196417272304
763.879,25.45550148854477
766.381,33.478788420987485
768.882,39.21446816549974
771.38,25.61413629605204
773.877,40.486619765922114
776.372,33.16464271155655
778.866,69.45720654214688
781.357,66.17339860063134
783.847,87.55096272946435
786.335,98.0182031697168
788.821,93.67017417446345
791.306,93.26867914597892
793.789,121.19465072531125
796.27,91.73386421518921
798.749,104.60074624103004
801.227,136.79551674527602
803.702,172.69942621982955
806.176,256.9795167480072
808.649,301.68385923697474
811.119,271.6701239835131
813.588,271.55796076359275
816.055,241.63375987433028
818.521,228.94588936642003
820.984,211.30469418132498
823.446,183.99678100275628
825.906,142.16596977482163
828.365,132.52757855350796
830.821,129.51127978673208
833.276,145.3087184991598
835.729,123.15922571511828
838.181,124.92124616722299
840.631,99.73900410024407
843.079,67.2805976463967
845.525,75.88085510539918
847.97,58.87466741500907
850.412,40.69222538346003
852.854,28.763780731424276
855.293,37.18631189587563
857.731,33.29495173871919
860.167,38.615367636369
862.601,17.863760616942045
865.034,3.327816878406793
867.465,-19.37138831231664
869.894,-1.231772434541199
872.321,22.415467709096447
874.747,25.90585317622572
877.171,45.09876292547142
879.594,53.52028814290429
882.014,50.50608656848976
884.433,42.82042729872455
886.851,56.560949874980906
889.266,33.87294718138014
891.68,58.66364834266278
894.092,91.69745400301417
896.503,86.45307636679263
898.912,79.45686971545274
901.319,89.23520854351341
903.724,66.17162759928624
906.128,83.60205716370297
908.53,119.19577261485642
910.931,112.3363439925397
913.329,92.97877603898314
915.726,78.88760062053802
918.122,41.16068343507959
920.516,37.46731643369276
922.908,55.33392928997773
925.298,61.81075325030429
927.687,62.90038974596928
930.074,62.03399805297295
932.459,54.166530570847044
934.843,41.72911095862719
937.225,48.295697985108745
939.605,47.297368426725825
941.984,75.16517139399821
944.361,83.90155408654869
946.736,87.98512088145412
949.11,50.89444004064853
951.482,38.965183751658515
953.853,19.05679197786526
956.222,1.6953267849530675
958.589,-9.450339999305925
960.954,10.145756112825438
963.318,-2.8476160913114654
965.68,34.66682714949911
968.041,52.54821429223966
970.4,35.03656220819494
972.757,12.8480103776742
975.113,6.031959846642849
977.467,-15.457502102365652
979.819,-11.23779632694982
982.17,6.7402401223391735
984.519,7.763777671073058
986.866,-1.7372499433877238
989.212,8.286039419146391
991.556,31.215757418892736
993.899,49.43390712671089
996.24,77.6557124248393
998.579,72.97723312191943
1000.92,24.161075306111798
1003.25,2.4935302696421786
1005.59,-11.358286566653533
1007.92,-3.0131038239801455
1010.25,31.576885541486718
1012.58,60.74506940929291
1014.91,46.20565182550354
1017.24,56.76793911769391
1019.56,56.717292676613624
1021.88,36.95798649974904
1024.2,60.29892187774635
1026.52,58.501246842736236
1028.84,54.325979326477864
1031.16,65.15305888992361
1033.48,82.98135083373654
1035.79,76.7143645945273
1038.1,83.39835309346745
1040.41,82.8413644658624
1042.72,77.2322937907145
1045.03,91.99803005839067
1047.33,97.89869837637502
1049.64,98.88480693693464
1051.94,92.76391779430469
1054.24,124.2006509752091
1056.54,122.33573620842958
1058.84,120.78601703532786
1061.13,96.78731206321777
1063.43,98.33727621874891
1065.72,77.76683342985143
1068.01,114.12113311721646
1070.3,129.9690781143454
1072.59,136.54618592092493
1074.87,164.80221186096833
1077.16,185.54401033619206
1079.44,182.3879198889133
1081.72,204.18833874114466
1084.0,218.2758241432116
1086.28,253.83804886523035
1088.56,321.4912338790589
1090.84,400.08967627833863
1093.11,467.3924200556821
1095.38,502.5394506893822
1097.65,486.38503258726064
1099.92,447.35485605433223
1102.19,374.1603271176057
1104.46,311.4176192556506
1106.72,265.69529655672886
1108.98,254.514317829314
1111.24,269.9194692840399
1113.5,332.3841305489766
1115.76,384.52456449443434
1118.02,432.3856356291881
1120.28,464.58367135385333
1122.53,444.6397994047288
1124.78,398.7418567262107
1127.03,351.3158221527324
1129.28,297.12105861451505
1131.53,255.6312696290329
1133.77,208.6535510305739
1136.02,201.32839508075335
1138.26,203.7487421980734
1140.5,208.72188983034266
1142.74,213.76949656518673
1144.98,206.6990148119919
1147.22,198.9370282457494
1149.45,239.24354163185444
1151.69,278.61674684138075
1153.92,305.00731267588026
1156.15,289.27076993026503
1158.38,243.64370597950938
1160.61,188.50567365106326
1162.83,148.52205247822212
1165.06,137.97738614397053
1167.28,146.91824373435065
1169.5,124.72465242039993
1171.72,78.77676823532761
1173.94,51.740594470738415
1176.16,60.47274769190244
1178.37,66.97284280063764
1180.58,60.52635428867393
1182.8,37.27604891958481
1185.01,-7.778010160711119
1187.22,-14.254649789638052
1189.42,-10.677296963166555
1191.63,2.0498339839602977
1193.84,-13.691590165481784
1196.04,-18.18640179705858
1198.24,-20.29069349094948
1200.44,-11.622294781277105
1202.64,-33.94172704139123
1204.84,-21.056970060113144
1207.03,-16.82346794084856
1209.23,-4.71556727187226
1211.42,25.69728054125426
1213.61,44.0838389577134
1215.8,23.30345310703251
1217.99,26.310800140363654
1220.18,17.87016339129127
1222.36,20.69828033141721
1224.55,57.75005033357297
1226.73,94.74233950708594
1228.91,101.48731146222917
1231.09,116.7495675984785
1233.27,90.48423977372727
1235.44,90.02746392588051
1237.62,82.66780607540386
1239.79,84.97959308976988
1241.96,104.8229101145696
1244.13,137.20074086176646
1246.3,183.68753646938603
1248.47,253.85778436120108
1250.64,288.66695805880636
1252.8,330.3562765174993
1254.96,357.2146063193022
1257.13,406.5308400564693
1259.29,485.92722709593613
1261.44,582.7879424390126
1263.6,638.7828936763135
1265.76,686.2486707998341
1267.91,654.4742579197855
1270.06,617.4629354576168
1272.22,567.5513251961845
1274.37,545.3141496156288
1276.51,481.80232456259273
1278.66,444.5429566813423
1280.81,378.2060075115544
1282.95,322.36619568134097
1285.09,288.5982324336064
1287.23,286.23872381907336
1289.37,269.0052157464463
1291.51,263.37714379447925
1293.65,264.4053544526146
1295.78,281.23591207590425
1297.92,297.49104869707435
1300.05,302.22154241002136
1302.18,308.3352862295003
1304.31,290.5020474270043
1306.44,291.3439411523548
1308.57,303.5306659600567
1310.69,306.017596478511
1312.82,306.9505427458969
1314.94,333.3324143079451
1317.06,321.1660747919191
1319.18,325.5971964805851
1321.3,326.7237815528624
1323.41,319.834254753039
1325.53,310.9312703457067
1327.64,341.63647145165055
1329.75,348.76191605040185
1331.87,370.40531250660274
1333.98,370.1404931916072
1336.08,351.30312620032487
1338.19,305.7526175442458
1340.3,258.63401334447303
1342.4,218.47323535808664
1344.5,175.46279269498086
1346.6,152.79511258231992
1348.7,121.85301398613592
1350.8,135.68589551865603
1352.9,109.58116144085966
1354.99,104.15945718885087
1357.09,88.23180966213295
1359.18,105.5139103690226
1361.27,83.43563666730597
1363.36,99.9029539572739
1365.45,81.3455321604747
1367.54,97.71674315084738
1369.62,136.01746770966838
1371.7,150.86752152811187
1373.79,153.74374787647525
1375.87,147.69430074959814
1377.95,151.3862613456149
1380.03,173.53420692565624
1382.1,179.42401776878637
1384.18,130.57954126980007
1386.25,113.38163698939002
1388.33,86.68722170432079
1390.4,68.73402874331032
1392.47,81.56917684672248
1394.54,58.38250093102624
1396.6,34.98273999610774
1398.67,13.226105984973628
1400.74,-7.793242594647836
1402.8,-10.886056804043392
1404.86,7.422481316336416
1406.92,2.1308555432744924
1408.98,9.951692042509421
1411.04,-7.021572802496394
1413.09,-7.31469100317554
1415.15,27.070256602954032
1417.2,37.13105250607964
1419.25,59.81772437583891
1421.3,83.93731060730079
1423.35,93.1538639621781
1425.4,91.65512187671425
1427.45,92.29536724575723
1429.49,80.54781301635808
1431.54,84.93317725755628
1433.58,83.44825823017072
1435.62,101.28022374229613
1437.66,94.99709098099925
1439.7,54.88106348686688
1441.74,41.88091574760506
1443.77,17.278663505923078
1445.81,6.689567400753958
1447.84,32.87166041799492
1449.87,54.86861040752706
1451.9,57.62877375632388
1453.93,90.57663001394076
1455.96,104.56516889896125
1457.98,110.11399159115217
1460.01,140.12360249981361
1462.03,183.78017722259915
1464.05,228.03175907577042
1466.07,288.3025508625392
1468.09,364.7786352128428
1470.11,453.7413139707371
1472.13,566.9480666294066
1474.14,686.8706516233151
1476.16,803.0284457155901
1478.17,903.9408310044589
1480.18,953.6033914534942
1482.19,973.1545856123378
1484.2,930.5900383850392
1486.21,826.2863566079243
1488.21,709.1916112941349
1490.22,586.3491532114917
1492.22,443.84999988893287
1494.22,323.4042702419986
1496.22,240.29357157926484
1498.22,189.9424342278321
1500.22,153.06117473023232
1502.22,115.88399713657668
1504.21,84.59757048718006
1506.21,51.388653914234965
1508.2,10.729816981574913
1510.19,4.427064786350229
1512.18,-5.713489320250119
1514.17,-15.123712917041075
1516.16,-10.663924204446403
1518.14,-19.19431465918342
1520.13,-23.527325630869882
1522.11,-25.189549842200222
1524.09,-5.850301548299967
1526.07,4.202191799223783
1528.05,5.965547632231164
1530.03,21.723223844732047
1532.01,49.04451479422346
1533.98,41.879785996909504
1535.96,50.51285168006348
1537.93,46.98954281058536
1539.9,28.92722750450912
1541.87,45.41956953175054
1543.84,56.41747729704775
1545.81,57.014814725661836
1547.78,62.44839786336729
1549.74,68.76465814310859
1551.7,66.86725803260333
1553.67,108.65994477718777
1555.63,123.47511842837321
1557.59,137.07382844383392
1559.55,129.1219607635876
1561.5,119.80928202902987
1563.46,115.89705523054522
1565.41,120.24184583130454
1567.37,106.74789931963619
1569.32,119.2718997137797
1571.27,108.0991566380676
1573.22,115.5150304943445
1575.17,109.66207191910098
1577.11,93.25430409774845
1579.06,88.52960031698512
1581.0,83.58301389812004
1582.95,55.46201289229566
1584.89,40.83314334714032
1586.83,43.93440685914197
1588.77,46.19430479268158
1590.7,57.23183488002269
1592.64,44.09458305939302
1594.58,13.949196265446062
1596.51,2.2004266482863386
1598.44,31.848271030596152
