Raman Shift,Processed Intensity
331.095,81.55850492879881
333.909,81.50156115461141
336.721,83.06629591667343
339.531,90.75271736630748
342.339,108.72751662413702
345.145,152.22883783620773
347.949,161.0662863253151
350.751,124.43046055187324
353.55,120.55962693191532
356.348,120.73972798844079
359.144,154.06629526465576
361.937,183.1111241419826
364.729,204.39847246759746
367.518,234.35744965815547
370.306,280.08392961304435
373.091,342.95960648478285
375.874,448.3186694970377
378.656,495.1620968102702
381.435,446.5386160540388
384.212,364.3066172402637
386.988,212.13416091457339
389.761,114.64184345051353
392.532,65.4504242485159
395.301,71.70464341105753
398.068,68.26370608449042
400.833,76.17748108658498
403.596,44.82936620074406
406.358,19.412486803552383
409.117,-29.403629317192554
411.874,-36.61590095398742
414.629,-59.45911389967705
417.382,-66.12020168642539
420.133,-48.64300652028305
422.882,-31.213999347323806
425.629,17.07580200609982
428.374,102.37367114965355
431.117,147.5413413702022
433.858,178.48831846241956
436.597,181.98138403559278
439.334,150.9779083442395
442.069,114.86392502348463
444.802,109.16839630061804
447.533,93.9917639209566
450.262,122.72021435939496
452.989,189.35899165102956
455.714,249.72285307891798
458.438,234.3408105761223
461.159,170.4561102229968
463.878,99.21668793495292
466.595,51.48467276926567
469.31,56.97922356523168
472.024,55.65746082240639
474.735,56.857308524059135
477.444,73.67843690727022
480.152,132.22035369894593
482.857,127.01097728295281
485.561,120.53044796248423
488.262,91.87779636528921
490.962,95.96142137270863
493.659,98.97528233442017
496.355,132.77985318795754
499.048,97.28307657822597
501.74,95.15465131035035
504.43,115.73079599300127
507.118,160.72853649124363
509.804,224.34094576033522
512.488,295.284764631916
515.17,351.1337368859031
517.85,395.1757538462007
520.528,426.6033323097381
523.204,402.513616285039
525.878,414.4321882545905
528.551,411.9797375800731
531.221,407.87206224092415
533.89,405.49149914432564
536.556,426.41073538758246
539.221,410.72614333002
541.883,410.5815918553576
544.544,387.31130525312756
547.203,375.8208173381863
549.86,392.8726874749909
552.515,410.1341213637843
555.168,436.0341156363038
557.819,447.90631673720463
560.469,454.65568932929
563.116,478.6156608892147
565.761,506.45288535080954
568.405,492.16724484364113
571.047,494.71089905062126
573.687,447.0835250418145
576.324,413.2846999653889
578.96,391.4567599290431
581.594,342.12289697667256
584.227,299.61573225551274
586.857,297.9344606118493
589.485,250.74485232958705
592.112,260.1411596307239
594.737,291.2175469853505
597.359,297.8299976121293
599.98,333.12012474067706
602.599,363.56279239775677
605.216,374.9661171458474
607.831,430.09051744076305
610.445,464.3630010845113
613.056,478.8295479162398
615.666,484.53606393176415
618.274,499.2902877840356
620.88,549.3760782360046
623.484,606.220082565861
626.086,678.9631668770394
628.686,712.3651797415564
631.284,719.4240015576352
633.881,719.8041177168443
636.476,729.6937631998244
639.068,699.9477814577199
641.659,696.3257213888528
644.249,640.3013628868266
646.836,559.157956674343
649.421,439.4167974703555
652.005,362.9800828715174
654.587,284.5594865193316
657.166,249.53330269587696
659.745,204.32740044334378
662.321,138.1771300645214
664.895,59.88922962327979
667.468,47.69896954029491
670.038,45.50824956972474
672.607,50.64750529969524
675.174,39.25666227183456
677.739,22.951804386527783
680.303,22.063270879596985
682.864,39.96899139421839
685.424,42.28496625529169
687.982,19.48432042132208
690.538,-0.055071135127946036
693.092,8.235137191119065
695.645,5.875674704423091
698.195,3.577757945365647
700.744,-14.566423977631985
703.291,-22.988461550879038
705.836,-18.07228617573628
708.38,1.3696479350460322
710.921,10.620179424583057
713.461,22.58125356432447
715.999,-1.511787644130436
718.535,-13.328296319595665
721.069,-9.870885742341216
723.602,20.0960024521778
726.133,33.99848209270294
728.662,45.07227195317455
731.189,11.362697614685658
733.714,-22.465782863044524
736.238,-4.748624698775075
738.759,9.27404356744205
741.279,0.9336101043249982
743.798,19.656788867049727
746.314,6.965619151121018
748.829,0.8584175271987533
751.342,6.524063109255621
753.853,18.008663775112836
756.362,12.691746196498116
758.869,41.00054110720339
761.375,51.600459047428785
763.879,62.537947060507804
766.381,54.38334538963272
768.882,56.18326798410067
771.38,27.651078243657366
773.877,15.119269524742549
776.372,-7.222440067552952
778.866,8.196701398187088
781.357,27.56657447166208
783.847,51.505711684241305
786.335,70.25177329329495
788.821,65.09011826462779
791.306,60.782375254907265
793.789,80.47120407027887
796.27,110.91839045831716
798.749,126.98103613806711
801.227,139.8496535919926
803.702,143.14340371506933
806.176,189.14819060673267
808.649,229.0071373152091
811.119,265.0539187247007
813.588,263.6222849187691
816.055,230.9984416865707
818.521,178.61152626719218
820.984,159.12884499874622
823.446,160.17015858651894
825.906,122.02196737111626
828.365,128.6851299299476
830.821,100.06533882155645
833.276,84.97312013948385
835.729,90.31430925660311
838.181,111.137669426613
840.631,91.25393895695083
843.079,96.14059266742356
845.525,74.08469858692933
847.97,61.56386988827535
850.412,64.29388348966154
852.854,49.56201294188077
855.293,50.56036131551468
857.731,58.1953845643211
860.167,60.37360536481469
862.601,67.2397079082275
865.034,77.41463269246765
867.465,44.75748083788767
869.894,24.12741840305216
872.321,-8.663943109008642
874.747,-24.138261482646385
877.171,11.278107192840707
879.594,11.825535772933563
882.014,20.125407949267583
884.433,23.513447760053168
886.851,-5.626950899499434
889.266,18.04003380467202
891.68,52.51693353685687
894.092,50.56822349545587
896.503,73.43460373590574
898.912,84.0234709697977
901.319,73.09939036399442
903.724,99.90313876832101
906.128,110.96122413372791
908.53,103.51445254950431
910.931,85.08935242334587
913.329,86.26007485189734
915.726,71.3626749436828
918.122,82.16177409440843
920.516,88.85055559560601
922.908,91.43171262422447
925.298,73.14601527984178
927.687,71.71040143140499
930.074,53.60368661158964
932.459,72.73322629211066
934.843,84.29205434951473
937.225,94.23506915001667
939.605,77.32664820576565
941.984,44.140643783489395
944.361,-4.987240534482908
946.736,11.08816480604446
949.11,15.416729035018534
951.482,15.619682822109098
953.853,8.841995435823492
956.222,5.9904661883340395
958.589,8.019434927922475
960.954,36.59744580237066
963.318,54.53581639044819
965.68,47.64577907162084
968.041,64.97657477671282
970.4,69.48211816713751
972.757,52.78290090936753
975.113,22.165990187497073
977.467,6.5374081681850384
979.819,-11.435012343923063
982.17,18.249799177801833
984.519,29.35472158992343
986.866,22.1663448192121
989.212,23.73306491072367
991.556,46.4365124092144
993.899,53.65821883578951
996.24,62.017711735982175
998.579,55.991562108778226
1000.92,37.341955645171765
1003.25,52.11669253815012
1005.59,59.1729968164866
1007.92,43.79656377377796
1010.25,14.225369302239642
1012.58,-21.77890172588286
1014.91,-29.407046124526232
1017.24,10.86432553973441
1019.56,15.177549756593862
1021.88,34.91295336290932
1024.2,21.593612241631945
1026.52,32.83773062737987
1028.84,46.35863945962774
1031.16,82.53622550776026
1033.48,84.1788399776242
1035.79,99.61854045141513
1038.1,97.61585663708843
1040.41,104.8836037368219
1042.72,100.70593391070975
1045.03,99.22405440712987
1047.33,98.2933742645323
1049.64,98.53112720370632
1051.94,119.22113737719428
1054.24,136.45668035679728
1056.54,155.37858221632564
1058.84,169.36569956672884
1061.13,173.320637686463
1063.43,164.76499246137678
1065.72,163.17268756269505
1068.01,163.44616876785562
1070.3,163.9640268527769
1072.59,181.10481096031344
1074.87,176.0089372068062
1077.16,170.76916871720596
1079.44,180.66871470781848
1081.72,213.22885337857383
1084.0,274.1136976624405
1086.28,344.7968657367401
1088.56,415.9900562963712
1090.84,495.59543335083845
1093.11,572.9437253069912
1095.38,596.9847050041433
1097.65,602.4300507015689
1099.92,530.039064208858
1102.19,427.80915092102714
1104.46,364.78534747268577
1106.72,341.6793732017204
1108.98,314.5839197082189
1111.24,338.92503565149104
1113.5,357.2716544042355
1115.76,397.8117883733689
1118.02,467.87634236847566
1120.28,527.0343555416853
1122.53,528.6168147561191
1124.78,487.81189652576927
1127.03,429.6173518125222
1129.28,363.030986061274
1131.53,303.5268535207588
1133.77,238.24573727866982
1136.02,187.89991501106078
1138.26,186.3922104460362
1140.5,194.91123530362938
1142.74,215.74091694996832
1144.98,254.49859748001631
1147.22,249.80170422888523
1149.45,234.26775361648356
1151.69,239.65721213501593
1153.92,218.15921447934625
1156.15,232.91537691545432
1158.38,250.87694398222789
1160.61,231.37622090753916
1162.83,194.84086316718026
1165.06,174.98435651999216
1167.28,164.71078275727655
1169.5,155.97196640459583
1171.72,121.57700237594099
1173.94,59.95416458029217
1176.16,8.865195480553666
1178.37,8.452928985821472
1180.58,26.384151438887557
1182.8,25.99246349581358
1185.01,35.04019047533575
1187.22,-7.472088244112456
1189.42,-26.49600982738002
1191.63,-8.93542239509452
1193.84,-25.836856396993653
1196.04,-31.579998799588793
1198.24,-12.30626343529957
1200.44,-40.49022123644136
1202.64,-10.415795756576017
1204.84,17.20468288598181
1207.03,2.7542768063806307
1209.23,-2.479047643376589
1211.42,0.7928064146726683
1213.61,-2.5228975223994894
1215.8,16.43359221453011
1217.99,16.331646624422774
1220.18,14.79310122009565
1222.36,8.677958355099236
1224.55,22.79866261340908
1226.73,21.967711018072805
1228.91,16.664311739913046
1231.09,18.320090425268972
1233.27,13.890510809461603
1235.44,10.712011293808018
1237.62,30.502000508115543
1239.79,49.97790190134242
1241.96,67.0476279976283
1244.13,75.8571975094751
1246.3,91.45740006997312
1248.47,121.23236572693736
1250.64,161.13765824656662
1252.8,243.5097969885269
1254.96,317.82815973341826
1257.13,389.4292664626241
1259.29,482.22106313815357
1261.44,557.8257769110653
1263.6,582.246580853699
1265.76,612.3914015490557
1267.91,577.0252981087428
1270.06,543.5323650004464
1272.22,493.96334916111323
1274.37,456.36898139585105
1276.51,425.1333077768247
1278.66,405.49749723262676
1280.81,320.41698247098884
1282.95,284.5614580443371
1285.09,237.50535460583842
1287.23,207.91831316543607
1289.37,229.61280220303183
1291.51,258.87744906738
1293.65,255.2389428035574
1295.78,290.84298459947877
1297.92,279.26380966098213
1300.05,260.50418527739293
1302.18,250.70969460137485
1304.31,244.8830204287774
1306.44,248.40775278801175
1308.57,258.3341012913311
1310.69,221.85508367658576
1312.82,248.83033339659187
1314.94,266.78609768469255
1317.06,279.6771403822172
1319.18,276.9343590516585
1321.3,285.56002113746877
1323.41,281.4610953649535
1325.53,306.7825831391601
1327.64,336.43132613424837
1329.75,331.55219483524456
1331.87,309.8614199369324
1333.98,320.6465904094132
1336.08,331.52855632557475
1338.19,306.55666502188956
1340.3,274.06590202112284
1342.4,229.9626033836073
1344.5,178.2482632966121
1346.6,110.16238928275811
1348.7,83.56345264652919
1350.8,72.97650558744567
1352.9,88.4979411703855
1354.99,102.74787234351925
1357.09,117.5367966705387
1359.18,87.77035630097294
1361.27,97.1636217500336
1363.36,93.81251853559888
1365.45,120.19382524376852
1367.54,137.6413620706128
1369.62,153.6793222210522
1371.7,163.87941283156033
1373.79,192.3370435118993
1375.87,185.76656250591054
1377.95,200.45363570945347
1380.03,213.92191140262616
1382.1,193.55206593436333
1384.18,181.67703988323478
1386.25,154.48679802775905
1388.33,120.79023217385725
1390.4,74.34849255373979
1392.47,60.1130811295543
1394.54,31.987754420845476
1396.6,23.35233109391629
1398.67,17.967451932145423
1400.74,2.022200234810498
1402.8,-39.72303726174164
1404.86,-12.93656472578914
1406.92,-6.096323736321892
1408.98,17.367250914835495
1411.04,71.49980257883635
1413.09,76.01352820964826
1415.15,39.43003657974805
1417.2,31.74701601962238
1419.25,41.86680691917513
1421.3,57.07259327675615
1423.35,101.07602602227416
1425.4,113.82675110221658
1427.45,126.46479470752092
1429.49,116.98723421573959
1431.54,130.4386786570085
1433.58,109.0065110847795
1435.62,69.11613094655809
1437.66,52.24048216892356
1439.7,76.94767648064158
1441.74,83.80575959292287
1443.77,87.33509642730178
1445.81,77.43694681970442
1447.84,50.06013646260931
1449.87,41.24868022815849
1451.9,69.42750072936656
1453.93,112.45005164323084
1455.96,121.88403627194066
1457.98,131.86855467551527
1460.01,142.44744128063508
1462.03,161.90260248946493
1464.05,215.27783047895787
1466.07,291.4264265239599
1468.09,346.63025289174857
1470.11,431.83783235562146
1472.13,539.1881619941944
1474.14,644.6773841335616
1476.16,731.301647765639
1478.17,812.0094937760398
1480.18,858.7494782671758
1482.19,870.5177958813706
1484.2,827.1201888382534
1486.21,725.2671893054912
1488.21,595.7169808171336
1490.22,501.46587873957355
1492.22,395.08166788037215
1494.22,296.5607496208877
1496.22,221.5186223822402
1498.22,147.90417161508663
1500.22,101.57110264653579
1502.22,54.80175447944316
1504.21,10.640437401230884
1506.21,9.322008687949847
1508.2,12.129019736905775
1510.19,31.772673792409478
1512.18,33.34521318146835
1514.17,-4.251501758873246
1516.16,-30.972651849436033
1518.14,-36.10664204633258
1520.13,-25.275094379063603
1522.11,-4.194748968723388
1524.09,-2.2965118022486877
1526.07,8.417399572284921
1528.05,-1.4360710327528068
1530.03,-1.8589171866337892
1532.01,31.289832264910956
1533.98,30.77030087237131
1535.96,33.58080920786506
1537.93,46.529300442930435
1539.9,26.75714687869481
1541.87,24.358194571285594
1543.84,42.18828414771792
1545.81,59.24620019320719
1547.78,79.38795397181707
1549.74,90.94582805186997
1551.7,89.58551616945579
1553.67,92.02040594908635
1555.63,94.39252829101429
1557.59,102.51064961569932
1559.55,143.27884029874485
1561.5,146.1726621534583
1563.46,164.76297496102848
1565.41,158.33498109593893
1567.37,126.98346062757855
1569.32,115.51753023136939
1571.27,128.50825924275796
1573.22,104.90771428263315
1575.17,99.14419435893205
1577.11,92.97937073015396
1579.06,64.03209343553681
1581.0,91.826007349046
1582.95,96.50383490002832
1584.89,87.92261117481348
1586.83,85.03463330403542
1588.77,84.83983842138059
1590.7,55.1000863842396
1592.64,52.720109161029995
1594.58,31.152269742326325
1596.51,19.39655914722607
1598.44,29.952974382094226
