Raman Shift,Processed Intensity
331.095,99.19476645511486
333.909,46.3355658424739
336.721,55.396783252026125
339.531,96.87842860204546
342.339,119.56624593306015
345.145,139.88886618327842
347.949,156.4654361544749
350.751,169.62943795406773
353.55,149.14298462767783
356.348,209.1492110297895
359.144,223.45799802773854
361.937,223.54598241998383
364.729,237.36609066391338
367.518,252.01421546079155
370.306,282.2530351978521
373.091,368.4167857713487
375.874,450.6017466953208
378.656,517.3805367341643
381.435,534.7068857256781
384.212,403.20135878507745
386.988,273.2466043185068
389.761,171.74926870323998
392.532,84.99714906311328
395.301,86.7068222344351
398.068,70.88079754142427
400.833,8.045621952602687
403.596,6.299509046705225
406.358,-23.068603449972215
409.117,-64.48380483555229
411.874,-78.98996196384678
414.629,-82.24971031851328
417.382,-49.78254758169578
420.133,5.225635136185701
422.882,46.01777443831588
425.629,55.26561215134552
428.374,91.83157813809112
431.117,138.19733977689748
433.858,187.17806572671998
436.597,224.63668969219634
439.334,213.7219837125308
442.069,177.77329811704612
444.802,179.70149195692693
447.533,151.3222443893419
450.262,154.54650891871233
452.989,188.52334859035136
455.714,209.21134261268708
458.438,216.56904059852604
461.159,204.1263691872732
463.878,159.93699104810867
466.595,93.05447340695855
469.31,56.81798038299394
472.024,53.614155801321886
474.735,56.4009107675829
477.444,66.27883613817767
480.152,96.53881102993228
482.857,124.70961718188073
485.561,115.46270298466698
488.262,121.99313798615276
490.962,136.25771025416225
493.659,142.40349992970914
496.355,152.14883373259272
499.048,161.64042994319743
501.74,164.35816243189947
504.43,174.30553897420123
507.118,172.58113194681073
509.804,216.28334235705734
512.488,259.081830538973
515.17,327.2651373255717
517.85,422.02640045922044
520.528,486.5109757639166
523.204,497.48310593661563
525.878,514.2783036242727
528.551,504.9462106913593
531.221,521.2982193921439
533.89,507.81223640010876
536.556,479.9183992183198
539.221,469.90384020885085
541.883,473.19840300315536
544.544,495.6127398648232
547.203,512.2906947666129
549.86,506.3759721817646
552.515,522.7740439705613
555.168,551.8664372192575
557.819,601.082164936161
560.469,648.1834424619883
563.116,645.122832451651
565.761,603.1384850941431
568.405,567.9922354752844
571.047,526.9696057023689
573.687,503.9274260764387
576.324,469.91288483598055
578.96,443.4492445672877
581.594,381.5358443291125
584.227,376.02905415825626
586.857,373.45180100375
589.485,348.66023751816556
592.112,335.98660132511804
594.737,357.19159809629036
597.359,331.94059415226775
599.98,378.61314239670537
602.599,408.0172701552642
605.216,433.5799574907269
607.831,480.3471393276395
610.445,540.1265647198161
613.056,585.2497037368817
615.666,630.5717495889171
618.274,685.7097159891973
620.88,695.1376773740681
623.484,719.0915329323598
626.086,741.8071039681254
628.686,769.2820407871995
631.284,816.7996343456521
633.881,888.881199326825
636.476,922.0003619802596
639.068,943.1544908177761
641.659,878.2456511190676
644.249,760.1282261039728
646.836,648.4184428666426
649.421,523.5896125954214
652.005,459.59118031654225
654.587,380.75348892353486
657.166,290.50206701615116
659.745,195.45286912024858
662.321,132.12656352671002
664.895,84.13901060656053
667.468,78.91555064989825
670.038,68.54814884767711
672.607,54.271587892544176
675.174,38.558708198717795
677.739,55.310886217115694
680.303,60.762798464762
682.864,44.76814183240822
685.424,29.418687225476788
687.982,9.853809395492135
690.538,-6.215697514213389
693.092,-5.412372881307874
695.645,-10.215889118017003
698.195,-19.86780422005677
700.744,-13.942981549689648
703.291,26.36470359212717
705.836,17.051893377234137
708.38,22.258132538860536
710.921,10.123015364976709
713.461,-4.689998932519757
715.999,-16.04119942004627
718.535,-1.9812832446618813
721.069,-6.656111154981772
723.602,14.645678169948496
726.133,41.873625019052724
728.662,45.215452487530456
731.189,42.76373698183238
733.714,28.087340629403116
736.238,14.707605593187736
738.759,-1.2349754233871408
741.279,21.11448275714133
743.798,4.801452100773304
746.314,0.34770936254449225
748.829,-5.534374484404225
751.342,-16.941830534042992
753.853,-24.352516804104198
756.362,-12.101305551530686
758.869,8.572299119863146
761.375,10.000350679342773
763.879,21.18169598935492
766.381,22.448639697052613
768.882,20.80027529248423
771.38,39.56914950011651
773.877,77.6117361941674
776.372,86.35605317108138
778.866,89.1826122553432
781.357,91.23394083385779
783.847,86.27172243795212
786.335,93.53393732538075
788.821,111.54438401470952
791.306,111.7793436768477
793.789,104.14376833609526
796.27,123.49508811881378
798.749,132.73844707352464
801.227,181.20765327672393
803.702,233.76041465298727
806.176,259.7307176522161
808.649,280.8812059268853
811.119,283.26032091404545
813.588,251.44039479828234
816.055,256.99383871277314
818.521,254.2550452260541
820.984,226.2251479716458
823.446,215.52440032529944
825.906,181.5350302727104
828.365,142.49647622961857
830.821,128.74348000475743
833.276,150.42037023900798
835.729,151.95725060645304
838.181,123.59380706305228
840.631,107.90311509531557
843.079,82.07735173088031
845.525,61.16588850147036
847.97,87.21814631061784
850.412,105.04549792043144
852.854,79.84031329550612
855.293,73.98548113730408
857.731,63.48297803758214
860.167,52.477675727058795
862.601,61.685910228840385
865.034,62.871670059470944
867.465,52.94183204902424
869.894,36.89854001834283
872.321,20.743964408657575
874.747,33.19458572073313
877.171,37.15738271590999
879.594,46.58697299810569
882.014,23.676086929139274
884.433,19.760327258350117
886.851,1.0324525617340896
889.266,35.44713687155513
891.68,57.673348353578376
894.092,104.33244237424128
896.503,123.61720694877954
898.912,150.67281295125758
901.319,142.16824051506956
903.724,153.9629435286845
906.128,131.15446651233947
908.53,123.79272816139542
910.931,100.45144774684081
913.329,100.27576199198552
915.726,82.45841337772822
918.122,99.81117654306308
920.516,100.3362846855805
922.908,90.13118929530742
925.298,84.57903417425837
927.687,92.53912945598518
930.074,113.82313991084379
932.459,136.48079706077965
934.843,133.94275415125753
937.225,105.06820302795381
939.605,75.90677672773654
941.984,47.41283302202305
944.361,68.35021415061829
946.736,90.95891131745498
949.11,104.4788720434749
951.482,100.5785694242727
953.853,86.30738091154649
956.222,58.00034804693905
958.589,46.46865048158293
960.954,51.380556186126114
963.318,56.832847851233964
965.68,64.68415404999064
968.041,56.697804209833066
970.4,40.77992167971456
972.757,17.598469178228697
975.113,4.059437098868102
977.467,3.4496984819525096
979.819,-0.08680089457993745
982.17,-21.69189962338305
984.519,-15.078934561074448
986.866,0.03868812648261155
989.212,38.661776728154564
991.556,83.12439804641917
993.899,90.04625479363972
996.24,76.09458679785803
998.579,60.365119827640456
1000.92,54.2868239407328
1003.25,60.81238611843037
1005.59,74.18011147139532
1007.92,40.05677682642181
1010.25,16.1090557417765
1012.58,6.717800665398045
1014.91,0.9780434040424097
1017.24,50.41328298142935
1019.56,71.35644087142919
1021.88,73.66414966866228
1024.2,80.24056556862502
1026.52,74.03737132400511
1028.84,61.05377920099954
1031.16,82.71748631658579
1033.48,85.17039188055128
1035.79,126.26860015180819
1038.1,149.7252805375665
1040.41,160.96781340679286
1042.72,170.09017399891218
1045.03,144.99579252298076
1047.33,138.63565235209717
1049.64,132.24638821781014
1051.94,133.44552726167512
1054.24,151.75530151537214
1056.54,195.17407942844557
1058.84,198.55732120557263
1061.13,223.42710557239957
1063.43,208.30546606519033
1065.72,202.19058446333156
1068.01,169.50917469802653
1070.3,180.59267628479824
1072.59,196.01059061313572
1074.87,212.47524580756544
1077.16,222.2227520649128
1079.44,248.01300461061055
1081.72,234.17730570263143
1084.0,280.0945580639959
1086.28,353.7150773628957
1088.56,459.56059516901337
1090.84,564.5814047669846
1093.11,637.4896974460557
1095.38,621.4262321230651
1097.65,575.1031954416212
1099.92,484.9470618712801
1102.19,450.3843109495806
1104.46,417.36523976217313
1106.72,376.0782516134293
1108.98,374.4260494589512
1111.24,385.6446864809359
1113.5,386.44642618735406
1115.76,454.8768882254103
1118.02,519.6007656235797
1120.28,548.0923039384056
1122.53,558.7781613536772
1124.78,506.08503068437494
1127.03,428.7729756663248
1129.28,369.84019581728717
1131.53,337.7135055837555
1133.77,295.2007182496591
1136.02,253.10969651173536
1138.26,220.8197840072794
1140.5,217.56752255618244
1142.74,234.06570273630496
1144.98,298.83670017312716
1147.22,331.9743832579795
1149.45,337.57268753293283
1151.69,334.3922853137942
1153.92,297.0510648369027
1156.15,272.2146094059285
1158.38,240.92953368152848
1160.61,224.57586759005244
1162.83,201.05753547033987
1165.06,177.23093045860833
1167.28,148.71444125429662
1169.5,128.65035983829057
1171.72,104.65726538162653
1173.94,97.83002720181071
1176.16,61.88266486199814
1178.37,41.29120827017755
1180.58,44.48417682596801
1182.8,39.556868091231536
1185.01,22.03326550830002
1187.22,2.3422318324869593
1189.42,-25.992011721111112
1191.63,-16.77845394986798
1193.84,6.174042865960246
1196.04,-4.609923273151708
1198.24,-29.98658113274587
1200.44,-14.38346313873194
1202.64,12.438688680625091
1204.84,29.719251641751498
1207.03,35.50724032328981
1209.23,-0.3386980702027813
1211.42,-18.150288344563478
1213.61,-14.5448700475647
1215.8,1.526978812343259
1217.99,14.733816134433027
1220.18,13.506184758284917
1222.36,13.655652129440568
1224.55,20.089089548275524
1226.73,25.99914326250655
1228.91,49.768992657584704
1231.09,63.68663427638944
1233.27,51.56392774369351
1235.44,30.879451214431583
1237.62,-5.650071749456174
1239.79,-1.0697738736141673
1241.96,78.28954461033368
1244.13,127.28760415355009
1246.3,180.4508339670365
1248.47,209.73427438439376
1250.64,238.04538398648788
1252.8,328.4821324404063
1254.96,446.61871238602475
1257.13,501.4579179892496
1259.29,593.193047304778
1261.44,639.8745665436165
1263.6,681.8862981501263
1265.76,727.564466021927
1267.91,745.2453121583708
1270.06,715.3127133090184
1272.22,684.8172261935465
1274.37,599.5237041502223
1276.51,510.24462807009786
1278.66,415.5067706645384
1280.81,371.7416702565529
1282.95,330.5713426673701
1285.09,303.4749454839616
1287.23,302.59829946942364
1289.37,322.27769568764916
1291.51,340.1827502470396
1293.65,370.8402114251769
1295.78,369.3958620315859
1297.92,356.51927891336163
1300.05,341.5466876988846
1302.18,318.1476270653495
1304.31,304.1344701491505
1306.44,297.46242214674703
1308.57,289.65808934409824
1310.69,308.1528100508601
1312.82,308.61598553457975
1314.94,314.90745857393813
1317.06,334.4584634405653
1319.18,340.41448064276665
1321.3,333.7780916692411
1323.41,358.3613575423319
1325.53,365.45248308555506
1327.64,369.6253383339888
1329.75,391.31088470657187
1331.87,400.7495535593505
1333.98,383.2293390244424
1336.08,375.41912894423854
1338.19,334.0829881865459
1340.3,283.8896800549744
1342.4,237.9364734136102
1344.5,196.27294981167893
1346.6,145.71052489393264
1348.7,116.10816028722274
1350.8,95.27712310612014
1352.9,101.31431688710518
1354.99,101.36418395132864
1357.09,93.0948934816588
1359.18,72.17452959973025
1361.27,77.98537468108634
1363.36,90.19533552746339
1365.45,126.47222668193444
1367.54,149.91233945833642
1369.62,165.5166300183248
1371.7,163.76214554365652
1373.79,193.2686885037176
1375.87,188.65595711352103
1377.95,199.1625905536116
1380.03,202.64616657091938
1382.1,220.2974847939015
1384.18,238.59294528577857
1386.25,252.24692709777378
1388.33,202.7832144413976
1390.4,138.24928000359932
1392.47,51.501996833337444
1394.54,-20.601887867085907
1396.6,-22.253374188784846
1398.67,-5.215021439239081
1400.74,13.988571007399969
1402.8,41.975518512592544
1404.86,46.601881607927
1406.92,13.247374076150663
1408.98,18.767741896931057
1411.04,9.685237430715006
1413.09,1.7124283084053786
1415.15,27.371246342624318
1417.2,45.94537077694781
1419.25,48.4326117143828
1421.3,78.59253440311363
1423.35,102.47027399843637
1425.4,105.9679693723092
1427.45,126.51143501814454
1429.49,109.85969009845735
1431.54,88.05734463537397
1433.58,59.482223796377184
1435.62,45.41680170385894
1437.66,48.857730482772695
1439.7,73.18251216542399
1441.74,77.3399801200751
1443.77,77.56459000335508
1445.81,65.8526154745773
1447.84,50.724058195766474
1449.87,61.841700688831224
1451.9,82.82063538320926
1453.93,81.89493652065903
1455.96,89.3462368219557
1457.98,124.78944701072965
1460.01,137.69657057539894
1462.03,179.20623281681765
1464.05,237.74273370545234
1466.07,281.6827197861778
1468.09,357.1170941783121
1470.11,491.4700694327903
1472.13,615.8325061036262
1474.14,779.7714417955629
1476.16,913.139620211726
1478.17,997.9326392488961
1480.18,1046.5746705213567
1482.19,1036.2517979323495
1484.2,946.9596419598333
1486.21,824.5986029898463
1488.21,689.1167236974968
1490.22,564.1763609517543
1492.22,457.0589529583358
1494.22,349.9031197359334
1496.22,248.99038264005117
1498.22,165.17374102970825
1500.22,106.06815369604487
1502.22,52.90768695759539
1504.21,18.450281803182634
1506.21,7.644425796715041
1508.2,2.819634505794056
1510.19,5.781694835080543
1512.18,11.241241692996255
1514.17,10.813763513400772
1516.16,0.16246549918173514
1518.14,5.379228103947071
1520.13,-6.443958295809807
1522.11,-1.5483206169146797
1524.09,-18.889248794330797
1526.07,-20.612480257371317
1528.05,-27.72076075300174
1530.03,-20.216697601622627
1532.01,-11.197996045081027
1533.98,30.666349118506332
1535.96,25.897955040186616
1537.93,30.018570225315443
1539.9,20.169117748223698
1541.87,4.490643228792351
1543.84,16.83859614235962
1545.81,42.354253986770345
1547.78,41.32186118591176
1549.74,49.3591013265891
1551.7,64.70280749063022
1553.67,73.35181544413717
1555.63,96.78124539816599
1557.59,122.70440281702327
1559.55,131.21563160752726
1561.5,138.5998339749292
1563.46,135.999133135977
1565.41,123.31763127008276
1567.37,127.88807223238882
1569.32,112.42421855255225
1571.27,105.97322843352822
1573.22,112.5346994170227
1575.17,94.3463787156104
1577.11,94.16987354485423
1579.06,93.43350431256727
1581.0,57.18468161760552
1582.95,55.37561658198547
1584.89,54.863316897295135
1586.83,54.695297156812785
1588.77,61.06195585429509
1590.7,45.20133333515014
1592.64,13.970536414272829
1594.58,1.7504963272219811
1596.51,5.6364409671064095
1598.44,32.128367121481006
