Raman Shift,Processed Intensity
331.095,73.51616740688632
333.909,27.359158453687996
336.721,26.386215460744097
339.531,48.76401244531962
342.339,59.516380983011004
345.145,55.548127082150586
347.949,63.47837186771221
350.751,73.8786541699942
353.55,115.2729378752033
356.348,135.7566668950967
359.144,142.23486775566562
361.937,121.1840617096318
364.729,131.22370065846872
367.518,152.163793550616
370.306,217.86205658921426
373.091,281.2715396303288
375.874,367.10730020021765
378.656,392.8940298935572
381.435,373.82320458119057
384.212,274.80071080835796
386.988,153.54209124052977
389.761,67.23921868067737
392.532,31.131731991308243
395.301,27.507043445067666
398.068,17.081298456302193
400.833,-6.85775992547633
403.596,-26.736497950695593
406.358,-8.552526676251091
409.117,-31.112790558655888
411.874,-25.224039843782066
414.629,-50.83568479545693
417.382,-37.087415177342336
420.133,-10.833012907814464
422.882,44.55011532792287
425.629,60.11330616670102
428.374,102.81281603828893
431.117,149.03361668390562
433.858,183.92271448426573
436.597,197.67485073999387
439.334,200.6277257615693
442.069,158.73817534022737
444.802,144.3440615045638
447.533,131.3071156581068
450.262,112.25101981211856
452.989,150.22805924696786
455.714,192.43339422113104
458.438,190.06218882304302
461.159,215.11912077533088
463.878,171.41836742952046
466.595,113.15502033217308
469.31,104.381261695783
472.024,71.57777896492189
474.735,15.36803652523804
477.444,44.85159503149862
480.152,37.50885930706227
482.857,46.2963040947152
485.561,95.88456159531279
488.262,113.03937009157153
490.962,113.47871786336373
493.659,138.11093948395956
496.355,153.41566925913503
499.048,149.3486041900851
501.74,164.2462669363349
504.43,187.58791163580145
507.118,201.66219162961306
509.804,231.9004938535927
512.488,293.63884465831734
515.17,330.59410134345944
517.85,366.48300083497816
520.528,410.64120836231996
523.204,423.59474708798507
525.878,421.9171420228181
528.551,399.84846870319825
531.221,390.5810685349029
533.89,373.5452641369666
536.556,392.1236461141125
539.221,412.7939312577537
541.883,406.65277312794797
544.544,409.8443345401106
547.203,424.94124100411454
549.86,422.706486544344
552.515,432.4267680911744
555.168,470.1029627295957
557.819,488.87870018592685
560.469,519.992744838351
563.116,523.6837586798279
565.761,503.47601666197306
568.405,490.89369346750664
571.047,475.8418169493707
573.687,471.1776977603213
576.324,466.4728351729982
578.96,445.5367276619022
581.594,398.3692549139364
584.227,372.30353602942796
586.857,327.52974010410435
589.485,303.85699204917046
592.112,329.3324212685284
594.737,324.5744960502784
597.359,293.8682627201283
599.98,308.4986800328925
602.599,313.0363345163769
605.216,341.05172724383874
607.831,404.63908441597096
610.445,432.797310800031
613.056,440.85856221659833
615.666,470.53586564537363
618.274,504.01835837859016
620.88,548.209384317292
623.484,575.6788759818883
626.086,643.044307951282
628.686,674.0659360162836
631.284,691.1706077615881
633.881,730.9755731477617
636.476,762.5265808075037
639.068,780.0121648181021
641.659,806.3826933786527
644.249,727.969417487272
646.836,591.4368529516423
649.421,459.25897192337015
652.005,351.14777538472254
654.587,288.2437703972628
657.166,261.7826378266859
659.745,212.14285244859911
662.321,175.4171125781122
664.895,152.07900779466036
667.468,123.64968666683808
670.038,89.12642923912972
672.607,57.55407666150404
675.174,40.025032247581294
677.739,47.15545300898384
680.303,51.84715547540827
682.864,77.19238269349307
685.424,47.759523606648145
687.982,20.06930862535455
690.538,7.928148054603753
693.092,2.3328990927711857
695.645,10.42325393537476
698.195,45.05317632380411
700.744,11.409957386157203
703.291,-18.319108398575736
705.836,-12.041951998241984
708.38,-5.380766979470081
710.921,29.042284711721095
713.461,50.03365140960659
715.999,21.971255540697257
718.535,-12.766928278610976
721.069,20.05427628419693
723.602,28.812968232549792
726.133,42.93493647755099
728.662,56.03652231283013
731.189,50.87700569891945
733.714,39.358610595254504
736.238,43.478891244549686
738.759,7.8069279809933505
741.279,-18.421429342513647
743.798,-33.20831792711965
746.314,-22.74623686758764
748.829,4.724814186656431
751.342,22.77447855348032
753.853,21.40108842520408
756.362,27.317377442435145
758.869,11.80762183932029
761.375,11.727638731660136
763.879,27.647641547882586
766.381,45.75700022191677
768.882,33.05471567178506
771.38,31.063703802005193
773.877,18.783174744088228
776.372,26.307678763703052
778.866,64.16043788212528
781.357,97.91239178340265
783.847,90.4202913405586
786.335,88.63622071323744
788.821,88.2742623024792
791.306,93.81049503883855
793.789,121.24489743240156
796.27,133.14896490852402
798.749,132.42761285785355
801.227,161.46203206730434
803.702,186.0620679605547
806.176,235.79955221949558
808.649,267.7702058342577
811.119,289.16506596275985
813.588,264.69905564740293
816.055,240.70622019842494
818.521,190.2349635772532
820.984,173.2385228750993
823.446,141.62258564868944
825.906,157.95957392266564
828.365,149.4886424776962
830.821,138.97281999573374
833.276,126.55615020527398
835.729,130.4779758837576
838.181,111.12055619330181
840.631,104.8662078259647
843.079,86.09730329187278
845.525,80.62484063591728
847.97,76.87891791634979
850.412,97.4325410167196
852.854,109.76352669589869
855.293,110.73069135240121
857.731,86.57384931250544
860.167,73.7709539755183
862.601,66.65714372094703
865.034,56.47235924424717
867.465,62.69467517828207
869.894,71.99267933383794
872.321,65.32070908298965
874.747,70.20456393294216
877.171,78.59864667130205
879.594,50.124056892305134
882.014,30.401922618282242
884.433,24.386731921123328
886.851,32.69966454374321
889.266,52.9619235215489
891.68,57.22330489913952
894.092,67.34314839938997
896.503,77.65700237824512
898.912,89.40519354141293
901.319,109.16139666106119
903.724,112.97549000679533
906.128,122.9926012528249
908.53,139.50072481370148
910.931,145.4545296562501
913.329,142.28488139720753
915.726,122.99407868658068
918.122,111.15585149576282
920.516,87.05821654851002
922.908,83.46538037096275
925.298,92.14154710357184
927.687,96.46996440825956
930.074,85.8338741374912
932.459,81.90222490810447
934.843,47.53443229419054
937.225,69.63751997235408
939.605,93.40421324793101
941.984,110.6462706764396
944.361,98.50876806598717
946.736,62.94628724158497
949.11,38.770533380890356
951.482,45.174142826143225
953.853,70.4925861342042
956.222,80.34702350754014
958.589,77.83477927283275
960.954,52.76743540720577
963.318,42.48035363588292
965.68,28.737435625080934
968.041,47.35016888918403
970.4,32.510958412210584
972.757,42.221696364513036
975.113,4.388998486150967
977.467,-0.7472261964060181
979.819,-33.61377708214104
982.17,-25.44702040092102
984.519,-16.626223886593152
986.866,16.802628699809475
989.212,20.74587745096619
991.556,25.300272046023792
993.899,45.65772584741285
996.24,57.67673875001424
998.579,77.02524860175527
1000.92,69.94253024325712
1003.25,81.905856452242
1005.59,58.86858745936752
1007.92,70.64111760691435
1010.25,49.748012483667026
1012.58,36.428003202657464
1014.91,-2.985066940143952
1017.24,3.080608954771151
1019.56,14.053843287237669
1021.88,26.506162204270368
1024.2,37.96132369488305
1026.52,44.466741902825106
1028.84,24.73634270815751
1031.16,45.81723263320464
1033.48,78.37541536754793
1035.79,104.79103463824526
1038.1,122.30123612766783
1040.41,126.85731510561823
1042.72,95.02948310906913
1045.03,102.62592033619353
1047.33,116.6927804213401
1049.64,147.89514759096596
1051.94,169.23132715290376
1054.24,181.08046931896388
1056.54,161.05971683706002
1058.84,149.83373357572304
1061.13,114.73375691812976
1063.43,112.5671263466113
1065.72,123.18871678906862
1068.01,138.83427672728908
1070.3,147.73948059097756
1072.59,165.092314485124
1074.87,170.03308096498586
1077.16,190.74964190631567
1079.44,204.47742328034064
1081.72,220.8803723096978
1084.0,259.7652479576973
1086.28,312.79591141758374
1088.56,413.0647594589386
1090.84,510.473681583607
1093.11,573.5435886101941
1095.38,588.9858460204657
1097.65,545.5118025438437
1099.92,466.1185092180888
1102.19,387.27920035474676
1104.46,336.2290125998336
1106.72,326.4887992326103
1108.98,327.48418255960473
1111.24,356.54555868958323
1113.5,432.1461975466168
1115.76,478.6165333593367
1118.02,532.3822646740032
1120.28,527.4881686532851
1122.53,494.02667727981043
1124.78,459.47121546446647
1127.03,406.5333486785132
1129.28,332.5913591571284
1131.53,284.4521554362834
1133.77,218.2560390324818
1136.02,207.3338520748773
1138.26,217.20698208024896
1140.5,232.58736672797227
1142.74,227.9965462540381
1144.98,243.52757298792972
1147.22,245.41644469902053
1149.45,262.7563950858346
1151.69,272.6407556938716
1153.92,287.4962940239152
1156.15,250.84512306891202
1158.38,230.68565846989782
1160.61,198.54024233859377
1162.83,168.78848136571196
1165.06,148.8101087387904
1167.28,127.79451272668916
1169.5,88.88359859742582
1171.72,84.36226958362454
1173.94,65.51557451463145
1176.16,25.104903067680198
1178.37,1.5108476857235473
1180.58,-31.266791647594346
1182.8,-33.56138358534554
1185.01,-11.753746202135972
1187.22,7.204045049465776
1189.42,23.16960766840475
1191.63,4.286439305743897
1193.84,-11.77798954488344
1196.04,-14.451285713961852
1198.24,-19.589468802398187
1200.44,-4.429355471100962
1202.64,11.840007142410741
1204.84,-7.541713100450124
1207.03,-0.7156645091895371
1209.23,-2.441912977076754
1211.42,-0.5280203629224616
1213.61,13.599519911180323
1215.8,1.133370821454264
1217.99,7.075820602454996
1220.18,4.762586300567364
1222.36,-1.7086206520950782
1224.55,3.1409480425177208
1226.73,19.932977655383638
1228.91,29.33684750472844
1231.09,44.40295977945516
1233.27,20.324639791140953
1235.44,20.819083845080968
1237.62,16.127354730375828
1239.79,45.10961530525901
1241.96,77.81655255861051
1244.13,107.2988985340794
1246.3,107.84552268277798
1248.47,146.7453337397833
1250.64,181.04918160063312
1252.8,227.95080681687523
1254.96,309.5487424725743
1257.13,400.8463112989027
1259.29,476.60876564588716
1261.44,542.8870941208111
1263.6,591.0656377504379
1265.76,587.9097061432276
1267.91,589.5655746039333
1270.06,565.5604812482011
1272.22,515.5645288790695
1274.37,452.48592019681087
1276.51,410.61381205638736
1278.66,361.38021734395534
1280.81,315.8361925676593
1282.95,255.46135878175596
1285.09,212.4496129869276
1287.23,207.75674429250603
1289.37,247.62424055487872
1291.51,281.48404739685566
1293.65,314.2918986555983
1295.78,297.76540873531644
1297.92,260.33645067424504
1300.05,257.9130580211472
1302.18,249.83180290229234
1304.31,244.90541218367957
1306.44,235.42276458563992
1308.57,213.19650684505723
1310.69,207.94400321092667
1312.82,232.76352303515
1314.94,234.94376169666634
1317.06,250.05907581129713
1319.18,231.58852796539918
1321.3,227.77302668761536
1323.41,245.09151403966666
1325.53,257.49905796906023
1327.64,264.7125637094082
1329.75,302.0679137521772
1331.87,303.9961554374863
1333.98,303.49968854490635
1336.08,294.9141671699772
1338.19,279.86087779119975
1340.3,258.24673638464833
1342.4,248.93095220524583
1344.5,191.91550109185118
1346.6,135.63083686757454
1348.7,90.74541226390784
1350.8,63.403771273425946
1352.9,66.70273674057717
1354.99,65.69140747628626
1357.09,59.41877442017085
1359.18,74.3146701360979
1361.27,78.95167068868705
1363.36,93.28318799600947
1365.45,80.40537170609196
1367.54,84.17615393056121
1369.62,124.92953207352411
1371.7,174.5231849937859
1373.79,213.52894630992796
1375.87,250.3756586577656
1377.95,223.96821842398595
1380.03,216.6399538131309
1382.1,212.91452672409923
1384.18,175.83926319807824
1386.25,139.93753148552196
1388.33,120.92302487503162
1390.4,92.7473778555759
1392.47,72.50492513585095
1394.54,60.71841304459235
1396.6,30.862806168982843
1398.67,8.079570183536589
1400.74,1.843335631364198
1402.8,-2.9904828084863766
1404.86,-2.4237804986958054
1406.92,4.589000314829946
1408.98,11.617061917486808
1411.04,13.705632761768356
1413.09,13.471206722450916
1415.15,8.911069257112786
1417.2,28.450920202857787
1419.25,23.230593183422116
1421.3,48.19929973847388
1423.35,63.68706392910167
1425.4,63.4999664671127
1427.45,71.3487221776611
1429.49,96.89630508092705
1431.54,71.56747823570026
1433.58,104.07260929724703
1435.62,103.07434321803635
1437.66,85.13998923418626
1439.7,85.02724118523815
1441.74,100.39846926250925
1443.77,98.20167842410797
1445.81,112.52765728613895
1447.84,87.51474606152829
1449.87,66.96789021313543
1451.9,60.59674172591076
1453.93,75.06328418857788
1455.96,85.88660073245774
1457.98,79.68097530363002
1460.01,91.29875583985313
1462.03,132.0208364951045
1464.05,202.93761605459372
1466.07,283.04424206406406
1468.09,346.00252162575725
1470.11,406.9504512420049
1472.13,486.8355561826231
1474.14,589.9387060427821
1476.16,719.8741207770679
1478.17,828.0655672097321
1480.18,852.9844603068518
1482.19,837.0070120675368
1484.2,758.0809042246588
1486.21,689.9633895170102
1488.21,601.4117739138501
1490.22,492.5643750299196
1492.22,349.7024329214164
1494.22,242.53583040577132
1496.22,156.44119433381024
1498.22,115.79523495714989
1500.22,90.546180533692
1502.22,67.78521193311485
1504.21,36.84170676617987
1506.21,2.6165787521263155
1508.2,-5.51295434249937
1510.19,-27.788602765017686
1512.18,-25.16623657398668
1514.17,-8.839689428217298
1516.16,-11.71694626766589
1518.14,-22.80109555114427
1520.13,7.762050930913574
1522.11,12.303003700474164
1524.09,21.05716264921375
1526.07,25.83148011192452
1528.05,8.90921917801461
1530.03,14.621378669673732
1532.01,29.680022881947934
1533.98,26.606850310498203
1535.96,19.87604809364825
1537.93,22.676194073478882
1539.9,23.719777904547527
1541.87,39.57653168641309
1543.84,37.816284405686474
1545.81,26.43753066379486
1547.78,13.438856547605383
1549.74,33.247508357188735
1551.7,52.48129466691671
1553.67,98.71048838655815
1555.63,120.36258596523726
1557.59,126.96039992872375
1559.55,111.31253236910447
1561.5,105.94194367254545
1563.46,99.70499743753066
1565.41,122.22002920262685
1567.37,129.58162945995696
1569.32,126.59873619248583
1571.27,95.55653693511726
1573.22,68.4545613119808
1575.17,56.76858309752606
1577.11,42.16490323000471
1579.06,54.50034711066223
1581.0,57.86988095054926
1582.95,31.749466212571406
1584.89,0.5674854821111239
1586.83,-10.247641186165083
1588.77,-22.029363731020112
1590.7,3.9841381291428206
1592.64,22.88804643638332
1594.58,25.301375177840782
1596.51,32.91458372803868
1598.44,56.060999814990964
