Raman Shift,Processed Intensity
331.095,189.93098954950074
333.909,-16.643680171080632
336.721,-75.86584771227535
339.531,-39.23549411689237
342.339,23.98553022078704
345.145,104.01160382204216
347.949,148.3190453113466
350.751,147.812780038068
353.55,130.54062574578256
356.348,143.1218639558806
359.144,137.98533516067482
361.937,163.8932483022354
364.729,190.51260929883392
367.518,240.55807814282934
370.306,318.363397427107
373.091,407.11948753819706
375.874,441.9220656589059
378.656,414.8192647709502
381.435,331.43068122901195
384.212,212.70927947766086
386.988,136.32234438732212
389.761,70.65148120928825
392.532,31.50690124500852
395.301,31.55599322966691
398.068,15.370942334814117
400.833,9.047780929349301
403.596,30.87306155310762
406.358,13.990531495916002
409.117,-18.979810715219173
411.874,-42.2750397813038
414.629,-36.513102851713484
417.382,-5.026144689288685
420.133,18.7585430494687
422.882,62.65185397294999
425.629,104.41715096157986
428.374,179.0559787463685
431.117,330.61758601129713
433.858,485.2941617814017
436.597,560.1827384775306
439.334,584.1423330663488
442.069,559.2225167817601
444.802,521.5681753225394
447.533,525.8004595261305
450.262,556.7310693757931
452.989,589.0289189601149
455.714,616.0772776230069
458.438,603.5451968279926
461.159,571.1494132129528
463.878,517.368632597279
466.595,483.6340044651938
469.31,479.1386440681281
472.024,496.17096405090797
474.735,519.3051489350787
477.444,540.6868676974691
480.152,517.4142244439968
482.857,528.1568043215698
485.561,531.4413860966542
488.262,540.5567023528924
490.962,557.7439139744333
493.659,588.8156560578409
496.355,613.9179409668563
499.048,675.6730137681102
501.74,770.9888743335064
504.43,857.3449899187813
507.118,938.9351505992331
509.804,1027.1436580387535
512.488,1085.592942830313
515.17,1190.4292770745378
517.85,1324.2275345773187
520.528,1421.372141523611
523.204,1531.7713604845703
525.878,1607.9049077580244
528.551,1622.4906183279954
531.221,1647.9606346337482
533.89,1651.0328334340861
536.556,1648.234633624019
539.221,1610.1887088133471
541.883,1591.041557048099
544.544,1569.4634991033909
547.203,1548.7439148715284
549.86,1528.1721940358307
552.515,1587.2282105539748
555.168,1554.4870828556404
557.819,1619.6667911830023
560.469,1698.6757949312314
563.116,1788.7558880842225
565.761,1848.8631498884288
568.405,1959.6679431457314
571.047,1960.6025315539364
573.687,2033.242030380607
576.324,2073.2091666607002
578.96,2131.0314203465946
581.594,2131.521974981922
584.227,2168.0654302801518
586.857,2112.665419465089
589.485,2050.135083754238
592.112,1997.0494516040567
594.737,1922.6501989076019
597.359,1831.178980620744
599.98,1764.2583814360041
602.599,1686.3681045516287
605.216,1642.9402080597083
607.831,1657.9305318104866
610.445,1679.3901242766751
613.056,1720.750955132049
615.666,1804.1592468776698
618.274,2017.0945207538152
620.88,2220.0362616995426
623.484,2432.749630931279
626.086,2635.0949880452417
628.686,2760.0755083579375
631.284,2850.2181335800137
633.881,2949.66880820439
636.476,2907.1924777991453
639.068,2791.506420633755
641.659,2601.3278650195884
644.249,2314.278749507567
646.836,1947.314292609612
649.421,1615.913467282016
652.005,1307.6980468373658
654.587,1030.099269904103
657.166,827.4054577670177
659.745,649.857250755379
662.321,515.9809398691477
664.895,435.4456079290039
667.468,386.87265167875694
670.038,345.3595896020338
672.607,307.52767926277966
675.174,245.47429655051747
677.739,224.29674349704555
680.303,207.8065322835996
682.864,199.10081210517183
685.424,197.80046270148569
687.982,177.33580693557178
690.538,150.6132757532896
693.092,121.01540647619004
695.645,73.16274585628071
698.195,31.628134083177883
700.744,10.936703076971753
703.291,8.661112876325205
705.836,66.13583885828575
708.38,90.36193633071116
710.921,94.24513940058614
713.461,129.40538841377065
715.999,143.7958812042748
718.535,153.3221243435296
721.069,167.6514605801408
723.602,155.5940248510601
726.133,127.91227172134404
728.662,104.84478853819519
731.189,85.53487048976649
733.714,60.50671471158785
736.238,26.617804869180418
738.759,17.392248121630928
741.279,0.6874454185035574
743.798,-26.92494975755517
746.314,-19.587594624150825
748.829,-16.776496446824694
751.342,-2.7295789336803864
753.853,8.886653829770239
756.362,3.2628324445786347
758.869,-3.9342297088123814
761.375,0.009893531133911893
763.879,-1.9522809153418166
766.381,-13.011096402384283
768.882,-14.166421876238473
771.38,-12.560984075898887
773.877,-3.9089393175208897
776.372,12.26602928695138
778.866,26.011660798012144
781.357,49.42330307822522
783.847,74.45343405068706
786.335,98.62594749573009
788.821,118.13139122857592
791.306,139.2079195627125
793.789,178.09367434469004
796.27,303.4077374174958
798.749,435.9596545124941
801.227,550.2732448556558
803.702,678.8723155356861
806.176,770.6616139673984
808.649,801.4506374979437
811.119,819.9060144416057
813.588,789.9324565431784
816.055,686.6251400127576
818.521,599.031610370072
820.984,516.1994015745167
823.446,438.7950837266212
825.906,354.7709298171353
828.365,299.26967771421323
830.821,251.10072072203275
833.276,237.6924886155948
835.729,224.9495905802919
838.181,211.20519624671306
840.631,185.12579767783336
843.079,145.94930468952816
845.525,119.4850449329997
847.97,89.39947826291063
850.412,61.88286348647625
852.854,57.55402035064344
855.293,51.31747248166221
857.731,56.74439984845549
860.167,47.92978170217566
862.601,34.44477761100734
865.034,41.717679923530795
867.465,54.129151946380716
869.894,58.440799455226625
872.321,74.36659934861927
874.747,67.90623306374209
877.171,45.58318189691181
879.594,42.825679466946895
882.014,26.72861655947827
884.433,22.958303114123282
886.851,45.03818259260879
889.266,80.68216539451896
891.68,102.17558132065642
894.092,132.13708441736344
896.503,125.66151020179132
898.912,84.93892336336603
901.319,83.15937975096176
903.724,116.84625978864415
906.128,168.99912570094511
908.53,194.3794358809896
910.931,199.65340211577268
913.329,183.05865633523626
915.726,162.64234593278024
918.122,178.59446718100526
920.516,163.29548436175037
922.908,138.6020441342166
925.298,121.94221371262665
927.687,149.55357618673406
930.074,164.6260877471027
932.459,154.6354111008627
934.843,131.39053460175182
937.225,155.98615328492315
939.605,159.18362133032406
941.984,204.9347616689265
944.361,214.61996130324678
946.736,172.38150472310963
949.11,156.88547874998176
951.482,153.5122488098723
953.853,155.21360187290065
956.222,178.89369891667002
958.589,187.02812262773887
960.954,187.33054415070865
963.318,197.65748507540548
965.68,175.38926990025493
968.041,156.43002611466954
970.4,123.44577951952488
972.757,113.19778764289049
975.113,85.447301727178
977.467,60.28890014487706
979.819,24.76953609999464
982.17,9.936156758074958
984.519,-4.30715381427035
986.866,33.61034924255546
989.212,37.16416791609072
991.556,54.49646672151766
993.899,50.416073339455124
996.24,71.255622110898
998.579,60.871554675008156
1000.92,75.02507298786122
1003.25,64.85833043642924
1005.59,76.08490866684951
1007.92,62.22791346031454
1010.25,61.715213466102796
1012.58,57.11753607747005
1014.91,47.7198966408705
1017.24,34.09302766518249
1019.56,28.521950888069114
1021.88,34.482168389964954
1024.2,76.83013942234174
1026.52,113.80328104550563
1028.84,135.06758781400367
1031.16,134.24144193822895
1033.48,111.80037582697742
1035.79,98.88659653476816
1038.1,113.78517687582143
1040.41,121.63834177614513
1042.72,170.15975462560937
1045.03,189.5392798205096
1047.33,184.25250721088037
1049.64,156.77503845257752
1051.94,139.2967733593539
1054.24,108.15048196922248
1056.54,108.4784718489168
1058.84,106.28020777929737
1061.13,116.98374096457633
1063.43,123.15999538439291
1065.72,181.47514938398535
1068.01,163.69063631198696
1070.3,153.66314515821682
1072.59,139.67795452480823
1074.87,149.54417135923973
1077.16,167.16616016355738
1079.44,200.44830553692987
1081.72,204.77120328962883
1084.0,266.7535658427212
1086.28,336.4426990563459
1088.56,439.07640762940946
1090.84,517.2258528802404
1093.11,535.4146010034344
1095.38,545.7852903743144
1097.65,523.4329655200618
1099.92,476.1669825194126
1102.19,422.65386678330447
1104.46,348.08398035933646
1106.72,289.2191416171793
1108.98,293.0592925530275
1111.24,316.84249942738757
1113.5,357.4735248314439
1115.76,430.2857330867596
1118.02,486.0887099306874
1120.28,540.5492155351162
1122.53,581.0959470490293
1124.78,587.0147773315434
1127.03,540.0201841611363
1129.28,506.8266794448796
1131.53,429.48214318956957
1133.77,382.70115747286445
1136.02,336.1983404144014
1138.26,353.3073944326484
1140.5,395.31444021602874
1142.74,489.4103983131058
1144.98,535.2624183418077
1147.22,582.8710224843771
1149.45,581.2843918394526
1151.69,546.2650337265372
1153.92,484.8135918476096
1156.15,437.0736088296917
1158.38,387.71247924360296
1160.61,356.6833550036672
1162.83,306.5584793388441
1165.06,252.00537790671615
1167.28,213.26304990747963
1169.5,168.18958776935506
1171.72,156.3574158816284
1173.94,139.7199578991208
1176.16,96.84973261808659
1178.37,63.31930699496934
1180.58,58.463201546111804
1182.8,11.425510033178853
1185.01,2.2551381962005053
1187.22,8.381994867570029
1189.42,-12.430626437772162
1191.63,-8.371760941217417
1193.84,16.226752075867125
1196.04,-10.157350228405676
1198.24,5.096577745699506
1200.44,0.9901839464423574
1202.64,-0.14150278013994466
1204.84,37.56040161108581
1207.03,57.859586957280044
1209.23,69.37692803748655
1211.42,96.06667324628643
1213.61,100.59739517222852
1215.8,129.30436974767463
1217.99,158.80862206532083
1220.18,177.15978171852248
1222.36,179.40750957019554
1224.55,174.12530547409278
1226.73,162.88669694846612
1228.91,143.31285642115336
1231.09,141.739266093713
1233.27,176.5490494722253
1235.44,206.79201718380773
1237.62,243.5179985074119
1239.79,289.3006490951034
1241.96,359.5707825028562
1244.13,445.71160648326395
1246.3,563.7730068972883
1248.47,684.7572601974452
1250.64,850.0952221014636
1252.8,1047.4558495992728
1254.96,1338.746199150482
1257.13,1635.920948691372
1259.29,1912.649062499036
1261.44,2122.7899798650437
1263.6,2227.250756150053
1265.76,2213.5098705051005
1267.91,2158.6648431166836
1270.06,2010.0989000709124
1272.22,1820.7190667890732
1274.37,1604.908547177491
1276.51,1391.3838646821428
1278.66,1200.8615271528047
1280.81,1076.6294536119572
1282.95,938.6898295951232
1285.09,836.616248205486
1287.23,746.3632321208929
1289.37,743.0757556008589
1291.51,722.3749569697593
1293.65,733.8819463381265
1295.78,737.1225657048885
1297.92,798.289291916758
1300.05,866.2888539133396
1302.18,960.5517547341356
1304.31,1058.460841144602
1306.44,1107.6846351669692
1308.57,1164.46304656345
1310.69,1225.321656748015
1312.82,1298.4526693648404
1314.94,1356.2387180096098
1317.06,1468.2528644270028
1319.18,1519.1157395653277
1321.3,1533.686017964489
1323.41,1465.67946357253
1325.53,1392.335594609785
1327.64,1272.6557770044733
1329.75,1180.2603654473264
1331.87,1067.7696539700296
1333.98,970.8514931903283
1336.08,859.7927170809508
1338.19,755.3086649766233
1340.3,665.3527035810866
1342.4,564.7352727836355
1344.5,456.457217189939
1346.6,400.5193081290663
1348.7,340.39843232716385
1350.8,305.3333043906714
1352.9,301.0863697657155
1354.99,251.94380293560744
1357.09,203.6678865707263
1359.18,185.5922478212501
1361.27,185.85995175275457
1363.36,210.7568328770385
1365.45,234.18768382580947
1367.54,202.67625354817665
1369.62,179.07953122243953
1371.7,181.96869683453997
1373.79,215.24816699461462
1375.87,245.67940265830703
1377.95,269.6904311337976
1380.03,239.66155856501746
1382.1,223.5920347958213
1384.18,183.242908710351
1386.25,149.94655024006215
1388.33,138.8923628469447
1390.4,116.55535314959616
1392.47,102.79136721596933
1394.54,93.07518399896594
1396.6,61.262418295857515
1398.67,25.49428085055274
1400.74,21.149957503488395
1402.8,0.6561311986615692
1404.86,9.39174464016287
1406.92,40.21181271266255
1408.98,84.87599687735678
1411.04,120.71527579080475
1413.09,177.2033778285297
1415.15,224.29011837052326
1417.2,286.06807042008086
1419.25,394.05828284169024
1421.3,494.2102843132013
1423.35,554.425896801815
1425.4,579.0830490400665
1427.45,553.1786376208568
1429.49,493.04281666391194
1431.54,428.8151922441498
1433.58,364.73054062956203
1435.62,311.02357413815116
1437.66,263.35751651867395
1439.7,256.157440236138
1441.74,241.5150323287371
1443.77,210.56955074096936
1445.81,187.69830446628202
1447.84,202.75475273732968
1449.87,223.54469945433243
1451.9,294.20724951818875
1453.93,339.78624135406903
1455.96,364.51596514929975
1457.98,370.0592620436187
1460.01,449.55514712895956
1462.03,552.4759562587535
1464.05,760.3416357143735
1466.07,971.9102223477682
1468.09,1269.4159427717145
1470.11,1606.1882649310262
1472.13,1977.9852353880415
1474.14,2363.8030070843165
1476.16,2710.3044147213513
1478.17,2918.438026331804
1480.18,3011.3429091364105
1482.19,2947.8248239723466
1484.2,2708.451467340613
1486.21,2366.3619991677338
1488.21,1930.3146658055211
1490.22,1497.4487087451457
1492.22,1148.5224638073933
1494.22,846.1990793805389
1496.22,643.5227108487029
1498.22,460.5851912106775
1500.22,320.3355588416059
1502.22,225.38958525467297
1504.21,183.74406476754461
1506.21,131.6815803592899
1508.2,113.19907905110381
1510.19,71.34120919180009
1512.18,52.43841964805165
1514.17,41.53553518511444
1516.16,19.629855657073904
1518.14,17.004493292326515
1520.13,-19.81924240188914
1522.11,-27.79612640162827
1524.09,-12.309395166469812
1526.07,-0.21836384982634627
1528.05,-4.239379878280033
1530.03,12.673222186637304
1532.01,26.89854671711805
1533.98,30.76818170479305
1535.96,44.375719636922895
1537.93,44.00532599163989
1539.9,36.4174505903286
1541.87,49.03930085476509
1543.84,72.63150554044591
1545.81,51.097635612771
1547.78,45.91277274227332
1549.74,57.313982561753846
1551.7,102.91935935198853
1553.67,154.77564215600864
1555.63,204.16773565528342
1557.59,238.2377548554266
1559.55,249.6040697719052
1561.5,271.31368344907514
1563.46,296.9850861696975
1565.41,311.80825252159093
1567.37,313.4494003690447
1569.32,279.28908315757053
1571.27,244.04123459960306
1573.22,234.0864990744867
1575.17,194.99603821893334
1577.11,168.05533751747885
1579.06,127.59753670246914
1581.0,106.00342682070391
1582.95,115.41573301437347
1584.89,165.40577825437185
1586.83,164.21157564504824
1588.77,165.30925406228062
1590.7,119.74638855346439
1592.64,83.04675930892222
1594.58,36.11511063332546
1596.51,11.451433726628466
1598.44,29.389058988815805
