Raman Shift,Processed Intensity
331.095,85.423701888094
333.909,65.44299370735462
336.721,55.94781946572948
339.531,63.43818768708752
342.339,110.74745727635036
345.145,170.32806032909411
347.949,207.41817732205345
350.751,196.68460277983922
353.55,242.55608713212587
356.348,252.31858333275386
359.144,262.73430300263317
361.937,294.27982019170486
364.729,279.90798466470096
367.518,282.1431685202647
370.306,347.0336556671946
373.091,410.34212653880013
375.874,431.40280947392966
378.656,470.2643463837021
381.435,419.9755155611024
384.212,327.20428782391537
386.988,227.952120752891
389.761,134.64920531085045
392.532,70.86876008086074
395.301,56.660373123443605
398.068,17.550010500463486
400.833,-28.74568948670276
403.596,-76.17655063041911
406.358,-90.5969437586873
409.117,-46.28958922996253
411.874,11.129678422361394
414.629,26.473800275619396
417.382,29.55590078711657
420.133,33.76069683349442
422.882,47.90162402663918
425.629,132.6970140398289
428.374,242.8653234778917
431.117,321.887034940758
433.858,400.95703427749277
436.597,475.2227021260437
439.334,521.1648625958405
442.069,545.9787319503948
444.802,545.669153004194
447.533,513.431543805299
450.262,514.3185606036773
452.989,553.097237009993
455.714,624.2013612496416
458.438,632.9219486548823
461.159,601.5500951093486
463.878,512.9484019211309
466.595,463.36049593394364
469.31,453.93483535258383
472.024,508.2008965207706
474.735,525.831074984696
477.444,558.4025865565795
480.152,554.968892187741
482.857,572.8215990321582
485.561,549.5856948433561
488.262,576.3147823712984
490.962,563.0625042354682
493.659,572.4539677979515
496.355,610.6857414650863
499.048,630.6687081319806
501.74,662.5518710079727
504.43,720.3890165849557
507.118,835.3291871294978
509.804,983.7595341273486
512.488,1127.1624574422322
515.17,1232.2108397127404
517.85,1350.6728045587402
520.528,1415.1736176449426
523.204,1506.005206792081
525.878,1565.4594916119
528.551,1579.3521893326233
531.221,1602.64185871966
533.89,1630.4298963772471
536.556,1626.7224378120209
539.221,1600.5255918299026
541.883,1537.17877017109
544.544,1504.926112383152
547.203,1491.202196408392
549.86,1512.3463205997946
552.515,1569.0786904988795
555.168,1649.1194627564223
557.819,1674.1887414341322
560.469,1738.3875266872815
563.116,1781.9596158282757
565.761,1837.434456771196
568.405,1891.7223824286984
571.047,1994.781273680358
573.687,2056.6165556743254
576.324,2108.376432224228
578.96,2114.1137868727374
581.594,2115.3576077646603
584.227,2060.922507758132
586.857,2040.2420540596104
589.485,2008.0354311922129
592.112,1952.4979134878472
594.737,1869.8722899603113
597.359,1792.0679082260085
599.98,1699.2320993770377
602.599,1643.2263647590516
605.216,1600.2930389395874
607.831,1575.3410002954488
610.445,1599.7551911239007
613.056,1671.0156615633791
615.666,1829.5070897046794
618.274,2001.3283017021508
620.88,2181.2922680753563
623.484,2369.3070523916977
626.086,2578.661521853793
628.686,2790.3586769344847
631.284,2958.353742916602
633.881,3012.79226143273
636.476,2957.771991528787
639.068,2808.866715489509
641.659,2588.935758949657
644.249,2317.790653862358
646.836,1925.0522776579196
649.421,1576.2937066883683
652.005,1254.5164030053083
654.587,964.2454487568343
657.166,767.3866853463519
659.745,626.3219478294923
662.321,479.67096597769296
664.895,384.5770748655864
667.468,318.8024492679165
670.038,266.6328618659709
672.607,217.06815573974063
675.174,184.6317644791211
677.739,164.1802322951221
680.303,126.23654365487619
682.864,79.32345291665706
685.424,59.43967110774838
687.982,47.345576511841955
690.538,68.7060763029931
693.092,80.18585543901463
695.645,69.40177349342002
698.195,28.922887492496102
700.744,-28.681906200000867
703.291,-49.70099190291512
705.836,-22.280008719746093
708.38,35.435314835429836
710.921,59.775367782923695
713.461,88.11809918690233
715.999,84.36522256962098
718.535,92.1803250875555
721.069,110.41745289801338
723.602,146.40683938288885
726.133,113.33587146765603
728.662,97.20148451178648
731.189,53.90541434202851
733.714,18.063734999970166
736.238,-28.56455589135112
738.759,-51.744189856077355
741.279,-41.62075648462951
743.798,-28.196882909229316
746.314,-23.14175215853811
748.829,3.732707482316073
751.342,-15.813893538173033
753.853,-18.355169666849633
756.362,0.5829904108632036
758.869,-3.7156731913260046
761.375,-6.062555189541399
763.879,6.588194098447275
766.381,-2.574618685259793
768.882,-3.5049459486008345
771.38,-4.537596111847506
773.877,7.945098001534916
776.372,19.32280125021316
778.866,26.26098397460146
781.357,56.47282503456836
783.847,102.05254341858108
786.335,147.90396794807566
788.821,161.93101174373942
791.306,202.89481335845403
793.789,252.6994493388206
796.27,343.10621821524
798.749,494.40030544439605
801.227,611.8193531136253
803.702,731.8391725024435
806.176,814.6975518821596
808.649,866.822826220257
811.119,842.024351646674
813.588,789.3972656343844
816.055,667.32248527521
818.521,611.7524198413539
820.984,534.6395404897953
823.446,504.1744737762001
825.906,452.59552374026316
828.365,404.6648606577246
830.821,351.00185264952233
833.276,281.36877824333214
835.729,263.0993960779542
838.181,234.6703717505702
840.631,216.84413323541776
843.079,187.71648820723613
845.525,164.5737651742361
847.97,104.60709746821249
850.412,124.05527866322655
852.854,113.06190370858076
855.293,137.24679577606548
857.731,126.80124263102016
860.167,147.8689472891051
862.601,128.40316914925825
865.034,110.97624607903936
867.465,92.25578316663496
869.894,84.48084147286954
872.321,56.509555354646636
874.747,65.15246407409722
877.171,63.60108150296719
879.594,47.52313249367717
882.014,46.776836869418275
884.433,29.315669604734012
886.851,39.14074005371822
889.266,62.39602832107221
891.68,87.17790734745495
894.092,125.24942689958698
896.503,167.51650232226848
898.912,181.83743662372535
901.319,198.02291875142964
903.724,197.93125996316485
906.128,182.94458257904807
908.53,174.11167540021643
910.931,181.67180150846707
913.329,183.00707749446929
915.726,173.02342411454492
918.122,157.0553264712612
920.516,152.62773705117024
922.908,130.45607400063636
925.298,147.06526702071233
927.687,166.21832707154
930.074,178.58301131484723
932.459,187.87467853263888
934.843,184.61819216492904
937.225,198.90982334747832
939.605,221.36963014000912
941.984,224.23669389728002
944.361,219.13102230682534
946.736,206.14878576002684
949.11,169.81469658033257
951.482,189.7010549181382
953.853,182.23727083615313
956.222,185.138434013807
958.589,184.7862644040365
960.954,166.99101527102994
963.318,146.70575718034024
965.68,154.40732865567998
968.041,138.3344296928508
970.4,120.6780962260591
972.757,85.29598411804136
975.113,57.9504626739963
977.467,35.35623196504548
979.819,38.84698777073345
982.17,35.13732461677182
984.519,34.32273405087244
986.866,7.022460061447873
989.212,19.284259258212842
991.556,30.48916105278022
993.899,71.49432380557619
996.24,79.20446434717542
998.579,126.19090654725596
1000.92,104.26301083593808
1003.25,79.94436562987994
1005.59,52.75850256790591
1007.92,49.46699269900637
1010.25,10.926590289398519
1012.58,17.470186153382656
1014.91,55.81157050802358
1017.24,69.37876835622092
1019.56,88.93308915549142
1021.88,110.18817648675304
1024.2,80.23858153263336
1026.52,48.32166988911786
1028.84,96.96048075814815
1031.16,107.77325280688683
1033.48,136.8067595507896
1035.79,139.86964473668377
1038.1,126.05623391632571
1040.41,149.6512984009073
1042.72,170.41577159652388
1045.03,150.53913200630404
1047.33,157.6394052801611
1049.64,129.76316626454218
1051.94,114.1474458140774
1054.24,133.93401855561842
1056.54,144.9789287475087
1058.84,146.47153994837754
1061.13,133.9821561145136
1063.43,131.65249984009415
1065.72,149.10047631169573
1068.01,142.7058896437693
1070.3,161.7533020712499
1072.59,162.67013123740662
1074.87,148.50284271979353
1077.16,152.39314255620047
1079.44,186.8160745325074
1081.72,199.5324031848197
1084.0,241.49337775399727
1086.28,279.1264485211275
1088.56,368.04955457157325
1090.84,452.49969727331063
1093.11,529.2853232790649
1095.38,529.5958503856032
1097.65,505.23976482158423
1099.92,423.6922423449362
1102.19,391.7141979116643
1104.46,359.8284782018013
1106.72,361.2246255739292
1108.98,343.42554678160855
1111.24,359.38275311837583
1113.5,357.6192196103689
1115.76,396.8008156375204
1118.02,457.87916412618097
1120.28,532.0916435988763
1122.53,570.4375807002664
1124.78,574.5830141516617
1127.03,548.6702206103078
1129.28,458.4129548143819
1131.53,404.0964516327492
1133.77,368.67266620995747
1136.02,340.14122839695165
1138.26,350.26373051511996
1140.5,398.135157977483
1142.74,428.8981770527412
1144.98,510.1240892959838
1147.22,556.3366431222571
1149.45,558.5834644277495
1151.69,573.5789157824095
1153.92,505.5136222892195
1156.15,436.7211403006247
1158.38,372.1541499444777
1160.61,291.3844571737932
1162.83,261.1268053403189
1165.06,252.33411533952608
1167.28,203.57844004132858
1169.5,165.38429967318461
1171.72,134.41916006034535
1173.94,103.58867277086028
1176.16,93.98905811772829
1178.37,68.0499643515218
1180.58,18.48685066254393
1182.8,-18.270439340826897
1185.01,-1.7443422490250668
1187.22,-12.314334706283262
1189.42,-4.264552317474681
1191.63,-9.117123017643735
1193.84,-13.536930296882929
1196.04,-37.9030435314437
1198.24,-18.68967307887624
1200.44,-11.513793478202842
1202.64,12.531514802573838
1204.84,28.591340636067798
1207.03,38.19178769408654
1209.23,24.049487863704144
1211.42,31.262069909623733
1213.61,80.30815194606248
1215.8,107.52352684812013
1217.99,142.91068417046654
1220.18,166.85309397079845
1222.36,194.54377634757793
1224.55,211.46149002539505
1226.73,243.2754923688949
1228.91,228.32172796813802
1231.09,185.031398176337
1233.27,168.78810207616198
1235.44,158.5945012555735
1237.62,183.50088934556516
1239.79,203.6528091769519
1241.96,279.7672413657292
1244.13,367.1326024222458
1246.3,513.9896952413169
1248.47,690.2459929256811
1250.64,888.6184940380354
1252.8,1083.0622921387653
1254.96,1357.8181929427474
1257.13,1675.269855285656
1259.29,1959.229503518848
1261.44,2200.318877999483
1263.6,2334.3025665330283
1265.76,2309.0880024824246
1267.91,2193.677843829645
1270.06,2051.5033046181907
1272.22,1850.32891496703
1274.37,1660.7287096559476
1276.51,1485.2767024252034
1278.66,1291.2611697989887
1280.81,1132.8751253850687
1282.95,985.5020322696773
1285.09,877.6681820790641
1287.23,810.4712645172326
1289.37,768.8660797608331
1291.51,757.6645365683289
1293.65,786.6785075320281
1295.78,833.3388748062962
1297.92,876.2193377405324
1300.05,938.1316490835816
1302.18,993.4113273786165
1304.31,1015.727178881833
1306.44,1068.4622480525736
1308.57,1138.0471489958277
1310.69,1221.4838730952197
1312.82,1304.4410252174207
1314.94,1434.539536107035
1317.06,1484.781231924349
1319.18,1519.834546640226
1321.3,1478.1773772881443
1323.41,1434.1447011209966
1325.53,1343.642859434558
1327.64,1298.2924128195305
1329.75,1225.9043297469098
1331.87,1127.860937058133
1333.98,1014.4016323599785
1336.08,899.2895488004274
1338.19,759.6686960350012
1340.3,647.2068154788058
1342.4,563.0001403204947
1344.5,462.1448222028871
1346.6,404.49883409406357
1348.7,368.9676826822756
1350.8,319.5044064851445
1352.9,291.9667168159972
1354.99,255.3550911311586
1357.09,208.62229494866597
1359.18,175.95909424317506
1361.27,153.50853926944
1363.36,142.27072457626218
1365.45,143.24564425854032
1367.54,133.4808091140776
1369.62,113.16648284801022
1371.7,105.92139446771034
1373.79,119.45940305864679
1375.87,145.20854351261823
1377.95,177.3586436845635
1380.03,214.67084631127273
1382.1,205.7633214062821
1384.18,198.39697865477456
1386.25,175.38022742752855
1388.33,144.61659393771424
1390.4,98.34281458817213
1392.47,58.605024556782155
1394.54,15.353994000887269
1396.6,-0.316778595431515
1398.67,-10.361538576408293
1400.74,-14.067983675740834
1402.8,-22.723924994485515
1404.86,-2.3791872628039528
1406.92,37.67820356712127
1408.98,77.20773484602887
1411.04,121.63545482202835
1413.09,153.72064310421797
1415.15,205.03200493582722
1417.2,287.47148451497605
1419.25,391.94093545829696
1421.3,504.43736269311785
1423.35,567.5291167306109
1425.4,566.3558974627399
1427.45,523.9144722449328
1429.49,438.10629874064966
1431.54,362.7851477659465
1433.58,319.6618689911877
1435.62,281.35201378561055
1437.66,254.80441044284908
1439.7,243.4916441683606
1441.74,221.5529180192325
1443.77,222.41310432018759
1445.81,204.49703417481305
1447.84,187.80092983393956
1449.87,218.79717039735715
1451.9,260.1009622774279
1453.93,290.9941525198526
1455.96,341.1871373625188
1457.98,405.1998184134063
1460.01,474.4568445427733
1462.03,620.0019013943954
1464.05,806.4500961349004
1466.07,1028.2260564888195
1468.09,1295.6591726307827
1470.11,1655.2693152681825
1472.13,2030.576363247653
1474.14,2422.671635923439
1476.16,2784.1226588591207
1478.17,3026.544596195985
1480.18,3091.600254449977
1482.19,2996.0000863086543
1484.2,2743.2164801424206
1486.21,2385.626620944343
1488.21,1946.7505893652008
1490.22,1512.9656512247293
1492.22,1109.1729279752421
1494.22,792.654543355726
1496.22,585.7402938554635
1498.22,447.3314620347917
1500.22,337.94843936967595
1502.22,269.63549195342307
1504.21,168.43695476982566
1506.21,110.68294977583037
1508.2,88.84653255562966
1510.19,82.73417230809264
1512.18,86.20004135800218
1514.17,71.43173323871974
1516.16,13.140742679614277
1518.14,-12.056578216035632
1520.13,-12.639016174095332
1522.11,-7.418588190720584
1524.09,-0.7786342008437259
1526.07,0.18332705880561662
1528.05,-14.534877610728927
1530.03,-8.840075340576504
1532.01,-12.067556187801756
1533.98,4.780830659575258
1535.96,16.989055967061176
1537.93,16.412621631535103
1539.9,11.90712900194444
1541.87,17.042561485720626
1543.84,34.72232905995543
1545.81,80.94516992543595
1547.78,115.90038549401106
1549.74,151.30117061405213
1551.7,168.62270570067858
1553.67,193.48310600883588
1555.63,230.1196090016117
1557.59,249.76952362331917
1559.55,267.24165576305336
1561.5,287.7258289563331
1563.46,295.93573842008504
1565.41,318.2518050876256
1567.37,314.14974392935324
1569.32,288.9624656067783
1571.27,256.54674003130503
1573.22,227.52128849444853
1575.17,186.93344722662118
1577.11,161.83059286068192
1579.06,141.45061551453432
1581.0,142.88858234991403
1582.95,146.4300677978449
1584.89,142.59876949838076
1586.83,127.39460043082022
1588.77,135.57940009153504
1590.7,134.81978852895259
1592.64,131.11573466424147
1594.58,103.44341032629404
1596.51,67.89804428670072
1598.44,31.146300104244574
