Raman Shift,Processed Intensity
331.095,68.28831332951268
333.909,-10.34816577879792
336.721,-3.228536304575755
339.531,52.81387523891226
342.339,92.70765968625165
345.145,154.548092565753
347.949,175.8590443024541
350.751,140.06917613541282
353.55,100.46432651120813
356.348,150.04465938218527
359.144,175.09609821899085
361.937,224.7141409754986
364.729,259.32767505371703
367.518,280.6037446496648
370.306,331.0666038135305
373.091,394.4310552241104
375.874,442.98340801088125
378.656,456.5814831950961
381.435,417.5117619880334
384.212,313.2989150416115
386.988,181.08676027045112
389.761,25.733506388218757
392.532,-7.521574984595645
395.301,-11.201001022427135
398.068,35.5537848893282
400.833,44.7919416034656
403.596,13.324662216631623
406.358,-28.036727258362134
409.117,-29.576002553538274
411.874,-19.48156015349241
414.629,-2.560701359604991
417.382,10.14131839949323
420.133,32.6270000050813
422.882,95.32754890695742
425.629,170.3885863434607
428.374,267.1463367519709
431.117,359.69905327465085
433.858,455.0022527879901
436.597,516.4877604561666
439.334,569.6827542844076
442.069,607.971666815225
444.802,629.4057058722492
447.533,658.5123753040803
450.262,685.1049957281334
452.989,689.9969871792373
455.714,690.573294615378
458.438,678.5046705663058
461.159,650.5571958773735
463.878,647.5446575962387
466.595,634.8999744786033
469.31,593.8180510653974
472.024,589.2557746170905
474.735,574.2177263337248
477.444,523.8514163844643
480.152,531.9710903657087
482.857,568.1053452830247
485.561,582.9256979140182
488.262,635.579915075979
490.962,675.4062962744752
493.659,719.8860515900451
496.355,750.7385367077468
499.048,801.7307736609919
501.74,859.3917334801413
504.43,910.5837616982435
507.118,982.9311467139082
509.804,1110.2963072018156
512.488,1169.113122380359
515.17,1298.1964527554846
517.85,1451.9326132454803
520.528,1543.5650844010029
523.204,1651.8135569584456
525.878,1713.3025002028207
528.551,1704.1325874735062
531.221,1723.2140264318846
533.89,1770.6951274242383
536.556,1786.9623004160417
539.221,1810.8305281167554
541.883,1784.4481248188945
544.544,1748.7729238085226
547.203,1689.4294171567062
549.86,1690.1373240823832
552.515,1706.4734926485812
555.168,1747.0623728872088
557.819,1815.0045851619338
560.469,1903.8769171025183
563.116,1998.9704157772203
565.761,2097.3856227223614
568.405,2189.603999448067
571.047,2264.1545910392565
573.687,2337.5187849947206
576.324,2433.035070066197
578.96,2480.8990331927043
581.594,2490.4490707205655
584.227,2515.6425758139294
586.857,2453.5797449128963
589.485,2361.3607175249786
592.112,2279.2284303022675
594.737,2125.5686139757586
597.359,1992.2907426706197
599.98,1923.8280308405206
602.599,1785.2802873448063
605.216,1697.1758171447232
607.831,1681.042846809174
610.445,1697.790473830004
613.056,1750.8039016515586
615.666,1914.8015794621642
618.274,2092.359008652263
620.88,2350.337311177314
623.484,2649.4070360159317
626.086,2880.8100608661207
628.686,3055.502446222475
631.284,3225.2020513581306
633.881,3264.7694836400437
636.476,3227.9223811776333
639.068,3063.902076423779
641.659,2755.0450216805825
644.249,2414.306595557529
646.836,2038.3563380010442
649.421,1649.4827091336015
652.005,1315.0692766642333
654.587,1022.2613794895251
657.166,765.680410342221
659.745,638.09047939222
662.321,532.7793635618614
664.895,461.2727891745403
667.468,380.2391907937995
670.038,313.82304149099537
672.607,234.07342120819567
675.174,234.22972797822968
677.739,227.76929390663736
680.303,231.07404877267345
682.864,228.3352788683992
685.424,201.17267155206218
687.982,175.87240742052973
690.538,133.24430010074911
693.092,77.62179318408471
695.645,61.24290954160051
698.195,51.15501016315238
700.744,18.07193394885735
703.291,21.469232738664232
705.836,29.34607300858579
708.38,31.225234741275926
710.921,52.77216020400874
713.461,84.03305342761041
715.999,110.76822105381143
718.535,163.35684704623418
721.069,209.0827197823305
723.602,195.6580543834184
726.133,159.4616007590016
728.662,120.63389450822751
731.189,76.12488877372152
733.714,65.78920514304309
736.238,50.62424169300175
738.759,22.674947700632856
741.279,1.9862174017916914
743.798,9.745765153874345
746.314,-1.4777588207425651
748.829,4.265252298763244
751.342,4.686336148858118
753.853,-22.64577905848273
756.362,-19.781342857177606
758.869,3.1818687381423842
761.375,5.431906492118742
763.879,11.109332136181365
766.381,0.2119981629398353
768.882,-46.4525527044716
771.38,-45.45754391705577
773.877,-37.32837386073925
776.372,-40.018792541412495
778.866,-34.38708415261726
781.357,-33.71987344070476
783.847,-15.827365766046569
786.335,36.48045610278177
788.821,115.58429759891442
791.306,185.10315889904587
793.789,294.989564476512
796.27,392.24384027342194
798.749,541.2474384918296
801.227,696.1915004801517
803.702,801.3149434290926
806.176,858.8092137342537
808.649,870.3897070254025
811.119,828.2481405766921
813.588,782.9096876216449
816.055,717.8996354776582
818.521,637.4100436705089
820.984,544.8235449159988
823.446,448.4276222920853
825.906,370.98602926814465
828.365,339.59592401995496
830.821,305.16405136373214
833.276,300.5972104044554
835.729,278.3736745651313
838.181,249.63842113988267
840.631,227.96502751369235
843.079,198.2128054773957
845.525,137.95536411410058
847.97,110.57583935227967
850.412,114.83831399504652
852.854,108.6973329875359
855.293,108.86932344618799
857.731,84.88020516421966
860.167,76.49395349804581
862.601,70.9506860632332
865.034,79.68093990663192
867.465,76.496139154699
869.894,59.0171578999134
872.321,50.05526403957856
874.747,35.99306311461851
877.171,29.54639452932497
879.594,13.811942056824137
882.014,31.981514650135523
884.433,39.15156836851975
886.851,61.41844404579706
889.266,60.021227239059954
891.68,79.57984627262567
894.092,104.19031313913092
896.503,127.37710725776287
898.912,157.6646068515456
901.319,175.9580441341427
903.724,187.30541287762208
906.128,194.61175693259747
908.53,201.30583970075259
910.931,177.1972897978476
913.329,180.9527943357598
915.726,168.71514934739207
918.122,178.62707211632642
920.516,195.0692992207596
922.908,182.08916076793275
925.298,160.54344034283076
927.687,146.81266352831972
930.074,147.46776737765867
932.459,164.0320079822577
934.843,180.6000108965659
937.225,176.83777394392246
939.605,177.6017176414557
941.984,184.27202133926903
944.361,219.70500697868238
946.736,247.75695142189306
949.11,245.2364702102186
951.482,202.19023465565988
953.853,182.23630798010345
956.222,128.1831957402178
958.589,154.3631819666498
960.954,137.2513795889322
963.318,129.27525705087328
965.68,114.52892683070377
968.041,130.48743396122927
970.4,106.5781874071281
972.757,127.60953429938809
975.113,87.43742940783977
977.467,61.63210461369681
979.819,50.57330981065661
982.17,23.78364904411046
984.519,-3.071416682985273
986.866,-9.564518985188442
989.212,-10.458760241082928
991.556,3.6256222366673683
993.899,70.1636386743412
996.24,76.3445949082402
998.579,82.69114045576362
1000.92,80.24974515792246
1003.25,62.4478424885142
1005.59,49.66525857758916
1007.92,54.90087933014138
1010.25,44.248841354330125
1012.58,35.08900860397716
1014.91,21.467925211542934
1017.24,28.67024451158204
1019.56,77.74253901657539
1021.88,86.44568182134071
1024.2,107.35008515029267
1026.52,64.9785579523309
1028.84,69.71106825762126
1031.16,95.5942674391481
1033.48,143.341490664734
1035.79,162.8565668728802
1038.1,170.9004858914809
1040.41,142.09139888987238
1042.72,160.95223787850773
1045.03,183.62500187528758
1047.33,172.01361450046852
1049.64,167.5458291906184
1051.94,155.7922772697102
1054.24,145.514087448797
1056.54,145.75812437329296
1058.84,183.76175097978694
1061.13,189.71473370998547
1063.43,200.18781439133
1065.72,201.27556783188948
1068.01,205.9297356057382
1070.3,219.14970269547075
1072.59,243.45868842043456
1074.87,249.8085087935333
1077.16,263.4843388780296
1079.44,258.6761418110068
1081.72,267.62152639826763
1084.0,286.46289042350304
1086.28,341.1998020527126
1088.56,396.8794764767115
1090.84,486.5967763631686
1093.11,610.5894504038745
1095.38,657.4762290048761
1097.65,626.3996818813632
1099.92,572.0262185097122
1102.19,465.40323143665273
1104.46,391.8162395884556
1106.72,405.55079348485947
1108.98,400.3686661672991
1111.24,431.5078536509352
1113.5,482.73019442431155
1115.76,557.6547032347198
1118.02,622.6147143973747
1120.28,689.4674060569687
1122.53,681.2128482587459
1124.78,652.9940034005417
1127.03,580.191964780043
1129.28,522.8545284753966
1131.53,479.93428903532913
1133.77,444.4314970740386
1136.02,418.4892978184512
1138.26,446.0603982269206
1140.5,495.9070674412585
1142.74,569.0297086673274
1144.98,643.9049548651665
1147.22,655.0570977724485
1149.45,652.4866597850794
1151.69,602.6703944092194
1153.92,512.9898581418925
1156.15,434.4933156849163
1158.38,367.18145468265016
1160.61,327.0550052216472
1162.83,300.0671212350687
1165.06,249.45671428804917
1167.28,194.93893022021075
1169.5,168.37181626436404
1171.72,126.51822626044941
1173.94,100.33153539328941
1176.16,65.05087873986213
1178.37,41.34400886419871
1180.58,20.735867697985668
1182.8,28.465729849746594
1185.01,8.58244115211778
1187.22,6.801561971017691
1189.42,-10.827965675641735
1191.63,-17.400007280299633
1193.84,-17.86551955994514
1196.04,11.967450408058994
1198.24,21.33852610173699
1200.44,42.34452246853152
1202.64,65.93944422841969
1204.84,71.93448417703075
1207.03,86.99802148876825
1209.23,111.32228668659491
1211.42,115.81383613563048
1213.61,122.56974082246552
1215.8,167.63948942019078
1217.99,190.69165325818722
1220.18,215.49007510144293
1222.36,233.51291507273118
1224.55,228.61931562240534
1226.73,220.90654268866547
1228.91,208.5195078102106
1231.09,184.84124261984698
1233.27,167.0167066714248
1235.44,189.52421431440098
1237.62,217.79448061601806
1239.79,291.1630006168225
1241.96,366.39385715760363
1244.13,482.53686203966845
1246.3,617.7370781375025
1248.47,812.7586272257086
1250.64,1006.7942120916637
1252.8,1237.9889243624643
1254.96,1509.2497666175814
1257.13,1824.7694602158053
1259.29,2142.550253122192
1261.44,2394.975346782626
1263.6,2525.2374658555327
1265.76,2494.0531422292993
1267.91,2382.6150942777936
1270.06,2182.163653734931
1272.22,1973.5105735216275
1274.37,1760.5152165251225
1276.51,1559.0845539021293
1278.66,1366.0779252867264
1280.81,1193.973703760179
1282.95,1029.8692941540799
1285.09,882.5763694487268
1287.23,814.0494405048416
1289.37,802.6715686524194
1291.51,844.1115068510185
1293.65,859.0379837071846
1295.78,893.6911303490101
1297.92,925.0253358721338
1300.05,1002.423531357158
1302.18,1102.4114738870667
1304.31,1208.4672686598856
1306.44,1244.0213672918185
1308.57,1323.5518042156077
1310.69,1397.1556235551006
1312.82,1468.8345917140919
1314.94,1590.6856718699323
1317.06,1698.7105460861803
1319.18,1712.8632326633506
1321.3,1727.2405606325133
1323.41,1647.4631204393845
1325.53,1554.5800241522134
1327.64,1482.0689037649122
1329.75,1345.5978142620943
1331.87,1206.8347557317234
1333.98,1069.6857669063402
1336.08,919.3425425138116
1338.19,843.4729077709358
1340.3,776.4112928770501
1342.4,663.7777789362094
1344.5,560.7161914984154
1346.6,454.65600362464966
1348.7,373.7409056185752
1350.8,343.1621366630038
1352.9,320.872768837306
1354.99,290.87341970625266
1357.09,268.4027268136192
1359.18,262.8897269376853
1361.27,244.33480677531134
1363.36,199.97636791172317
1365.45,172.67177750458495
1367.54,169.56403325378915
1369.62,203.9389045617113
1371.7,226.41540702681277
1373.79,244.0410388419914
1375.87,225.9584457643682
1377.95,255.59589560888662
1380.03,258.61965750381296
1382.1,242.26733352719066
1384.18,216.10976177187467
1386.25,191.71768131532554
1388.33,129.4236352846351
1390.4,121.13149296917118
1392.47,85.79263859989578
1394.54,46.64406489058183
1396.6,49.30360943618098
1398.67,21.05566730165856
1400.74,0.13690361083126845
1402.8,31.355299468534213
1404.86,55.47110480400329
1406.92,95.05398170512149
1408.98,141.6258651779292
1411.04,159.94668104899256
1413.09,231.58577815348895
1415.15,325.39812242805147
1417.2,413.9528719559971
1419.25,527.0095710601661
1421.3,610.1848205862484
1423.35,651.8094243765815
1425.4,664.6426786010941
1427.45,620.7771372787172
1429.49,509.5433777988035
1431.54,415.60524263302614
1433.58,377.3884143805999
1435.62,350.84232414685084
1437.66,334.0592027789178
1439.7,303.75027495860195
1441.74,226.5790961523537
1443.77,182.4948895612672
1445.81,218.54207354726236
1447.84,252.57455096403214
1449.87,298.5890461070394
1451.9,325.4870130920817
1453.93,308.02702042433566
1455.96,332.72951651977905
1457.98,424.7815952266171
1460.01,539.1322375371835
1462.03,692.349458061746
1464.05,894.2393562642151
1466.07,1148.75088198357
1468.09,1491.5948866695683
1470.11,1886.2917460470262
1472.13,2325.5523161134306
1474.14,2749.1350796127454
1476.16,3066.22710203303
1478.17,3269.2059399850104
1480.18,3311.3063114854076
1482.19,3170.191528145031
1484.2,2905.2868321187843
1486.21,2500.9222568651758
1488.21,1991.1897736201286
1490.22,1515.03853310889
1492.22,1121.13201201983
1494.22,809.8003975734864
1496.22,595.3263054249417
1498.22,411.7066880423831
1500.22,288.22426689519716
1502.22,200.7332503563414
1504.21,162.23076589043512
1506.21,135.7616255751832
1508.2,105.27547257517199
1510.19,71.38868952043299
1512.18,73.28916402785899
1514.17,54.783911365473614
1516.16,29.013363783371005
1518.14,7.975183654177954
1520.13,-21.285256719821973
1522.11,-23.67487149003182
1524.09,-6.433810025841922
1526.07,7.293115885626321
1528.05,-4.686426239562024
1530.03,-3.7075294697440313
1532.01,11.180522178561887
1533.98,22.499965758603594
1535.96,26.106461512481246
1537.93,34.76051879975989
1539.9,42.74654107369793
1541.87,55.68234704795168
1543.84,53.66202519661829
1545.81,52.82735968284419
1547.78,69.51068485887185
1549.74,110.5205969089368
1551.7,159.80861787312256
1553.67,211.80252633787904
1555.63,231.3111166979752
1557.59,272.6670536565384
1559.55,330.58401243939215
1561.5,362.44239043795915
1563.46,355.2893045664557
1565.41,331.21954100003677
1567.37,266.7565049129389
1569.32,233.28078926424473
1571.27,220.74445786936258
1573.22,184.24247132865457
1575.17,159.39363676558696
1577.11,136.95965280297878
1579.06,114.22605930115014
1581.0,124.57366328655053
1582.95,127.90710773752039
1584.89,130.08344037005986
1586.83,143.57877766168622
1588.77,151.3930641133909
1590.7,158.43102198778206
1592.64,163.12119628532537
1594.58,141.2492854348709
1596.51,96.69623388893865
1598.44,26.462039004718008
