Raman Shift,Processed Intensity
331.095,78.85898514628934
333.909,87.03016208060853
336.721,71.19174680268225
339.531,55.34374719140396
342.339,71.27190116916063
345.145,166.54768458069339
347.949,223.74260478623637
350.751,225.04725615943516
353.55,182.17608987096537
356.348,180.79599319597946
359.144,167.66915453583715
361.937,198.79592843982573
364.729,240.41484348403628
367.518,246.09784824547933
370.306,297.84555727619136
373.091,409.6586875535486
375.874,463.29997112106685
378.656,452.5798772529906
381.435,407.3090012855628
384.212,280.0123582102028
386.988,170.1198667428689
389.761,100.49016672674998
392.532,64.36300796353544
395.301,18.50211523516691
398.068,23.623767611298263
400.833,23.444425375812898
403.596,13.061692141464846
406.358,-23.379006344642676
409.117,-42.30345523407868
411.874,-91.70863456741426
414.629,-78.63889652810894
417.382,-28.376433758081475
420.133,30.130144111229583
422.882,98.31341326104666
425.629,186.36806805318338
428.374,241.53661899611734
431.117,344.9665302173603
433.858,482.23402360249247
436.597,596.5345496008622
439.334,676.4446866027133
442.069,700.2554688877462
444.802,666.2104764784467
447.533,647.1248773743537
450.262,672.0520888339552
452.989,680.9028196089512
455.714,693.3498264642462
458.438,723.6850516503246
461.159,693.6767603756243
463.878,650.1885830408078
466.595,585.9414146159002
469.31,511.5610283031333
472.024,477.3399749140867
474.735,496.4756727230101
477.444,483.7846877963498
480.152,519.8455857508279
482.857,553.7608311305885
485.561,583.8234486890874
488.262,603.4693989567195
490.962,626.2775728560605
493.659,636.5412148885357
496.355,676.6964891782277
499.048,754.6081883728307
501.74,814.9506806398581
504.43,871.4459995199841
507.118,952.530505208962
509.804,1069.354879172869
512.488,1176.5936425728833
515.17,1314.6356270710057
517.85,1433.3458742072257
520.528,1522.589439538559
523.204,1584.0885301114417
525.878,1641.041546696018
528.551,1659.5516498299535
531.221,1703.9600877670182
533.89,1753.7033339494715
536.556,1792.0749863852056
539.221,1750.4638575011018
541.883,1732.5920639963624
544.544,1694.3245452672822
547.203,1646.9071532605913
549.86,1675.299980422008
552.515,1734.7011638352728
555.168,1735.6897369802105
557.819,1817.6541957765226
560.469,1887.1734455799374
563.116,1945.2548910355245
565.761,2090.1439545024273
568.405,2230.75264209765
571.047,2313.516681168408
573.687,2406.6812291930682
576.324,2444.7294398249296
578.96,2471.953886078876
581.594,2466.408935898963
584.227,2440.9583658212505
586.857,2359.656307969972
589.485,2285.6996256251305
592.112,2170.2850506948716
594.737,2088.228225949741
597.359,1986.3922710664715
599.98,1896.4020629574911
602.599,1756.215658957567
605.216,1695.6004819152145
607.831,1637.7047433793537
610.445,1642.8669620240612
613.056,1727.615958263798
615.666,1856.7660869638694
618.274,2008.1315177699503
620.88,2285.240515437591
623.484,2558.4306725426836
626.086,2832.0393802871704
628.686,3072.7847754952268
631.284,3191.4800209427754
633.881,3234.6523475917566
636.476,3153.3049539672606
639.068,2978.2027150584545
641.659,2686.7293197909685
644.249,2333.0777418325865
646.836,1925.01213897037
649.421,1578.4868953449318
652.005,1238.1704255894624
654.587,982.1118361116346
657.166,765.4075863754883
659.745,574.4395787547583
662.321,421.0656293385691
664.895,331.66708159428345
667.468,279.95832479224873
670.038,236.8439314781658
672.607,227.704366374026
675.174,176.68169527904183
677.739,145.82243682772514
680.303,121.41089043843795
682.864,81.87389283336688
685.424,58.828431701362206
687.982,60.51021174172183
690.538,63.05937185412813
693.092,61.33001797364841
695.645,48.50928590917647
698.195,-5.406446618625978
700.744,-17.37344317748648
703.291,-32.014867892313305
705.836,-7.715997687108938
708.38,-4.76705549615599
710.921,11.589191025509535
713.461,42.91935378042581
715.999,91.12325276977208
718.535,134.00536484902295
721.069,202.6557962931388
723.602,204.40268393319002
726.133,165.19316772153934
728.662,120.64102996370366
731.189,41.979096454968385
733.714,8.202113807479236
736.238,-7.885611317904477
738.759,-15.860668217837883
741.279,-21.53766481939647
743.798,-26.44539797201878
746.314,-44.68397612041554
748.829,-38.639084834613186
751.342,-57.69625234000205
753.853,-67.47892908364929
756.362,-58.46751968157287
758.869,-43.90413506835512
761.375,-20.60211356916352
763.879,11.86349968216291
766.381,9.632139991692839
768.882,-14.727994407919596
771.38,-12.981850346949614
773.877,0.3915246728342936
776.372,33.48469353626842
778.866,85.24754057289965
781.357,98.86822071033248
783.847,114.53506100852564
786.335,118.38893838456988
788.821,148.18994305175147
791.306,223.9840419586135
793.789,326.48402794231015
796.27,432.64094507242953
798.749,567.5012282805483
801.227,665.111462037396
803.702,775.6612342681296
806.176,845.0069426485466
808.649,870.3860770917859
811.119,880.1315022350173
813.588,848.6714542118461
816.055,803.1485850437712
818.521,737.8009117935485
820.984,647.914194289986
823.446,570.7266938051139
825.906,513.5244079218346
828.365,426.73630540157046
830.821,403.9819420042968
833.276,359.6905048799981
835.729,336.86271410299014
838.181,307.49939087290204
840.631,258.93478762042014
843.079,233.69372763683896
845.525,241.92017327502754
847.97,220.56769891230942
850.412,212.39948772287335
852.854,165.46451892636105
855.293,147.62137408408444
857.731,156.4429957761954
860.167,133.7881129455227
862.601,98.46790433665001
865.034,83.48409050642249
867.465,74.55274012017526
869.894,79.58045720033033
872.321,83.47390170833887
874.747,76.94931012661982
877.171,110.48487318336629
879.594,113.98739929163457
882.014,121.60183513129368
884.433,136.42554813573906
886.851,142.88927564527148
889.266,150.18569310809107
891.68,173.0789346622555
894.092,177.47601847953592
896.503,177.61731972832285
898.912,224.74323401271886
901.319,242.33226938306734
903.724,241.00580501313334
906.128,212.14713559158554
908.53,201.33003952298895
910.931,189.6044899859562
913.329,207.59188980080762
915.726,227.15173486866934
918.122,242.23875380104664
920.516,248.37909516845684
922.908,217.5274671300008
925.298,206.5433246819939
927.687,200.28610452562998
930.074,209.8533170775222
932.459,224.9138765754633
934.843,243.18428832705104
937.225,240.23816929164968
939.605,270.74434009091556
941.984,271.27634559074886
944.361,259.4553088165817
946.736,246.94992772580008
949.11,233.19075769447
951.482,204.27497019452812
953.853,202.77587337573868
956.222,204.69528979050665
958.589,206.65402935678276
960.954,241.93950517810708
963.318,254.1247779350897
965.68,182.68760027689314
968.041,161.77231835557222
970.4,141.66605907469784
972.757,136.94158400464767
975.113,145.88585758360568
977.467,105.88099627095062
979.819,33.594741510161384
982.17,23.885218406011518
984.519,1.6580753541420563
986.866,14.10457605159354
989.212,33.55874151703665
991.556,45.21163514059026
993.899,81.01612535683171
996.24,93.25831498447224
998.579,75.08135151840861
1000.92,45.67590408844808
1003.25,29.851592798978345
1005.59,9.132227592459003
1007.92,11.708189970045169
1010.25,18.007862331262004
1012.58,21.316677284659363
1014.91,32.15807289649547
1017.24,40.817305082277926
1019.56,37.627164760208416
1021.88,24.77750452843975
1024.2,22.172384389943545
1026.52,35.287217477385184
1028.84,54.35924911132997
1031.16,82.33994062034844
1033.48,108.37116268493492
1035.79,133.02329344332975
1038.1,137.00950707353013
1040.41,159.42387189910824
1042.72,173.45563897122383
1045.03,210.3892449363443
1047.33,203.36621966587472
1049.64,191.0518557905457
1051.94,151.68283061574948
1054.24,129.30530422735228
1056.54,126.06063664513204
1058.84,141.18539069049166
1061.13,139.05895390180422
1063.43,129.3940175926009
1065.72,130.9032463859653
1068.01,142.53737632034017
1070.3,169.6756939077286
1072.59,174.88794376331725
1074.87,185.36290290176794
1077.16,157.67028836683357
1079.44,149.80837914669564
1081.72,189.20401904167693
1084.0,253.0935719129152
1086.28,330.4753055024553
1088.56,432.3951085866852
1090.84,530.8512557488084
1093.11,582.6039340560897
1095.38,624.6038173561437
1097.65,599.1349262875042
1099.92,521.2432025759063
1102.19,421.59365475914
1104.46,362.0417896261888
1106.72,322.39551984684067
1108.98,341.84373826796946
1111.24,394.90870173362373
1113.5,472.44603395274225
1115.76,542.9304426525778
1118.02,612.1700081606959
1120.28,676.4490434155432
1122.53,694.0042873103475
1124.78,697.6915742274955
1127.03,664.081075001468
1129.28,587.4096807389328
1131.53,490.77148187691637
1133.77,399.1177710505135
1136.02,359.49514119868536
1138.26,368.6169170033827
1140.5,420.91077680487797
1142.74,501.8997078504217
1144.98,559.7258186857657
1147.22,581.8170086895357
1149.45,624.8393518933303
1151.69,604.0780522303808
1153.92,551.2945892604116
1156.15,477.82195913258874
1158.38,383.13610602465405
1160.61,303.9511631058799
1162.83,275.98136016668013
1165.06,230.03626458156668
1167.28,187.4493556054349
1169.5,151.07802724126896
1171.72,127.82740063165738
1173.94,132.60270787887703
1176.16,98.59500919830725
1178.37,35.471671976610196
1180.58,-5.052197789140791
1182.8,-24.928038338051465
1185.01,-9.726210230086053
1187.22,-3.1121844671047256
1189.42,-24.13225705376908
1191.63,-36.927835989816
1193.84,-10.735442866437097
1196.04,8.208521058645601
1198.24,37.42967140593146
1200.44,16.787059900775148
1202.64,3.377927770606675
1204.84,-4.509921810220021
1207.03,20.22091709272263
1209.23,23.810780053714552
1211.42,67.16673487780872
1213.61,100.52924340079153
1215.8,137.66263524206306
1217.99,183.14081965275545
1220.18,198.39490212575674
1222.36,210.4750867200205
1224.55,208.90781648011762
1226.73,205.6481519510221
1228.91,174.27024493098634
1231.09,157.49114555775623
1233.27,153.5993712995387
1235.44,181.35966642216408
1237.62,185.91776145624863
1239.79,255.70513266435728
1241.96,334.2009043653129
1244.13,449.69375125850047
1246.3,589.0914197957923
1248.47,767.5397733629925
1250.64,961.3751707946199
1252.8,1250.0768448886934
1254.96,1560.457376159613
1257.13,1879.8531665910414
1259.29,2168.1244371983043
1261.44,2422.9409398765106
1263.6,2570.496240677242
1265.76,2586.126764990011
1267.91,2459.7403665332436
1270.06,2235.1496582500163
1272.22,1977.2148670133251
1274.37,1732.0343073789622
1276.51,1541.277712481257
1278.66,1347.4719458811905
1280.81,1161.0009991287993
1282.95,1012.105989325571
1285.09,877.5518233535126
1287.23,812.770052580408
1289.37,783.477918041267
1291.51,789.9164432388275
1293.65,786.6599555154826
1295.78,818.5684645680694
1297.92,852.3114695340851
1300.05,951.9870041731429
1302.18,1061.5025868103335
1304.31,1174.7180750414936
1306.44,1269.5409013908616
1308.57,1369.4498803972965
1310.69,1427.447587129071
1312.82,1516.9651166510425
1314.94,1596.1477958727746
1317.06,1696.8075620633358
1319.18,1748.946769937515
1321.3,1780.1391415991943
1323.41,1695.1964307704307
1325.53,1574.5017536872074
1327.64,1434.057205709465
1329.75,1315.5314779311393
1331.87,1169.450330933053
1333.98,1048.101354250095
1336.08,898.2958686955412
1338.19,797.0355905901397
1340.3,701.9888198007238
1342.4,590.2999611121672
1344.5,498.8752360755252
1346.6,405.0493472371304
1348.7,319.7283328438766
1350.8,301.38956440564925
1352.9,265.12936330538105
1354.99,228.66299836148391
1357.09,198.32468339028128
1359.18,154.49614619701515
1361.27,136.987578519223
1363.36,157.99001454155177
1365.45,185.31342369628192
1367.54,181.52956536861302
1369.62,175.06722455433237
1371.7,152.97411418415504
1373.79,145.72639649567827
1375.87,182.41915678629266
1377.95,218.24259145180804
1380.03,215.00581507270272
1382.1,205.18447702417734
1384.18,157.49218761001703
1386.25,111.35670610121952
1388.33,121.06279544128893
1390.4,103.46650552294659
1392.47,48.47136122675329
1394.54,22.55216950734348
1396.6,-23.054506853672137
1398.67,-44.54082277648513
1400.74,-10.241931460832802
1402.8,34.60211325515684
1404.86,51.17968716573478
1406.92,87.34568669554801
1408.98,80.66914736513763
1411.04,99.38562939367694
1413.09,165.9210318731416
1415.15,242.84397837103643
1417.2,345.9610596759949
1419.25,480.17398130527044
1421.3,538.4319491074698
1423.35,575.9697691510032
1425.4,576.8316618982394
1427.45,522.252219236809
1429.49,498.79926627280474
1431.54,464.7071993144573
1433.58,387.3531809986714
1435.62,320.4476211318363
1437.66,257.7960861020699
1439.7,221.7278749581269
1441.74,231.7626907264014
1443.77,228.9915974422163
1445.81,240.50559622873743
1447.84,256.49086804254534
1449.87,283.56211165730656
1451.9,283.9054054569681
1453.93,303.0401168479975
1455.96,340.1046211954299
1457.98,418.189639806538
1460.01,525.8144350573552
1462.03,695.5458626620562
1464.05,858.3317096566211
1466.07,1097.9292704777447
1468.09,1415.9053516131662
1470.11,1856.731514347249
1472.13,2333.4031270303467
1474.14,2800.2965125862875
1476.16,3150.1213341150783
1478.17,3341.1586947813385
1480.18,3363.7849519884476
1482.19,3212.8050553622115
1484.2,2892.500170448819
1486.21,2484.1991119366085
1488.21,2012.754538782597
1490.22,1541.5429588628053
1492.22,1160.5123526702273
1494.22,839.4202732032561
1496.22,580.6433744255489
1498.22,424.89170163065296
1500.22,297.5896484732946
1502.22,214.01881876258562
1504.21,160.98469777902596
1506.21,111.95951406769905
1508.2,46.320339326708336
1510.19,32.063378771803855
1512.18,-5.291262308521027
1514.17,14.157568954453836
1516.16,29.263506231445263
1518.14,45.785049055308036
1520.13,45.576043119274345
1522.11,46.91901771805033
1524.09,14.191856522241778
1526.07,12.296373114686958
1528.05,-2.5797801398737192
1530.03,-29.153584177511675
1532.01,-32.66569674639436
1533.98,-11.213781895333796
1535.96,-1.3239378164548725
1537.93,29.33501465604013
1539.9,43.14200429113339
1541.87,20.666562523990706
1543.84,20.859295566572428
1545.81,36.2899755658691
1547.78,55.43325080975478
1549.74,94.09721307570089
1551.7,131.47101259854162
1553.67,170.26771113346695
1555.63,213.91475406663517
1557.59,283.0301568114976
1559.55,316.232024538464
1561.5,334.99569095218317
1563.46,367.1299046878778
1565.41,385.1101585648157
1567.37,359.45963788740573
1569.32,336.1777877939155
1571.27,248.54983298613752
1573.22,191.71820222096107
1575.17,170.44442899242517
1577.11,167.3472426899557
1579.06,168.04542166136025
1581.0,155.15778913296913
1582.95,122.77939960596291
1584.89,113.95772525270354
1586.83,104.93074707496612
1588.77,89.41266510979062
1590.7,92.16532292104603
1592.64,58.56963209099126
1594.58,27.506520521362745
1596.51,16.095023591599556
1598.44,40.835137221831246
