Raman Shift,Processed Intensity
331.095,72.59601986710368
333.909,99.58110175307047
336.721,118.95218733884076
339.531,132.375950532381
342.339,130.23336543852884
345.145,149.76257074312434
347.949,154.20173409712652
350.751,165.36048792931115
353.55,230.00088906849533
356.348,288.8850450324294
359.144,310.2036926976375
361.937,297.6238245883046
364.729,303.28869611755727
367.518,333.15116616208024
370.306,382.4975138272107
373.091,438.51887425966197
375.874,488.8826744602343
378.656,462.7802595727212
381.435,428.83166202996154
384.212,327.8475135570379
386.988,181.73381431733333
389.761,115.11098777285997
392.532,79.98055459222496
395.301,27.77275893953083
398.068,-11.891519522419912
400.833,-29.200758390831652
403.596,-28.43849956733584
406.358,8.11189481968404
409.117,-5.213707255530153
411.874,-19.222113011504916
414.629,-45.38661404523782
417.382,-42.56127229640606
420.133,-0.40949400498720934
422.882,28.83405718894892
425.629,58.83963686186689
428.374,159.80145351678402
431.117,235.58051515009493
433.858,337.7522442226441
436.597,424.7493307260347
439.334,443.2426804870397
442.069,444.808077757722
444.802,441.9261811388865
447.533,415.220614741625
450.262,454.886535539345
452.989,485.54777214836076
455.714,481.16158265611375
458.438,493.92341244938643
461.159,440.02879489964334
463.878,418.29239490552254
466.595,396.9575286258114
469.31,379.0294927362238
472.024,346.8946079718967
474.735,346.986881717497
477.444,301.8832420259091
480.152,313.8273430654831
482.857,321.82479913870657
485.561,364.4050853675508
488.262,408.4786764740461
490.962,461.43228079896016
493.659,484.2716933680895
496.355,523.7646489585604
499.048,537.8693894508397
501.74,580.7346597521796
504.43,605.3663703867223
507.118,665.1037838951383
509.804,749.1909393294977
512.488,863.3956957957544
515.17,970.4382998057672
517.85,1088.9437621531197
520.528,1173.58471097942
523.204,1222.4623400786836
525.878,1267.7254524398327
528.551,1324.5228371225035
531.221,1358.9080270852564
533.89,1405.4583427280695
536.556,1400.084411625306
539.221,1361.6492120682146
541.883,1330.0156880359732
544.544,1342.8562689286669
547.203,1362.9861988240687
549.86,1401.0778181153573
552.515,1365.1843689583634
555.168,1361.0257054807107
557.819,1334.9882897052494
560.469,1374.5061398544376
563.116,1446.2513024642485
565.761,1564.8957530695075
568.405,1655.4447254606498
571.047,1734.99861236907
573.687,1746.4672471048311
576.324,1797.0460899562927
578.96,1803.8352717325856
581.594,1811.6967325441833
584.227,1794.397074869185
586.857,1784.4647023338944
589.485,1739.427910874333
592.112,1699.8148846596764
594.737,1648.9155967775869
597.359,1593.115138490983
599.98,1551.4651437329176
602.599,1542.6837850300126
605.216,1536.6795789496991
607.831,1509.0751915474698
610.445,1508.016958099834
613.056,1564.508212361085
615.666,1674.837853915309
618.274,1840.1517726712473
620.88,2054.21474954763
623.484,2259.7437857299456
626.086,2462.503336689105
628.686,2638.4481652477243
631.284,2749.1042898845126
633.881,2810.1880282767415
636.476,2778.748850366522
639.068,2654.740802855655
641.659,2462.070124176669
644.249,2188.5952404162417
646.836,1874.4124755243329
649.421,1550.856047237603
652.005,1207.736158240928
654.587,921.8628016146149
657.166,702.664804376876
659.745,538.6183948358143
662.321,418.199579465213
664.895,318.26509120890614
667.468,226.95714730894724
670.038,181.13201665759652
672.607,172.16953953025495
675.174,160.59217112792203
677.739,151.7316441672615
680.303,121.53848861353299
682.864,97.67726569923389
685.424,70.43132575226491
687.982,54.0837565002812
690.538,40.4888075655208
693.092,48.595703115549895
695.645,31.067698263886086
698.195,27.42494929696113
700.744,1.5683412902899363
703.291,-10.791919087096176
705.836,-11.850565026143613
708.38,30.14989771251203
710.921,32.585880694811294
713.461,57.119401400507286
715.999,78.84096228659519
718.535,109.17433461264454
721.069,129.20991369470494
723.602,146.37140749254786
726.133,108.60633472071504
728.662,72.62414200718649
731.189,61.80098771871826
733.714,34.27500197664949
736.238,1.9463085774832507
738.759,-41.761048324635794
741.279,-71.3752727735341
743.798,-72.71012842376786
746.314,-45.15063523462459
748.829,-38.27210732551748
751.342,-33.221103531069275
753.853,-31.85828732789423
756.362,-16.52033438042963
758.869,0.2657789608579151
761.375,18.878010970783635
763.879,-15.44836728209475
766.381,-25.287441386067712
768.882,-30.784561132108138
771.38,-40.989676631132625
773.877,-37.00019824077981
776.372,3.1818577935214307
778.866,31.745104649866335
781.357,69.06878214595372
783.847,97.91323014564477
786.335,109.41988577503616
788.821,153.39699492425598
791.306,207.84341898735056
793.789,272.99625112598187
796.27,345.6641468188395
798.749,436.98922583961894
801.227,549.5899266159545
803.702,675.4181463026252
806.176,774.6639999023892
808.649,823.9939127201419
811.119,820.4077604361287
813.588,766.1912472743961
816.055,718.4873317902889
818.521,654.8200336103287
820.984,591.7134782673293
823.446,507.4061801307448
825.906,430.9462777179774
828.365,371.4772451961571
830.821,339.1902705505913
833.276,271.371871848457
835.729,227.02294207391014
838.181,179.71588920129625
840.631,167.642252458832
843.079,174.32698525895512
845.525,171.19988098581916
847.97,135.976522592307
850.412,119.27732743514252
852.854,90.627544490952
855.293,76.31439442946339
857.731,75.95849540098925
860.167,90.6567173953481
862.601,105.69646517220735
865.034,96.93662785810102
867.465,69.37900473391801
869.894,45.83496911762768
872.321,49.97308462796536
874.747,61.319102400490465
877.171,75.16072020841011
879.594,70.4999606310198
882.014,70.57697779357295
884.433,102.58434029762839
886.851,140.80988557995852
889.266,150.11290760480006
891.68,162.97177312752183
894.092,154.76963319639526
896.503,155.55632513054934
898.912,191.19122687888375
901.319,207.81944471231327
903.724,207.6813342493433
906.128,211.73154529117664
908.53,184.40092379966745
910.931,172.07269958956977
913.329,176.74915021125207
915.726,178.90874102390262
918.122,168.2680271734812
920.516,160.01974604686802
922.908,169.07090972600827
925.298,191.80470696585962
927.687,185.55669088662853
930.074,161.7100142850536
932.459,130.98114113615793
934.843,99.75317714262701
937.225,146.5044383794234
939.605,180.85606755745266
941.984,189.2863169538955
944.361,195.13054562824982
946.736,176.96216901933485
949.11,159.0688466375227
951.482,164.6905745188801
953.853,146.01968244121372
956.222,119.20083114011459
958.589,108.09291428690904
960.954,90.07857951422875
963.318,105.2547018225323
965.68,121.4799998437793
968.041,149.9940806765262
970.4,136.3698180543547
972.757,110.79906384763899
975.113,84.42597861291961
977.467,62.39464785657219
979.819,34.9443173460927
982.17,27.83796175471207
984.519,11.886091401257545
986.866,-0.053250533801474376
989.212,18.544556826749613
991.556,34.68023428833794
993.899,32.97345814385426
996.24,18.94857473490447
998.579,23.12983882258277
1000.92,49.23189005348104
1003.25,59.4930884720975
1005.59,81.24694527133624
1007.92,71.01736306681232
1010.25,40.185304742597964
1012.58,33.560224201722576
1014.91,44.95149711668182
1017.24,24.5017564418481
1019.56,36.87737078302416
1021.88,35.744637052707276
1024.2,49.10311598249882
1026.52,72.80944382599091
1028.84,62.91066787116961
1031.16,65.40615338139423
1033.48,51.72377625066338
1035.79,55.481829944593755
1038.1,76.63188482234568
1040.41,108.93498079188907
1042.72,124.8187723462056
1045.03,162.75848312331527
1047.33,134.32452713295606
1049.64,127.51584426898512
1051.94,122.14085486939484
1054.24,126.3412714191843
1056.54,105.4016245389505
1058.84,101.08259849727642
1061.13,90.52579529455716
1063.43,109.49183208015188
1065.72,138.93177190287383
1068.01,189.4633163662379
1070.3,185.13271256942608
1072.59,179.74808861968427
1074.87,196.45088438280868
1077.16,162.09680604315713
1079.44,148.8748759017542
1081.72,173.21219646011264
1084.0,191.82157164690943
1086.28,225.2729375684737
1088.56,317.37431706880034
1090.84,381.6003933371767
1093.11,458.8544168491485
1095.38,513.0872551646185
1097.65,486.58310939262014
1099.92,429.6738020846665
1102.19,365.4054460804732
1104.46,334.0622562108276
1106.72,330.2141705242691
1108.98,358.4787572280409
1111.24,375.8069311528675
1113.5,409.3400987891466
1115.76,439.9339699898121
1118.02,512.4442744351006
1120.28,582.3934304782631
1122.53,583.494356848425
1124.78,576.1266653058308
1127.03,524.2414247256572
1129.28,444.4087823246832
1131.53,410.0560610784387
1133.77,384.51538094787384
1136.02,370.4046134393652
1138.26,382.43690759328
1140.5,435.80164454398414
1142.74,459.97396350841655
1144.98,511.95285920323704
1147.22,512.1183268810234
1149.45,519.0885073664838
1151.69,477.38635590219224
1153.92,475.72535861337724
1156.15,438.6285823060457
1158.38,395.5239147412972
1160.61,323.2202572905919
1162.83,248.95514616244282
1165.06,198.63284981958964
1167.28,189.25294258663848
1169.5,189.62459254342525
1171.72,168.6522779897955
1173.94,134.0024562913493
1176.16,83.43689939184947
1178.37,53.95555313515547
1180.58,43.93939658715408
1182.8,35.38853945293022
1185.01,24.826986160598608
1187.22,15.683590421331019
1189.42,4.482533598903274
1191.63,-0.2519112064701403
1193.84,-15.900137285117808
1196.04,-18.937676260739863
1198.24,-29.125670060013135
1200.44,-22.701344637536522
1202.64,27.764847519696787
1204.84,53.08351012357048
1207.03,69.68439276527852
1209.23,83.23543581120725
1211.42,80.26181529881956
1213.61,94.00308307063347
1215.8,120.65125928915427
1217.99,154.35082971371435
1220.18,169.81779059636006
1222.36,168.81583643488557
1224.55,190.2039762972904
1226.73,208.88891205099935
1228.91,198.82503563969863
1231.09,211.20490255064988
1233.27,212.2211338534396
1235.44,211.25688966728967
1237.62,251.79062834266415
1239.79,308.39610373810206
1241.96,383.9804577351654
1244.13,491.6889794200431
1246.3,624.5241499794404
1248.47,754.5837352155199
1250.64,913.7750685370327
1252.8,1099.3864768075853
1254.96,1344.9920395272452
1257.13,1636.165871823666
1259.29,1929.6725979194046
1261.44,2154.8959198373223
1263.6,2224.5529003917213
1265.76,2186.2177699889808
1267.91,2043.7981143805946
1270.06,1891.1063005114306
1272.22,1716.288045225148
1274.37,1551.8700315886467
1276.51,1381.2360966451033
1278.66,1223.436752500334
1280.81,1060.4748978853454
1282.95,948.5915297188944
1285.09,832.7895499081428
1287.23,777.0718578635979
1289.37,741.7746811092984
1291.51,744.377096369185
1293.65,756.7867411296638
1295.78,771.1969537736063
1297.92,817.4677232381478
1300.05,864.2685434343966
1302.18,932.2688867147649
1304.31,1015.7096297212479
1306.44,1033.83162209085
1308.57,1057.5899694467157
1310.69,1122.1778401987917
1312.82,1188.8836056778127
1314.94,1277.5670278883495
1317.06,1348.23068535708
1319.18,1340.4485418382128
1321.3,1338.9373721617662
1323.41,1324.651997605656
1325.53,1304.2614736487408
1327.64,1221.9109920095812
1329.75,1158.459973161388
1331.87,1061.3868255136422
1333.98,965.9794188794253
1336.08,850.0493674665586
1338.19,746.2177414401708
1340.3,639.3436356281327
1342.4,557.9051191788576
1344.5,469.42780426672834
1346.6,397.8657957499104
1348.7,312.220736066246
1350.8,252.35132631963734
1352.9,223.44951403308914
1354.99,214.89763328270692
1357.09,209.0779257840768
1359.18,208.3725381691229
1361.27,187.21113831058665
1363.36,173.8804364084026
1365.45,159.52418226655118
1367.54,164.57173399848944
1369.62,151.88091244686348
1371.7,140.26180798417136
1373.79,182.47677778962225
1375.87,203.71663360218508
1377.95,200.36254375935187
1380.03,198.60507809304227
1382.1,175.7299194921752
1384.18,154.26071832238358
1386.25,144.53051827429658
1388.33,122.01508697373424
1390.4,103.76148468713836
1392.47,79.29282350319158
1394.54,47.75112175254276
1396.6,22.42111080848008
1398.67,-24.841196207636358
1400.74,-31.70374027423668
1402.8,-9.501268912161322
1404.86,27.288475044005963
1406.92,49.37808462385783
1408.98,62.7657235641268
1411.04,107.21131642659861
1413.09,162.1413151113386
1415.15,243.36298917944737
1417.2,350.06443046152503
1419.25,436.9097957613742
1421.3,490.37264479780356
1423.35,556.2597543368997
1425.4,566.1873132766848
1427.45,540.6761653508163
1429.49,464.77086135609966
1431.54,371.4682351895258
1433.58,285.2412179805342
1435.62,224.75312841376126
1437.66,201.57196305178468
1439.7,202.59897237215523
1441.74,227.35437966157338
1443.77,216.69167133863903
1445.81,188.13093489564517
1447.84,157.66838731656662
1449.87,176.87161778076575
1451.9,213.68911608098097
1453.93,282.6407534222774
1455.96,310.19873941146034
1457.98,358.5019123798377
1460.01,423.9747916107285
1462.03,545.6609152812662
1464.05,709.2228450708669
1466.07,936.4183612458812
1468.09,1249.290943458539
1470.11,1616.7412039268343
1472.13,1990.2411777572747
1474.14,2377.358137077143
1476.16,2678.611738500111
1478.17,2853.331170591832
1480.18,2886.55992038317
1482.19,2749.341492264364
1484.2,2500.3384602125425
1486.21,2162.4515200192272
1488.21,1772.2004462797468
1490.22,1396.295525573126
1492.22,1062.494703927694
1494.22,809.4131152390685
1496.22,621.2373715929066
1498.22,437.58271073051196
1500.22,310.2549054192041
1502.22,233.48836329887354
1504.21,180.5175600618777
1506.21,137.71990120435794
1508.2,96.18715520613273
1510.19,75.15402956773823
1512.18,41.4267468474668
1514.17,33.33543022221602
1516.16,20.067441429290284
1518.14,8.19119489867603
1520.13,-3.5819328765851424
1522.11,-2.4928368271619092
1524.09,-17.40134536563346
1526.07,-23.64335899688649
1528.05,-18.507036798823492
1530.03,-11.994699001254503
1532.01,2.9866965091225666
1533.98,17.863647177953453
1535.96,58.20562610706429
1537.93,65.486983330675
1539.9,55.32503756780716
1541.87,30.480072736597776
1543.84,34.760096373378474
1545.81,52.59226471841612
1547.78,80.97526018260919
1549.74,126.71738309989405
1551.7,143.81750062251285
1553.67,166.94123371151204
1555.63,210.65904888914952
1557.59,254.92244522940632
1559.55,276.77823658658576
1561.5,326.7018814429589
1563.46,345.64509847069803
1565.41,345.60729161762174
1567.37,311.11173709769264
1569.32,280.20557990533007
1571.27,230.65030652019755
1573.22,189.30269380246204
1575.17,153.68623407853852
1577.11,163.03875070302547
1579.06,159.16953743016506
1581.0,182.50697397578165
1582.95,181.00328443635817
1584.89,158.94405761287885
1586.83,121.80538638229132
1588.77,121.87291183086904
1590.7,120.33705786376845
1592.64,114.72159914791678
1594.58,103.59794334061166
1596.51,79.06131808002738
1598.44,34.945053213808706
