Raman Shift,Processed Intensity
331.095,80.22257327592934
333.909,-68.17798891296479
336.721,-98.46365774222613
339.531,-60.301091859343614
342.339,-26.833124349648187
345.145,-5.107326145686329
347.949,1.4478115157785396
350.751,33.92764701771421
353.55,81.18949162011222
356.348,138.90023652679793
359.144,170.91731328558944
361.937,189.4791779979696
364.729,204.3481764811445
367.518,220.42959990629834
370.306,246.29550234161525
373.091,283.898994485769
375.874,333.3837754966603
378.656,358.0365219630139
381.435,347.4773721140632
384.212,260.80279098162555
386.988,161.96653080025317
389.761,64.97011521692684
392.532,17.624752072178126
395.301,-17.97246810451543
398.068,-26.962373599312286
400.833,-49.104655875747994
403.596,-36.53976822906316
406.358,-36.69368459310863
409.117,-33.03980716296519
411.874,-12.81325936443227
414.629,1.9891023656591642
417.382,-13.819898765585094
420.133,12.763174999297917
422.882,56.36093016053519
425.629,80.54845628733665
428.374,164.13902285858148
431.117,241.27930620902907
433.858,312.449387028601
436.597,363.41512881404606
439.334,417.18055632060987
442.069,406.51166258514104
444.802,387.6506921396649
447.533,352.3161385106737
450.262,343.4646464803309
452.989,350.05291434766696
455.714,408.7519771421612
458.438,422.04244221827685
461.159,413.4049629452329
463.878,360.8916647777328
466.595,329.79280942192736
469.31,340.49393519184787
472.024,355.85680688965977
474.735,353.0289371144745
477.444,351.3007266187851
480.152,333.1530808553762
482.857,349.20978842900695
485.561,393.7613281195104
488.262,440.90772352394606
490.962,486.65377865112987
493.659,502.0995516113926
496.355,521.0593997349224
499.048,515.0143580234289
501.74,560.1121366494381
504.43,606.2623565508102
507.118,656.0889278824143
509.804,694.2633808487426
512.488,777.4572441555729
515.17,840.6277567949651
517.85,961.1607226874066
520.528,1034.87050818109
523.204,1093.6190871702474
525.878,1119.1731814515783
528.551,1114.2042582235222
531.221,1102.0980513950662
533.89,1094.1450352755037
536.556,1096.7308982641862
539.221,1100.0984451117115
541.883,1065.157118228713
544.544,1054.6258523279912
547.203,1064.3664052571194
549.86,1060.4785935929262
552.515,1123.5860044264691
555.168,1145.21694524323
557.819,1170.5663461842805
560.469,1186.0671861169603
563.116,1220.6285853722234
565.761,1230.6358032438961
568.405,1292.9502354879273
571.047,1335.909411821653
573.687,1397.0412791373378
576.324,1395.3975323347654
578.96,1393.7440880109712
581.594,1359.2753676737902
584.227,1391.5666761934945
586.857,1383.5265802544327
589.485,1384.7778582352494
592.112,1341.8955929462336
594.737,1263.8833596047762
597.359,1210.7922709536665
599.98,1202.4828795222647
602.599,1171.339460840034
605.216,1207.5081061738906
607.831,1191.7062438369785
610.445,1196.4607319260122
613.056,1234.1554748681447
615.666,1300.3171352059258
618.274,1403.6627501441699
620.88,1562.3854433349165
623.484,1711.4401366623879
626.086,1889.5911667898522
628.686,2035.6979969445774
631.284,2111.1914048932617
633.881,2143.549670917476
636.476,2095.4414324557542
639.068,2000.5828244599866
641.659,1849.070810227984
644.249,1621.621274140823
646.836,1357.4261620192215
649.421,1081.3915738608812
652.005,867.8996661016181
654.587,673.6657919717481
657.166,535.2623085191299
659.745,432.16619315602156
662.321,346.5209459202256
664.895,261.32706316479835
667.468,244.87060648586112
670.038,209.6755811742164
672.607,197.36107657172533
675.174,212.68888261816392
677.739,176.37301115997934
680.303,149.46064583048746
682.864,141.18928240624155
685.424,144.46291678246416
687.982,108.56632818656726
690.538,91.54602905834145
693.092,61.92454826347648
695.645,42.22423811661429
698.195,40.96727188058685
700.744,47.53279042584791
703.291,16.91881525384997
705.836,-7.829167538160618
708.38,-25.57057087236126
710.921,-10.688735145238297
713.461,13.337661474974539
715.999,65.64890403100799
718.535,109.67092152062105
721.069,113.82958806377519
723.602,116.50311930789985
726.133,110.30780216649055
728.662,86.43134360533622
731.189,79.9186003811219
733.714,70.3858802086047
736.238,39.020957213505426
738.759,4.7735635758731405
741.279,-48.787452159878285
743.798,-56.61696677492773
746.314,-54.38404311363138
748.829,-1.5671579823797401
751.342,44.1648494910778
753.853,50.6194426986749
756.362,52.60419525021371
758.869,53.87917010012279
761.375,17.49025105517012
763.879,29.3405695202714
766.381,8.761931244305742
768.882,7.133862113545092
771.38,31.026463468895145
773.877,27.15279123265782
776.372,-8.774003059937058
778.866,-14.421626467304577
781.357,-14.83864646711936
783.847,33.73598340854414
786.335,70.01577889044484
788.821,105.23815171798742
791.306,153.21202686121296
793.789,208.0797454570843
796.27,260.17420584100546
798.749,344.3045760069108
801.227,413.0896251149802
803.702,493.86248357077466
806.176,566.3373078662808
808.649,596.1807073257169
811.119,567.9165041846722
813.588,545.8304936692539
816.055,510.5418707418885
818.521,463.52703779951935
820.984,391.31007903846466
823.446,330.27228243832224
825.906,279.31880460302136
828.365,252.54533560187565
830.821,206.38095428681982
833.276,193.1119359905988
835.729,154.78651260590823
838.181,156.97677552167943
840.631,163.7310547498405
843.079,143.57391709969534
845.525,119.6490214951632
847.97,116.29054572057794
850.412,87.40413697603026
852.854,85.3240529088821
855.293,93.05125502624196
857.731,76.72959734552933
860.167,82.93153885457104
862.601,77.94385597169139
865.034,69.81525976770854
867.465,60.118298902215884
869.894,70.42554827414824
872.321,51.73817862473925
874.747,43.81928804523204
877.171,46.81294777031371
879.594,49.434676542969555
882.014,38.20953402696841
884.433,29.519738028868233
886.851,39.652281720021165
889.266,59.46559847762069
891.68,91.05622672575532
894.092,118.56833191931219
896.503,125.95560948026741
898.912,119.02890201969194
901.319,149.26572132166189
903.724,159.6673893747859
906.128,169.94951273707397
908.53,165.49436166270425
910.931,167.63658256212398
913.329,149.75843427167752
915.726,171.81359575180204
918.122,163.56525949950924
920.516,176.58612972277365
922.908,157.02032527682604
925.298,146.53575879092818
927.687,149.18127769990974
930.074,183.0533290852195
932.459,173.29595784931644
934.843,173.14842393767458
937.225,142.13567670364932
939.605,116.83025784477309
941.984,104.66182338666113
944.361,117.96476090503234
946.736,132.16866389056577
949.11,150.8459489709153
951.482,144.33090170414062
953.853,133.0530080864346
956.222,102.63219082174123
958.589,84.87880749614624
960.954,74.41269637130449
963.318,93.85365074930542
965.68,86.01189333753382
968.041,87.79283632781585
970.4,75.10184147556856
972.757,64.32040875037546
975.113,55.11569831990096
977.467,41.2500525338005
979.819,24.771470288586215
982.17,13.775509963925515
984.519,-5.023283831539175
986.866,11.756236961816285
989.212,11.257060124225518
991.556,9.764963187235708
993.899,9.32755870251549
996.24,47.23048349393548
998.579,67.90216031901105
1000.92,85.62808427775121
1003.25,67.2651092215001
1005.59,54.52716273321198
1007.92,7.318580155341579
1010.25,16.781724332025533
1012.58,17.677938684593073
1014.91,9.054215311009784
1017.24,21.767005942459946
1019.56,30.148890042783933
1021.88,43.96095810076781
1024.2,60.63090920815671
1026.52,75.49114863765726
1028.84,76.8264092304762
1031.16,79.15946802194526
1033.48,73.39400572429076
1035.79,101.19556144749231
1038.1,111.94391599156938
1040.41,129.1616656150577
1042.72,154.84755770824313
1045.03,139.23839789497265
1047.33,130.8566714201786
1049.64,139.60578358501675
1051.94,122.1986335153415
1054.24,114.58618793017808
1056.54,136.57653110067417
1058.84,142.97772433286195
1061.13,142.07399878375327
1063.43,147.86385303933548
1065.72,132.91719831161913
1068.01,127.23250363568013
1070.3,136.90346487623242
1072.59,151.49995944848138
1074.87,130.40138199135913
1077.16,142.3204562312426
1079.44,168.7318087504268
1081.72,211.4433998984582
1084.0,257.0250975606102
1086.28,296.237250926358
1088.56,335.6973594959454
1090.84,413.49912303934025
1093.11,465.16482488851716
1095.38,484.1691438011658
1097.65,470.12963249106724
1099.92,402.09243425370664
1102.19,354.9132376871287
1104.46,327.1144218889831
1106.72,292.5993445107133
1108.98,301.03329647841224
1111.24,337.36731385653593
1113.5,372.4096087592361
1115.76,421.9208097854969
1118.02,430.32825007331985
1120.28,442.7735886872438
1122.53,445.5413843868091
1124.78,456.72576463312816
1127.03,436.89709459544906
1129.28,397.9591223482041
1131.53,347.33945740138347
1133.77,308.03719208806115
1136.02,278.4800467614373
1138.26,292.6196102299805
1140.5,311.78848495447073
1142.74,350.0812417688469
1144.98,396.9258507915299
1147.22,410.5598742415116
1149.45,432.4590402068145
1151.69,430.71819736534303
1153.92,402.62274589620733
1156.15,356.88673505771453
1158.38,304.7957226701137
1160.61,243.44487269357955
1162.83,203.83419566333987
1165.06,180.72569388670468
1167.28,183.11955425914903
1169.5,177.11129346134453
1171.72,153.22509363238692
1173.94,110.22332851921101
1176.16,62.297042006958236
1178.37,26.351664744582422
1180.58,34.8165402942609
1182.8,27.835403661760665
1185.01,0.5520979220409572
1187.22,-23.937042488470524
1189.42,-26.44033228913372
1191.63,-25.527875815994094
1193.84,-3.24585295496081
1196.04,17.597763437104277
1198.24,5.528439674800438
1200.44,-2.8806393329614366
1202.64,3.94380457798502
1204.84,1.0513275787732255
1207.03,11.96775781993756
1209.23,24.123761241230795
1211.42,17.99769320591895
1213.61,52.35368945273717
1215.8,87.47975704785017
1217.99,103.47348620572393
1220.18,134.8134763957214
1222.36,133.9307624486944
1224.55,117.92309780643359
1226.73,122.17399967588517
1228.91,98.97179418336259
1231.09,71.70009010019135
1233.27,67.83777637787716
1235.44,79.91140063565445
1237.62,111.018976219465
1239.79,158.40140830855853
1241.96,196.2520152601844
1244.13,261.90700233523285
1246.3,345.3692687572109
1248.47,465.2131671521772
1250.64,613.8225963219975
1252.8,770.4386178271318
1254.96,927.6356439979904
1257.13,1119.5119116605663
1259.29,1301.8323368144559
1261.44,1459.3618455013577
1263.6,1557.5796570545183
1265.76,1548.6316625862753
1267.91,1464.0447082374988
1270.06,1314.2027831889327
1272.22,1170.870826720169
1274.37,1042.5756781257503
1276.51,934.7013123455617
1278.66,816.2031232142742
1280.81,693.369825758401
1282.95,561.4425013505081
1285.09,515.9479285776963
1287.23,489.12715220533323
1289.37,500.4116711883926
1291.51,510.23296001613994
1293.65,516.212942437756
1295.78,520.3068461403516
1297.92,539.2317717126919
1300.05,557.4666901803569
1302.18,589.6810119694635
1304.31,610.5917272989682
1306.44,640.6776894301083
1308.57,679.5605645825062
1310.69,719.6714961359946
1312.82,783.4415783562454
1314.94,838.9685205965934
1317.06,903.3499781665237
1319.18,923.2549784382568
1321.3,937.3048707628623
1323.41,928.3114192435055
1325.53,887.8482288420407
1327.64,830.0602667236838
1329.75,786.7114788397903
1331.87,728.7085969868212
1333.98,652.5773268176854
1336.08,569.3671072816569
1338.19,482.2225367309627
1340.3,421.478608551173
1342.4,364.8988039344565
1344.5,322.72270846235506
1346.6,256.33267630760906
1348.7,182.15858967407803
1350.8,130.53499918903753
1352.9,122.51064524785374
1354.99,121.61036031104595
1357.09,120.26363786800607
1359.18,135.18558235310343
1361.27,103.75785906179021
1363.36,73.36202501908338
1365.45,68.71285984804558
1367.54,45.572649019218034
1369.62,50.084514719096205
1371.7,98.15336576623031
1373.79,123.25541895589595
1375.87,141.96200611904783
1377.95,159.27290499080118
1380.03,146.85443198366625
1382.1,136.08705877030957
1384.18,116.87493362822147
1386.25,86.64587897486263
1388.33,58.113293664710454
1390.4,36.46662671488593
1392.47,14.990422459347656
1394.54,7.492889512607462
1396.6,2.1154221144001895
1398.67,-2.381686507775612
1400.74,7.190279531655278
1402.8,13.162744575331544
1404.86,10.771746015130248
1406.92,17.538887250182825
1408.98,32.985625320221516
1411.04,29.77613106989361
1413.09,57.479198690533394
1415.15,100.47301240479146
1417.2,145.08800838936236
1419.25,210.6068795548549
1421.3,281.074104135183
1423.35,322.39118856268715
1425.4,337.173815105147
1427.45,325.41851331232874
1429.49,292.21695051014035
1431.54,222.9464127709898
1433.58,161.31742874128054
1435.62,132.46901251652525
1437.66,117.63533508789601
1439.7,112.57430055067425
1441.74,116.28183659841989
1443.77,105.27761358856469
1445.81,112.65266836991668
1447.84,120.02179001492618
1449.87,127.23781031385738
1451.9,135.15351331657848
1453.93,137.24068773149497
1455.96,160.5425126578134
1457.98,238.38784807971524
1460.01,309.24838250338416
1462.03,417.405304403562
1464.05,549.3778784320034
1466.07,700.5901168640305
1468.09,870.2279272355645
1470.11,1103.4772123611126
1472.13,1351.7619703517544
1474.14,1655.5538232045521
1476.16,1884.2291644395846
1478.17,2035.8786876893626
1480.18,2074.355010526343
1482.19,1991.510774480913
1484.2,1779.3891260117598
1486.21,1515.1284831905261
1488.21,1200.0577785769385
1490.22,896.4107497129855
1492.22,676.7545153313799
1494.22,513.7991039449739
1496.22,371.20698243617153
1498.22,256.35496559872263
1500.22,174.8104113938041
1502.22,111.42646382514636
1504.21,100.7706291474974
1506.21,81.8866854084149
1508.2,72.5804015138699
1510.19,49.84811343670617
1512.18,32.44815756795492
1514.17,21.805637401485455
1516.16,19.726714028177867
1518.14,3.255753772956268
1520.13,0.8658091651509494
1522.11,-15.44613818637663
1524.09,-28.254410908579757
1526.07,-18.942726235595728
1528.05,4.581521525153676
1530.03,-1.2555959662458918
1532.01,-7.8374000462922595
1533.98,-9.785178297876428
1535.96,5.70848016828927
1537.93,26.689205768948113
1539.9,40.77417801529896
1541.87,51.29497888951778
1543.84,54.34520812603819
1545.81,70.78047944521472
1547.78,94.26603583460337
1549.74,113.22912673500196
1551.7,128.85900427410684
1553.67,162.53549092874368
1555.63,168.82897575852485
1557.59,166.1670773061726
1559.55,194.92987792641748
1561.5,221.9261104958407
1563.46,260.2026784560553
1565.41,259.90179490450646
1567.37,250.54669311383782
1569.32,199.23209895601872
1571.27,192.52898904076142
1573.22,171.43696790155832
1575.17,145.05093089600223
1577.11,113.56106043944214
1579.06,117.01472700053978
1581.0,101.79267581111685
1582.95,118.9423564331421
1584.89,137.98744280190795
1586.83,112.88021041206275
1588.77,90.90629445602394
1590.7,64.97040034334145
1592.64,32.59629993434896
1594.58,17.569684916675442
1596.51,17.98578208651611
1598.44,37.67792101085547
