Raman Shift,Processed Intensity
331.095,68.84990333333289
333.909,-8.715168571428734
336.721,-23.469260000000048
339.531,-2.457340952380923
342.339,12.275340000000005
345.145,25.96963333333335
347.949,35.67692380952382
350.751,15.73516476190474
353.55,-14.27864952380952
356.348,-13.453218095238116
359.144,-33.685745714285716
361.937,-16.919960952380933
364.729,-1.0509209523809409
367.518,22.122974285714367
370.306,110.9944952380954
373.091,242.62460952380974
375.874,370.17053333333354
378.656,414.8383142857145
381.435,347.31158095238106
384.212,226.41812380952385
386.988,89.55801904761907
389.761,22.180595238095275
392.532,0.7362333333333249
395.301,-22.370923809523806
398.068,-27.97338095238096
400.833,-1.3309428571428494
403.596,-3.3687428571428537
406.358,8.084688095238093
409.117,6.6783285714285645
411.874,2.11007857142857
414.629,-0.49232952380950357
417.382,12.809646666666668
420.133,4.146179047619066
422.882,28.124774761904817
425.629,70.68741238095247
428.374,137.7295204761906
431.117,209.00476571428584
433.858,251.6490666666668
436.597,235.51314285714295
439.334,211.4488571428572
442.069,185.35633333333345
444.802,153.4700476190477
447.533,147.69180952380964
450.262,176.25828571428585
452.989,208.7869047619049
455.714,237.08704761904775
458.438,238.6825238095239
461.159,222.81238095238106
463.878,146.47797619047626
466.595,104.58657142857149
469.31,98.80730952380958
472.024,99.28661904761913
474.735,119.88505238095247
477.444,150.70240000000004
480.152,112.4100952380953
482.857,111.68026666666674
485.561,93.3755952380953
488.262,113.59716190476203
490.962,162.0656238095239
493.659,165.88292380952393
496.355,147.103561904762
499.048,109.54435714285718
501.74,89.54601428571436
504.43,73.21103809523815
507.118,98.59516666666676
509.804,137.75370476190486
512.488,178.93260000000012
515.17,213.14001428571444
517.85,251.8126095238096
520.528,212.81550476190486
523.204,172.10933809523817
525.878,135.79743809523816
528.551,118.88780476190485
531.221,121.5312476190477
533.89,130.97386190476197
536.556,141.7948857142858
539.221,137.9542857142858
541.883,131.17414285714295
544.544,129.5568095238096
547.203,137.2523238095239
549.86,124.9821571428572
552.515,117.80045714285723
555.168,125.76165238095248
557.819,134.72936190476202
560.469,158.23334761904775
563.116,196.99365714285724
565.761,202.01609523809537
568.405,189.16261904761916
571.047,185.15300000000008
573.687,149.848761904762
576.324,147.73061904761914
578.96,179.4214761904763
581.594,203.30642857142868
584.227,208.05495238095247
586.857,198.0515238095239
589.485,159.48895238095247
592.112,137.6078095238096
594.737,153.50504761904773
597.359,158.08733333333345
599.98,160.87966666666674
602.599,143.02595238095245
605.216,137.28857142857152
607.831,135.9060380952382
610.445,126.63975238095246
613.056,137.4892857142858
615.666,103.21593333333337
618.274,84.43754285714294
620.88,97.48582857142866
623.484,136.26398095238108
626.086,177.24597142857158
628.686,240.38149523809534
631.284,228.57276190476205
633.881,241.53090476190494
636.476,224.82390476190488
639.068,252.21023809523828
641.659,275.54314285714304
644.249,268.5804761904763
646.836,215.65147619047627
649.421,185.46560000000008
652.005,119.16106666666674
654.587,96.1614628571429
657.166,58.128312857142866
659.745,37.86609714285717
662.321,34.417330000000035
664.895,41.20507333333335
667.468,31.033493809523815
670.038,23.23050095238096
672.607,21.981066666666706
675.174,29.279761904761948
677.739,68.16884761904768
680.303,85.45252857142862
682.864,103.07759047619055
685.424,108.37219142857147
687.982,94.42636523809526
690.538,33.806468571428574
693.092,10.031482380952397
695.645,12.382275238095271
698.195,21.663426666666695
700.744,46.58478571428574
703.291,43.47528142857143
705.836,14.902080000000016
708.38,12.765913809523834
710.921,27.06283523809526
713.461,33.64627619047624
715.999,66.89341428571434
718.535,90.9439190476191
721.069,97.55630000000005
723.602,102.01310952380958
726.133,100.26368571428576
728.662,88.06705714285718
731.189,88.27743333333339
733.714,79.22579047619051
736.238,62.718980952380996
738.759,64.13554761904768
741.279,73.23518571428578
743.798,85.53936190476196
746.314,103.76046190476197
748.829,99.99180952380958
751.342,86.56485238095244
753.853,102.04941904761912
756.362,88.96765238095243
758.869,76.65112380952385
761.375,69.2416285714286
763.879,77.8330190476191
766.381,72.61447142857149
768.882,112.39446666666672
771.38,106.83868095238098
773.877,86.99384761904767
776.372,72.95463333333338
778.866,66.29173333333337
781.357,59.62336666666674
783.847,89.09191428571434
786.335,89.69715714285721
788.821,96.96268571428578
791.306,114.84043333333341
793.789,119.37812380952388
796.27,140.6705857142858
798.749,150.3371333333334
801.227,149.94933333333344
803.702,151.45985714285723
806.176,171.24952380952394
808.649,172.74780952380965
811.119,178.8598571428572
813.588,158.53838095238106
816.055,152.4982380952382
818.521,159.74028571428585
820.984,165.74109523809534
823.446,162.74033333333344
825.906,164.9767142857144
828.365,149.5461904761906
830.821,164.30718095238106
833.276,178.0226476190477
835.729,145.74113809523817
838.181,130.7978095238096
840.631,117.86007142857152
843.079,101.31041904761912
845.525,116.86456666666672
847.97,122.3813333333334
850.412,96.43356190476196
852.854,84.2135285714286
855.293,88.96090190476195
857.731,66.24868523809526
860.167,66.36428952380957
862.601,68.02412904761907
865.034,43.467960952380984
867.465,34.79301857142862
869.894,55.76328285714289
872.321,51.42826666666671
874.747,59.79008095238098
877.171,69.23177142857146
879.594,55.850752380952414
882.014,66.36333809523815
884.433,69.58140000000006
886.851,88.12629523809531
889.266,109.9526476190477
891.68,153.30074285714295
894.092,156.26834285714293
896.503,168.23840000000007
898.912,138.45165238095245
901.319,130.0056380952382
903.724,132.80768095238105
906.128,149.3839238095239
908.53,146.26079523809534
910.931,177.10702857142866
913.329,170.30612857142864
915.726,149.81281428571435
918.122,130.96322380952387
920.516,112.52178571428577
922.908,110.34784285714295
925.298,107.68198571428576
927.687,93.57430952380956
930.074,85.31302857142862
932.459,86.0435571428572
934.843,97.24454285714292
937.225,99.63241428571432
939.605,70.35263333333337
941.984,47.55037619047623
944.361,64.51387142857148
946.736,62.29293809523813
949.11,53.55656190476192
951.482,35.783314285714305
953.853,48.02287142857147
956.222,52.2300666666667
958.589,62.31200952380954
960.954,55.36600476190479
963.318,48.965442857142904
965.68,65.7793333333334
968.041,97.80949523809528
970.4,97.34384285714289
972.757,79.57477619047623
975.113,58.17088095238098
977.467,39.84809523809527
979.819,44.89415714285716
982.17,33.453604761904764
984.519,9.528109523809535
986.866,21.59543333333336
989.212,30.514319047619075
991.556,45.14336190476196
993.899,71.29363333333337
996.24,105.29954285714292
998.579,90.11488571428575
1000.92,88.4550285714286
1003.25,58.84487619047621
1005.59,36.95207142857146
1007.92,21.63471428571432
1010.25,39.893300000000025
1012.58,51.300147619047664
1014.91,69.47472857142863
1017.24,84.27466666666673
1019.56,107.79540952380958
1021.88,93.75155238095243
1024.2,100.80974285714294
1026.52,115.58921904761911
1028.84,120.61380952380962
1031.16,156.83566666666678
1033.48,172.9685238095239
1035.79,178.10723809523822
1038.1,192.87061904761916
1040.41,209.30571428571443
1042.72,215.74542857142873
1045.03,244.66485714285724
1047.33,214.87285714285724
1049.64,199.08285714285722
1051.94,155.2940476190477
1054.24,134.45761904761915
1056.54,140.33442857142867
1058.84,154.92314285714295
1061.13,154.60361904761916
1063.43,178.5652380952382
1065.72,176.37785714285724
1068.01,164.70671428571438
1070.3,181.16952380952392
1072.59,173.38361904761916
1074.87,158.6807142857144
1077.16,169.67838095238108
1079.44,183.13690476190487
1081.72,208.816142857143
1084.0,285.7623333333336
1086.28,351.54461904761934
1088.56,421.7805714285717
1090.84,523.5631904761908
1093.11,601.1765714285718
1095.38,647.6182380952386
1097.65,661.3151428571432
1099.92,571.2652380952384
1102.19,450.84752380952403
1104.46,382.48828571428595
1106.72,340.04257142857165
1108.98,350.3176666666669
1111.24,394.69223809523834
1113.5,425.06923809523835
1115.76,446.39871428571456
1118.02,487.72595238095266
1120.28,512.6201428571432
1122.53,502.93647619047647
1124.78,483.2440476190479
1127.03,441.0170476190478
1129.28,378.96733333333356
1131.53,322.52090476190494
1133.77,287.2946190476192
1136.02,239.33404761904777
1138.26,207.35133333333346
1140.5,189.67785714285725
1142.74,193.45395238095253
1144.98,230.9632857142859
1147.22,244.96542857142873
1149.45,245.4106666666668
1151.69,217.20166666666677
1153.92,205.57452380952392
1156.15,191.90795238095248
1158.38,187.53333333333345
1160.61,155.68657142857148
1162.83,130.60395238095245
1165.06,118.47400000000007
1167.28,132.29452380952387
1169.5,128.77824761904768
1171.72,111.25651904761908
1173.94,96.10849523809527
1176.16,55.57071428571432
1178.37,58.45075238095244
1180.58,70.50878095238099
1182.8,62.124323809523844
1185.01,61.248176190476215
1187.22,59.831176190476214
1189.42,50.300509523809566
1191.63,57.74999047619051
1193.84,59.60692380952384
1196.04,53.5843190476191
1198.24,67.91913333333339
1200.44,79.8484190476191
1202.64,97.27600952380956
1204.84,107.05823619047624
1207.03,92.52772904761908
1209.23,56.49342000000001
1211.42,13.47870428571428
1213.61,-13.94521333333332
1215.8,-5.064180476190437
1217.99,43.21712666666671
1220.18,70.3751285714286
1222.36,64.50544523809525
1224.55,36.65625238095239
1226.73,18.590111904761933
1228.91,30.926880952381005
1231.09,60.09605476190481
1233.27,83.86041428571434
1235.44,100.45940952380957
1237.62,110.32272380952386
1239.79,101.78506666666674
1241.96,112.56204761904769
1244.13,105.70313809523816
1246.3,116.78100952380962
1248.47,137.74990952380963
1250.64,161.80217142857157
1252.8,212.273142857143
1254.96,248.06928571428583
1257.13,253.85952380952398
1259.29,256.69361904761917
1261.44,235.47833333333347
1263.6,232.73990476190494
1265.76,253.00438095238107
1267.91,254.79776190476204
1270.06,242.12276190476203
1272.22,233.69652380952394
1274.37,200.99733333333344
1276.51,194.74223809523818
1278.66,172.60014285714294
1280.81,165.3360000000001
1282.95,157.95257142857156
1285.09,160.35738095238105
1287.23,153.9340000000001
1289.37,171.97114285714298
1291.51,188.66190476190488
1293.65,189.7239238095239
1295.78,171.58832857142866
1297.92,137.78175238095247
1300.05,116.40248095238104
1302.18,125.31046666666677
1304.31,150.22309047619058
1306.44,186.90520952380965
1308.57,200.5979523809525
1310.69,216.16128571428584
1312.82,203.74109523809537
1314.94,218.57819047619063
1317.06,239.67552380952398
1319.18,264.464523809524
1321.3,277.23376190476205
1323.41,291.65276190476203
1325.53,268.6294285714288
1327.64,297.21404761904785
1329.75,339.64752380952405
1331.87,373.3611428571431
1333.98,388.7859523809526
1336.08,371.0196190476193
1338.19,312.589142857143
1340.3,273.4490000000002
1342.4,253.98290476190493
1344.5,245.05052380952392
1346.6,246.84468571428584
1348.7,214.17708571428577
1350.8,159.52641428571434
1352.9,120.18035238095246
1354.99,109.90304285714294
1357.09,108.1252476190477
1359.18,121.03925238095245
1361.27,129.69435238095247
1363.36,142.75933333333344
1365.45,162.23576190476203
1367.54,198.64928571428584
1369.62,215.0964761904763
1371.7,196.4838571428573
1373.79,209.00276190476205
1375.87,222.60747619047632
1377.95,248.34604761904777
1380.03,274.839142857143
1382.1,271.75400000000013
1384.18,239.52009523809537
1386.25,206.61409523809536
1388.33,185.56071428571443
1390.4,153.3124523809525
1392.47,139.44126666666676
1394.54,105.13787619047625
1396.6,78.59251904761908
1398.67,50.66239523809527
1400.74,52.20438571428575
1402.8,58.40868571428578
1404.86,85.27452857142863
1406.92,106.75367142857151
1408.98,124.84548571428579
1411.04,121.9775095238096
1413.09,109.52968095238101
1415.15,88.64374761904766
1417.2,83.36619523809532
1419.25,92.3144333333334
1421.3,116.7729476190477
1423.35,132.83539047619055
1425.4,129.45246190476198
1427.45,117.95591428571436
1429.49,125.62973809523817
1431.54,105.90044285714292
1433.58,107.52820476190485
1435.62,96.60626190476195
1437.66,79.18016666666672
1439.7,85.81943809523814
1441.74,70.37898571428573
1443.77,54.713886666666696
1445.81,28.869703333333344
1447.84,30.272759047619097
1449.87,54.73036333333339
1451.9,81.81176380952387
1453.93,84.8955271428572
1455.96,110.122600952381
1457.98,116.39524761904771
1460.01,125.23526190476197
1462.03,147.878361904762
1464.05,150.4176333333334
1466.07,166.04116190476205
1468.09,235.08027142857162
1470.11,271.9611047619049
1472.13,270.0147619047621
1474.14,274.57233333333346
1476.16,263.3936190476192
1478.17,238.04780952380966
1480.18,221.72319047619058
1482.19,181.4178476190477
1484.2,143.17682857142864
1486.21,107.42667619047626
1488.21,93.92709523809528
1490.22,73.10454380952383
1492.22,40.19507476190479
1494.22,37.815854285714316
1496.22,34.29794904761906
1498.22,31.829887619047653
1500.22,45.17157952380956
1502.22,50.32105333333335
1504.21,46.56210000000004
1506.21,43.98807142857144
1508.2,33.73998666666668
1510.19,26.29223285714287
1512.18,15.309748095238097
1514.17,17.695550952380977
1516.16,15.35276523809525
1518.14,21.184548095238117
1520.13,29.760842380952397
1522.11,36.74681523809526
1524.09,28.66491428571431
1526.07,41.656676190476205
1528.05,36.67320476190479
1530.03,48.9038047619048
1532.01,59.77591904761908
1533.98,58.24086190476192
1535.96,39.77386666666668
1537.93,20.516880952380962
1539.9,12.32618095238098
1541.87,38.439083142857186
1543.84,44.2833895714286
1545.81,58.00128390476195
1547.78,51.25877090476193
1549.74,51.9126791428572
1551.7,68.86698480952388
1553.67,123.59754980952388
1555.63,136.62780476190486
1557.59,141.52881428571436
1559.55,128.91945238095246
1561.5,122.32326190476198
1563.46,116.07320476190485
1565.41,121.64560952380958
1567.37,123.32603809523815
1569.32,109.2097571428572
1571.27,112.82066666666674
1573.22,111.53948095238101
1575.17,121.84272380952389
1577.11,109.87341428571436
1579.06,104.63148571428579
1581.0,118.21273809523818
1582.95,133.61738095238104
1584.89,133.0360238095239
1586.83,149.4215238095239
1588.77,147.8694761904763
1590.7,151.61804761904773
1592.64,155.3348571428572
1594.58,148.54404761904772
1596.51,150.72233333333352
1598.44,173.53688095238118
