Raman Shift,Processed Intensity
331.095,61.761497619047454
333.909,-7.721152380952496
336.721,-32.74995952380957
339.531,-27.035490476190464
342.339,-2.645809523809513
345.145,26.041966666666685
347.949,20.509255238095236
350.751,11.952786190476182
353.55,-19.429580000000016
356.348,-19.48649095238093
359.144,1.3155533333333675
361.937,34.60648619047622
364.729,49.39824095238101
367.518,90.98979523809533
370.306,154.39588571428584
373.091,270.0130666666669
375.874,348.3345333333335
378.656,365.33063809523827
381.435,287.78254761904776
384.212,181.52039523809532
386.988,96.1852333333334
389.761,49.08572380952384
392.532,43.103404761904805
395.301,30.644665999999987
398.068,-1.0254561428571458
400.833,-3.1644837142857147
403.596,-12.695388142857151
406.358,-8.254055142857126
409.117,9.143967666666653
411.874,4.579680285714293
414.629,-5.1028
417.382,1.4180904761904811
420.133,3.036466666666696
422.882,19.695447619047663
425.629,79.71984285714296
428.374,142.10262380952392
431.117,207.50408571428585
433.858,233.9666761904763
436.597,232.10523809523824
439.334,180.53561904761912
442.069,147.8740476190477
444.802,135.023761904762
447.533,167.6500952380954
450.262,197.5148571428573
452.989,234.6662380952382
455.714,246.10519047619061
458.438,229.78585714285728
461.159,203.6155238095239
463.878,167.40647619047627
466.595,142.25714285714295
469.31,124.17138095238103
472.024,117.05790476190484
474.735,137.54047619047628
477.444,142.10071428571436
480.152,153.74409523809533
482.857,178.61871428571436
485.561,170.5403333333334
488.262,151.37204761904772
490.962,152.97742857142867
493.659,150.36353333333344
496.355,127.67991904761911
499.048,97.21909523809529
501.74,87.75040476190485
504.43,113.3759904761906
507.118,164.53190000000012
509.804,214.36884761904776
512.488,232.65579047619062
515.17,207.8287523809525
517.85,174.22863333333345
520.528,160.7672476190477
523.204,129.11893809523818
525.878,94.67224761904768
528.551,89.10079523809527
531.221,82.98332380952385
533.89,88.66019047619055
536.556,106.80497142857149
539.221,101.7579571428572
541.883,86.43058571428577
544.544,92.25784285714292
547.203,105.6747857142858
549.86,130.8303095238096
552.515,127.30191904761912
555.168,123.04794285714293
557.819,103.88312380952388
560.469,119.05089523809534
563.116,147.03282857142867
565.761,170.97649523809534
568.405,182.6007142857144
571.047,173.57671428571436
573.687,157.3842857142858
576.324,146.5512857142858
578.96,150.89095238095248
581.594,161.4540000000001
584.227,166.14790476190484
586.857,154.68970476190486
589.485,142.17693809523814
592.112,104.32614285714291
594.737,100.13889047619054
597.359,84.95018571428577
599.98,99.95169047619058
602.599,133.47754761904773
605.216,155.00446666666673
607.831,163.10431904761913
610.445,159.44357619047625
613.056,112.78413809523816
615.666,112.26834761904772
618.274,127.51438571428581
620.88,131.99739523809532
623.484,144.62080476190485
626.086,157.14497142857152
628.686,157.187142857143
631.284,218.2215714285716
633.881,257.4363333333335
636.476,265.54333333333346
639.068,257.4921523809525
641.659,208.18484285714294
644.249,159.95157142857153
646.836,148.40842857142863
649.421,104.31370952380956
652.005,85.75925714285718
654.587,62.74151428571428
657.166,13.780623809523835
659.745,30.872742857142896
662.321,30.29985714285716
664.895,38.677142857142904
667.468,53.81024285714288
670.038,56.36197619047623
672.607,50.70942380952386
675.174,79.13446190476195
677.739,75.20461428571433
680.303,84.82079523809527
682.864,65.16970000000003
685.424,72.15226190476194
687.982,65.76479047619051
690.538,79.43218571428577
693.092,65.48413047619049
695.645,39.82184238095239
698.195,9.6323380952381
700.744,-3.8497104761904724
703.291,2.8962533333333624
705.836,31.43848342857144
708.38,23.154839619047635
710.921,29.185203523809555
713.461,48.90760038095242
715.999,60.65254780952387
718.535,74.27443104761909
721.069,78.24674914285717
723.602,78.3289190476191
726.133,77.51836666666671
728.662,71.764980952381
731.189,61.06640000000002
733.714,51.32508095238099
736.238,46.87216666666671
738.759,77.18161428571433
741.279,76.53708571428574
743.798,73.07939047619051
746.314,73.18747142857147
748.829,65.81179523809529
751.342,59.0935190476191
753.853,90.12580476190482
756.362,99.85947142857148
758.869,98.95950952380957
761.375,81.28146190476191
763.879,54.10955714285717
766.381,43.728180952380995
768.882,58.27869047619052
771.38,78.42646666666673
773.877,74.97978571428575
776.372,63.985080952381
778.866,65.63171904761909
781.357,55.15677142857146
783.847,52.130714285714326
786.335,49.695495238095255
788.821,38.04077619047622
791.306,32.40385714285717
793.789,41.40312857142861
796.27,54.9426571428572
798.749,82.30770476190483
801.227,122.16431428571438
803.702,140.36940952380957
806.176,126.3512095238096
808.649,122.91888571428579
811.119,122.83429523809532
813.588,127.57345714285725
816.055,154.61218095238104
818.521,157.23656190476197
820.984,136.68471428571434
823.446,125.14738095238103
825.906,117.86278095238102
828.365,97.640780952381
830.821,102.05289523809532
833.276,103.6239333333334
835.729,119.11602857142864
838.181,125.48241428571434
840.631,107.86629523809526
843.079,73.03058095238099
845.525,60.594952380952414
847.97,43.03684761904767
850.412,60.88074761904765
852.854,64.55641904761907
855.293,45.588761904761924
857.731,40.740940000000016
860.167,17.823725714285718
862.601,20.314722857142893
865.034,27.691555238095255
867.465,40.43193238095241
869.894,46.632687619047644
872.321,52.29548285714288
874.747,42.374457142857175
877.171,58.4904666666667
879.594,44.121576190476226
882.014,45.98398095238099
884.433,60.65123333333338
886.851,80.5538857142858
889.266,123.69403333333342
891.68,141.16887142857152
894.092,159.74261904761917
896.503,162.13152380952388
898.912,169.7667238095239
901.319,151.60279523809533
903.724,146.59458095238102
906.128,93.88705238095243
908.53,91.86362857142862
910.931,65.00267142857147
913.329,74.02105714285722
915.726,82.20664761904769
918.122,110.32413333333339
920.516,115.47092857142866
922.908,115.93513333333338
925.298,89.00489047619052
927.687,79.96826190476195
930.074,78.44651428571434
932.459,91.91843238095242
934.843,83.05288476190479
937.225,61.66171238095242
939.605,52.509134285714325
941.984,45.7878647619048
944.361,52.21441809523812
946.736,54.552856190476206
949.11,45.61484285714289
951.482,45.92630000000003
953.853,51.34641904761907
956.222,51.543843809523835
958.589,36.28241523809525
960.954,29.135425714285745
963.318,37.48565619047622
965.68,37.43012095238099
968.041,54.49428190476194
970.4,51.584539047619074
972.757,57.03557809523815
975.113,62.99189114285717
977.467,53.93102709523811
979.819,34.09233895238096
982.17,14.572230999999995
984.519,-10.104462952380922
986.866,24.110885666666707
989.212,59.17149209523815
991.556,77.9352728571429
993.899,100.40274190476195
996.24,108.241280952381
998.579,89.88000000000004
1000.92,91.9386333333334
1003.25,109.17900476190482
1005.59,88.26820476190481
1007.92,88.01583333333339
1010.25,94.66020476190482
1012.58,111.67746666666676
1014.91,126.01986190476198
1017.24,139.06798571428578
1019.56,109.48847619047623
1021.88,98.1380714285715
1024.2,79.96903809523816
1026.52,104.0759476190477
1028.84,128.36318095238104
1031.16,142.68726666666677
1033.48,158.0000000000001
1035.79,198.9672380952382
1038.1,217.68357142857158
1040.41,243.10066666666683
1042.72,274.2651904761906
1045.03,241.98580952380965
1047.33,215.1660000000001
1049.64,195.5667142857144
1051.94,171.90128571428585
1054.24,161.35933333333344
1056.54,186.4154285714287
1058.84,194.3544761904763
1061.13,205.12723809523823
1063.43,196.06566666666677
1065.72,185.59738095238103
1068.01,158.43523809523822
1070.3,151.8158095238096
1072.59,155.07100000000008
1074.87,134.6756190476191
1077.16,141.67557142857154
1079.44,169.73619047619061
1081.72,215.47519047619068
1084.0,264.55761904761926
1086.28,336.0292380952383
1088.56,424.3170000000003
1090.84,549.8477142857147
1093.11,639.2862857142861
1095.38,667.3458095238097
1097.65,616.1197619047622
1099.92,523.7017142857146
1102.19,443.8516190476193
1104.46,384.758285714286
1106.72,363.84871428571455
1108.98,371.45447619047644
1111.24,416.5261428571431
1113.5,459.72885714285746
1115.76,490.25114285714324
1118.02,493.1388095238098
1120.28,495.1046190476194
1122.53,482.09919047619076
1124.78,456.3111428571431
1127.03,414.0723333333335
1129.28,346.38114285714306
1131.53,303.9498095238097
1133.77,256.8720000000001
1136.02,219.33680952380965
1138.26,201.6756666666668
1140.5,210.5538095238097
1142.74,202.58895238095252
1144.98,233.1123809523811
1147.22,243.12276190476203
1149.45,220.18990476190487
1151.69,216.74104761904778
1153.92,227.4889142857144
1156.15,190.9084380952382
1158.38,167.85531428571437
1160.61,143.04251904761907
1162.83,89.84951428571432
1165.06,51.894233333333375
1167.28,71.60376190476197
1169.5,76.88187142857149
1171.72,87.72753333333338
1173.94,98.6633571428572
1176.16,87.25972380952385
1178.37,55.56324285714291
1180.58,67.19201904761908
1182.8,53.81182857142859
1185.01,53.65991523809527
1187.22,42.21171047619049
1189.42,37.133136190476215
1191.63,17.9949761904762
1193.84,24.701403809523836
1196.04,31.061400000000035
1198.24,58.979317142857184
1200.44,70.12144380952385
1202.64,76.67798761904763
1204.84,49.50590571428572
1207.03,13.65271142857143
1209.23,4.546956190476208
1211.42,14.045901904761925
1213.61,26.768720000000016
1215.8,35.572881904761914
1217.99,27.696854380952377
1220.18,0.5220874761904811
1222.36,-6.331791714285709
1224.55,11.945445380952403
1226.73,20.402217809523833
1228.91,45.468025571428605
1231.09,49.52482580952383
1233.27,41.00230476190479
1235.44,36.854028571428614
1237.62,60.55773333333339
1239.79,90.97170952380961
1241.96,124.66890476190484
1244.13,138.3653238095239
1246.3,124.01481904761911
1248.47,124.52385714285722
1250.64,132.89461904761913
1252.8,153.0810000000001
1254.96,168.70414285714295
1257.13,168.57576190476198
1259.29,155.1262857142858
1261.44,166.59619047619057
1263.6,163.987761904762
1265.76,171.30300000000014
1267.91,175.734761904762
1270.06,166.23790476190484
1272.22,153.9575714285715
1274.37,159.51538095238104
1276.51,151.72333333333341
1278.66,141.86966666666672
1280.81,133.0520476190477
1282.95,132.22547619047626
1285.09,133.0594761904763
1287.23,147.12809523809534
1289.37,162.9577142857144
1291.51,166.36067619047625
1293.65,148.95855714285722
1295.78,150.32530476190482
1297.92,139.94036190476197
1300.05,106.90158095238102
1302.18,95.64022857142865
1304.31,113.77782857142866
1306.44,107.79367142857151
1308.57,138.73780000000008
1310.69,152.94651428571436
1312.82,148.27938095238105
1314.94,148.2632380952382
1317.06,164.28133333333346
1319.18,176.003142857143
1321.3,205.2409047619049
1323.41,228.33071428571446
1325.53,281.27461904761924
1327.64,311.2662857142859
1329.75,324.8791904761907
1331.87,336.496523809524
1333.98,336.454523809524
1336.08,308.8983809523811
1338.19,304.3061904761906
1340.3,289.5380952380954
1342.4,259.5004285714287
1344.5,226.57652380952393
1346.6,211.95880952380966
1348.7,182.12542857142867
1350.8,154.22128571428578
1352.9,149.9151904761906
1354.99,144.44661904761912
1357.09,127.91309523809534
1359.18,142.79195238095247
1361.27,153.4658095238096
1363.36,144.364761904762
1365.45,138.7285238095239
1367.54,145.462761904762
1369.62,150.47385714285727
1371.7,197.191142857143
1373.79,240.75885714285732
1375.87,282.70133333333354
1377.95,301.2577142857145
1380.03,296.9046666666668
1382.1,255.3095714285716
1384.18,216.99661904761913
1386.25,158.06166666666678
1388.33,139.79006666666675
1390.4,126.46776761904768
1392.47,103.09484571428575
1394.54,61.3855061904762
1396.6,24.053740952380956
1398.67,-2.091464285714258
1400.74,25.520714285714337
1402.8,65.07997190476196
1404.86,91.20446857142862
1406.92,95.27412857142862
1408.98,81.52588571428576
1411.04,83.8155714285715
1413.09,106.80868571428577
1415.15,104.17016666666672
1417.2,98.80304285714291
1419.25,113.61031904761913
1421.3,124.54282857142867
1423.35,144.4079038095239
1425.4,131.44164190476192
1427.45,73.35610285714287
1429.49,24.29173904761907
1431.54,16.198664761904794
1433.58,27.9319228571429
1435.62,60.39340380952385
1437.66,93.72362380952386
1439.7,92.7294904761905
1441.74,77.97978571428575
1443.77,85.0430333333334
1445.81,81.15472380952386
1447.84,70.5975952380953
1449.87,65.89278571428574
1451.9,39.89454285714289
1453.93,40.266480952381016
1455.96,63.434200000000054
1457.98,75.39490952380957
1460.01,90.38383809523818
1462.03,131.159961904762
1464.05,151.1012285714287
1466.07,204.489942857143
1468.09,228.37123809523823
1470.11,237.98033333333348
1472.13,231.31419047619062
1474.14,261.37009523809536
1476.16,255.09747619047636
1478.17,256.8267142857144
1480.18,221.7460000000001
1482.19,176.7572761904763
1484.2,119.95299047619056
1486.21,105.28310000000008
1488.21,90.55450952380957
1490.22,90.52676000000004
1492.22,57.388012380952404
1494.22,46.65974857142861
1496.22,56.86364476190481
1498.22,68.4262028571429
1500.22,63.202553809523835
1502.22,44.571774761904756
1504.21,22.2463985714286
1506.21,27.320107142857182
1508.2,51.410302380952416
1510.19,50.420358095238115
1512.18,59.58708000000003
1514.17,34.3854661904762
1516.16,22.481140000000018
1518.14,13.539849047619054
1520.13,16.22744571428572
1522.11,2.0194847619047813
1524.09,24.915459047619066
1526.07,33.819687619047635
1528.05,38.541400000000024
1530.03,37.032776190476206
1532.01,32.00800952380953
1533.98,19.46716190476192
1535.96,17.21987619047621
1537.93,28.59971428571432
1539.9,47.892681904761936
1541.87,48.67058666666669
1543.84,42.55292571428573
1545.81,18.873565714285725
1547.78,22.680763809523853
1549.74,53.403515238095295
1551.7,92.51909619047628
1553.67,117.02792857142865
1555.63,141.55025714285722
1557.59,132.6105238095239
1559.55,139.63819047619054
1561.5,139.4913333333334
1563.46,125.45704761904769
1565.41,116.39289523809532
1567.37,111.3004190476191
1569.32,107.56136190476198
1571.27,117.4628190476191
1573.22,109.91076666666673
1575.17,118.47780952380961
1577.11,111.87922380952385
1579.06,87.16395714285717
1581.0,72.42860476190481
1582.95,90.76960476190483
1584.89,92.56917142857151
1586.83,121.78109047619054
1588.77,125.35881904761911
1590.7,120.97061904761912
1592.64,136.99861904761914
1594.58,171.4200952380951
1596.51,179.99838095238053
1598.44,134.73480952380888
