Raman Shift,Processed Intensity
331.095,107.7490142857139
333.909,-13.114023809523829
336.721,-27.2214666666665
339.531,17.384719047619093
342.339,41.8527552380953
345.145,74.14076714285716
347.949,58.58897238095237
350.751,3.443228095238107
353.55,0.3787542857142969
356.348,4.262218095238101
359.144,9.246853333333341
361.937,-1.7989190476190409
364.729,11.61355619047622
367.518,28.163866666666742
370.306,98.15204571428585
373.091,223.25984619047637
375.874,318.50329619047636
378.656,353.04240952380974
381.435,308.324261904762
384.212,199.6535190476191
386.988,112.3364352380953
389.761,67.96573380952385
392.532,33.13526095238098
395.301,27.24962047619048
398.068,5.524195238095237
400.833,-0.7293342857142826
403.596,-16.72180761904764
406.358,-24.329550952380963
409.117,-26.856163809523828
411.874,-28.69922047619049
414.629,-36.87400952380954
417.382,-13.489768571428577
420.133,-24.083059047619038
422.882,16.668014285714342
425.629,76.03873333333341
428.374,128.97269047619056
431.117,171.0331761904763
433.858,222.6420000000001
436.597,219.84090476190488
439.334,213.5772380952382
442.069,181.4185714285715
444.802,165.0762857142858
447.533,145.1671904761906
450.262,182.92809523809538
452.989,218.40623809523822
455.714,243.74438095238108
458.438,245.32450476190488
461.159,218.71916190476196
463.878,135.8830476190477
466.595,119.6280857142858
469.31,95.6722714285715
472.024,107.01918095238105
474.735,134.00652857142865
477.444,133.82949523809532
480.152,118.20725238095247
482.857,139.38332380952392
485.561,146.50666666666677
488.262,178.1067142857144
490.962,181.19009523809532
493.659,163.38261904761913
496.355,143.9292952380953
499.048,106.69467619047624
501.74,82.49554285714292
504.43,97.43422857142865
507.118,110.89935238095248
509.804,153.13677142857154
512.488,192.01153333333343
515.17,219.24547619047632
517.85,206.4654761904763
520.528,190.63190476190488
523.204,166.46665714285723
525.878,133.02551428571434
528.551,107.07814285714294
531.221,107.7272190476191
533.89,102.07584761904769
536.556,93.46477142857147
539.221,88.37730000000005
541.883,71.53513333333339
544.544,89.13597619047627
547.203,95.71037619047625
549.86,114.21760476190482
552.515,124.14022380952387
555.168,134.86554285714297
557.819,152.97131904761918
560.469,181.0823904761906
563.116,176.58542857142868
565.761,183.39042857142869
568.405,188.02638095238106
571.047,213.1169523809525
573.687,199.42892857142866
576.324,189.72828571428582
578.96,165.06688095238104
581.594,187.5431523809525
584.227,172.87503333333345
586.857,177.5414476190477
589.485,159.11691428571436
592.112,131.12751428571437
594.737,134.90867619047629
597.359,149.22380952380956
599.98,131.455580952381
602.599,116.84320000000005
605.216,123.48270476190483
607.831,108.66005714285723
610.445,145.09006666666676
613.056,140.53434285714295
615.666,149.42130476190485
618.274,125.70251428571437
620.88,152.32911428571438
623.484,148.39515238095248
626.086,193.0896285714287
628.686,221.45819047619062
631.284,251.45152380952393
633.881,236.01923809523822
636.476,247.063761904762
639.068,231.20128571428586
641.659,212.0477142857144
644.249,192.83814285714294
646.836,182.56941904761914
649.421,140.71372380952388
652.005,100.88654285714291
654.587,93.03619523809527
657.166,67.5397466666667
659.745,53.44090619047622
662.321,23.40227428571428
664.895,9.562527142857174
667.468,36.155493333333396
670.038,78.89124428571435
672.607,126.86058952380958
675.174,118.3453142857143
677.739,87.10298095238102
680.303,76.89160952380958
682.864,85.75460000000005
685.424,93.30687714285719
687.982,77.59181047619049
690.538,57.03417809523815
693.092,66.15364190476194
695.645,32.1368780952381
698.195,32.265891428571464
700.744,43.7749961904762
703.291,34.42249047619052
705.836,44.58587857142859
708.38,49.97612380952381
710.921,28.828011904761944
713.461,47.09103809523815
715.999,77.57157857142863
718.535,104.74267619047625
721.069,100.93481428571434
723.602,99.52613809523815
726.133,100.27596190476196
728.662,97.65775238095245
731.189,107.00235238095246
733.714,100.4022047619048
736.238,76.66443809523815
738.759,84.50086190476196
741.279,97.52842857142863
743.798,90.6493714285715
746.314,107.00467619047625
748.829,86.21089523809529
751.342,83.3136952380953
753.853,122.92988571428579
756.362,138.62894285714293
758.869,122.8374952380953
761.375,122.98238095238099
763.879,89.34743809523816
766.381,113.59766666666677
768.882,146.017080952381
771.38,133.41355238095244
773.877,103.40467142857148
776.372,84.32199047619052
778.866,69.11680476190483
781.357,82.31133809523814
783.847,99.47592380952388
786.335,110.32356666666672
788.821,112.04339047619055
791.306,88.0149952380953
793.789,94.28530476190483
796.27,103.1389238095239
798.749,140.38462857142866
801.227,200.68806666666677
803.702,219.4768476190477
806.176,192.94071428571442
808.649,194.69838095238106
811.119,192.65380952380966
813.588,201.711142857143
816.055,213.53671428571437
818.521,197.4157142857144
820.984,179.68114285714296
823.446,171.4279523809525
825.906,150.84623809523816
828.365,163.9358095238096
830.821,168.17285714285725
833.276,161.22400000000007
835.729,149.32733333333343
838.181,139.14947619047626
840.631,113.97638095238104
843.079,146.7608000000001
845.525,144.55060952380958
847.97,129.9651714285715
850.412,119.3382571428572
852.854,96.14644285714292
855.293,86.15206666666674
857.731,100.83203809523812
860.167,63.37752857142859
862.601,43.31294285714289
865.034,63.44875714285719
867.465,60.02388571428577
869.894,84.1820333333334
872.321,99.49562380952385
874.747,104.91820000000007
877.171,108.64146190476198
879.594,147.19039047619057
882.014,144.2802380952382
884.433,168.00757142857154
886.851,186.27847619047628
889.266,223.09438095238107
891.68,229.26647619047628
894.092,215.3201904761906
896.503,189.73280952380964
898.912,185.74423809523822
901.319,173.7369523809525
903.724,169.18885714285724
906.128,178.91114285714295
908.53,175.61990476190488
910.931,192.50742857142868
913.329,192.57571428571438
915.726,183.01709523809532
918.122,156.92871428571436
920.516,161.78828571428582
922.908,155.21704761904772
925.298,157.59785714285726
927.687,152.69466666666676
930.074,155.84309523809532
932.459,159.28327619047627
934.843,156.8267047619048
937.225,137.6662190476191
939.605,116.94629523809529
941.984,112.19307619047628
944.361,116.17089523809533
946.736,137.92937142857153
949.11,138.8040095238096
951.482,131.1303190476191
953.853,109.10087619047624
956.222,93.33701428571435
958.589,98.46006666666675
960.954,127.56745238095246
963.318,134.13773809523818
965.68,139.69683809523818
968.041,143.00905238095245
970.4,109.21926190476195
972.757,100.3296571428572
975.113,79.91392380952382
977.467,34.02195714285716
979.819,1.036757142857152
982.17,15.341619047619073
984.519,15.129119047619085
986.866,53.35396666666672
989.212,80.44674285714291
991.556,98.79041428571436
993.899,118.14887142857152
996.24,163.61940952380962
998.579,163.77547619047627
1000.92,148.80965714285722
1003.25,130.0092571428572
1005.59,85.66177142857148
1007.92,63.95927619047626
1010.25,66.6652952380953
1012.58,93.63860000000008
1014.91,117.69002857142866
1017.24,140.6303190476191
1019.56,113.93695238095243
1021.88,97.13489047619053
1024.2,86.7012857142858
1026.52,109.44675714285724
1028.84,131.70532380952392
1031.16,178.4300380952382
1033.48,181.4311904761906
1035.79,207.51909523809536
1038.1,226.83700000000016
1040.41,243.3378571428573
1042.72,255.9268571428573
1045.03,274.50866666666684
1047.33,254.36947619047635
1049.64,253.65214285714302
1051.94,221.83261904761915
1054.24,195.62566666666677
1056.54,153.55490476190485
1058.84,141.8104761904763
1061.13,139.48766666666677
1063.43,158.96719047619058
1065.72,159.1055238095239
1068.01,158.18833333333342
1070.3,155.78628571428584
1072.59,171.13690476190487
1074.87,172.47785714285726
1077.16,182.522761904762
1079.44,198.46133333333347
1081.72,207.1024761904763
1084.0,250.30257142857158
1086.28,303.39385714285737
1088.56,414.5661428571432
1090.84,540.1038571428575
1093.11,629.0540952380957
1095.38,623.844285714286
1097.65,554.4731904761907
1099.92,447.55852380952405
1102.19,370.86128571428594
1104.46,329.3326190476193
1106.72,334.4478571428574
1108.98,356.20533333333356
1111.24,384.2228571428574
1113.5,407.26076190476215
1115.76,435.3178571428574
1118.02,450.6785714285717
1120.28,469.5795714285717
1122.53,466.30495238095267
1124.78,463.6627142857145
1127.03,414.1275714285716
1129.28,350.88871428571446
1131.53,299.70638095238104
1133.77,238.43623809523822
1136.02,194.93376190476206
1138.26,197.81609523809536
1140.5,196.1297142857144
1142.74,189.1110952380954
1144.98,226.9488571428573
1147.22,233.6890000000001
1149.45,233.13928571428585
1151.69,217.2027142857144
1153.92,204.54476190476203
1156.15,175.0684857142858
1158.38,147.86723809523815
1160.61,109.74872380952387
1162.83,73.23511904761907
1165.06,47.9437428571429
1167.28,48.68272380952385
1169.5,60.2123190476191
1171.72,71.14974761904766
1173.94,91.58865714285719
1176.16,81.00360952380956
1178.37,72.15483142857147
1180.58,47.8502361904762
1182.8,30.4215904761905
1185.01,14.248239047619062
1187.22,21.09056095238096
1189.42,17.80410380952383
1191.63,20.339739047619066
1193.84,34.12461333333337
1196.04,52.109684761904795
1198.24,59.8650047619048
1200.44,54.72264285714287
1202.64,58.77658571428574
1204.84,31.549547619047626
1207.03,14.707190476190485
1209.23,-0.32287142857143114
1211.42,-0.3985714285714197
1213.61,5.717541904761928
1215.8,24.977287142857147
1217.99,23.380269523809527
1220.18,9.640427142857147
1222.36,20.37657428571432
1224.55,32.82671571428574
1226.73,44.22897047619051
1228.91,60.011780952380995
1231.09,75.22314761904765
1233.27,67.33950952380957
1235.44,73.78977619047623
1237.62,67.33632380952385
1239.79,62.78899047619054
1241.96,82.0054857142858
1244.13,126.74845238095247
1246.3,155.4948142857144
1248.47,156.9600000000001
1250.64,155.8588095238096
1252.8,140.66847619047627
1254.96,154.39009523809537
1257.13,175.2626666666668
1259.29,202.14452380952395
1261.44,187.9892380952382
1263.6,198.75028571428587
1265.76,199.04847619047632
1267.91,221.69442857142866
1270.06,205.02300000000008
1272.22,177.13090476190484
1274.37,143.87678095238104
1276.51,110.45287619047625
1278.66,106.5753238095239
1280.81,132.00721904761915
1282.95,151.46460952380963
1285.09,162.13954285714297
1287.23,176.03420952380958
1289.37,144.05490476190482
1291.51,120.10866666666675
1293.65,123.29219047619056
1295.78,135.8934000000001
1297.92,140.8664238095239
1300.05,134.45170476190484
1302.18,123.7937190476191
1304.31,108.08499047619057
1306.44,149.04175714285725
1308.57,196.3330666666668
1310.69,217.53233333333344
1312.82,200.0701904761906
1314.94,170.75819047619058
1317.06,144.8362380952382
1319.18,163.54461904761916
1321.3,191.17161904761917
1323.41,239.24314285714303
1325.53,265.42780952380974
1327.64,318.6324285714288
1329.75,378.09714285714307
1331.87,390.1096190476193
1333.98,366.4820000000002
1336.08,348.1685714285716
1338.19,297.3619523809525
1340.3,262.7305714285716
1342.4,253.84796190476203
1344.5,189.8115333333334
1346.6,145.0044476190477
1348.7,142.99994285714294
1350.8,134.13354285714294
1352.9,139.31162857142868
1354.99,167.7267714285715
1357.09,156.5712380952382
1359.18,182.32314285714298
1361.27,201.84166666666678
1363.36,177.60457142857155
1365.45,187.47066666666677
1367.54,176.48961904761916
1369.62,176.28180952380967
1371.7,207.8014761904763
1373.79,249.43128571428588
1375.87,269.79138095238113
1377.95,291.69309523809545
1380.03,285.37604761904777
1382.1,273.36552380952395
1384.18,236.9959047619049
1386.25,212.03019047619057
1388.33,177.89833333333343
1390.4,135.5065714285715
1392.47,130.2845238095239
1394.54,124.47130476190483
1396.6,111.0199476190477
1398.67,107.31213333333339
1400.74,91.06337619047625
1402.8,82.27447619047624
1404.86,78.56513809523814
1406.92,73.22158095238099
1408.98,68.10149523809527
1411.04,67.20512380952385
1413.09,70.29496190476198
1415.15,87.99036190476197
1417.2,97.00545714285722
1419.25,125.67386666666677
1421.3,145.47169523809532
1423.35,139.92280476190484
1425.4,130.2175714285715
1427.45,105.30811428571434
1429.49,85.52705238095244
1431.54,76.30267142857147
1433.58,71.39619047619053
1435.62,70.47354285714292
1437.66,95.58184761904769
1439.7,101.2437571428572
1441.74,107.88681428571435
1443.77,112.89092190476195
1445.81,84.6833123809524
1447.84,63.357700952380995
1449.87,55.103430476190496
1451.9,28.3948485714286
1453.93,25.325426666666715
1455.96,54.274526666666716
1457.98,90.19240000000009
1460.01,135.55290000000008
1462.03,173.16366666666676
1464.05,183.78395238095248
1466.07,178.84000000000012
1468.09,179.90104761904774
1470.11,201.6310000000001
1472.13,223.83657142857157
1474.14,257.2773809523811
1476.16,266.3309523809525
1478.17,239.85200000000017
1480.18,223.88504761904773
1482.19,188.04623809523818
1484.2,156.7614000000001
1486.21,128.17036666666672
1488.21,101.41276666666673
1490.22,83.34298571428579
1492.22,82.91015714285719
1494.22,62.34958095238098
1496.22,52.182161904761934
1498.22,42.97620000000003
1500.22,46.25260666666671
1502.22,44.532304285714304
1504.21,48.62195904761906
1506.21,32.32830428571429
1508.2,11.029512857142866
1510.19,2.2467461904762063
1512.18,33.453485238095276
1514.17,49.4092047619048
1516.16,62.30192000000002
1518.14,45.843571904761895
1520.13,16.22238714285714
1522.11,-10.278104285714267
1524.09,11.339944285714314
1526.07,33.21753761904765
1528.05,44.44802571428574
1530.03,41.362990476190504
1532.01,50.34174285714289
1533.98,53.09698571428575
1535.96,60.38914285714289
1537.93,58.69303333333336
1539.9,65.00738571428576
1541.87,55.95006666666671
1543.84,61.805700000000044
1545.81,61.19225238095241
1547.78,63.537504761904806
1549.74,85.74538571428579
1551.7,120.91009047619056
1553.67,135.22143809523817
1555.63,153.10754285714293
1557.59,149.18690476190486
1559.55,150.7450285714287
1561.5,144.73374285714294
1563.46,118.48562857142863
1565.41,122.95306666666676
1567.37,130.85024761904768
1569.32,134.60583809523817
1571.27,145.64836190476194
1573.22,127.93009523809529
1575.17,104.87961904761913
1577.11,115.54485714285721
1579.06,101.59242857142863
1581.0,128.07033333333345
1582.95,160.59771428571437
1584.89,168.65114285714293
1586.83,159.61238095238102
1588.77,146.4343333333334
1590.7,108.92671428571437
1592.64,132.51885714285726
1594.58,161.40157142857117
1596.51,177.78992857142822
1598.44,163.01792857142803
