Raman Shift,Processed Intensity
331.095,27.32398333333314
333.909,-43.32939285714264
336.721,-44.67958571428536
339.531,-5.436095238095202
342.339,36.810333333333375
345.145,68.13601904761904
347.949,44.49933333333331
350.751,0.7166976190476042
353.55,-21.013601904761888
356.348,-17.63513285714285
359.144,13.24287714285717
361.937,34.536075714285744
364.729,44.399029523809574
367.518,64.74948380952391
370.306,154.41104571428588
373.091,237.63670476190495
375.874,327.49042857142877
378.656,374.75118095238116
381.435,303.67515714285724
384.212,207.94846800000008
386.988,123.21072085714287
389.761,47.00723076190481
392.532,12.218188666666684
395.301,16.200735523809524
398.068,-4.067560571428556
400.833,6.630127523809524
403.596,5.035660476190468
406.358,-14.393522857142884
409.117,-47.38925666666669
411.874,-33.92016857142856
414.629,-18.953619047619032
417.382,14.258623809523844
420.133,44.98983809523811
422.882,43.80027619047622
425.629,47.679761904761975
428.374,101.80996666666675
431.117,154.3259285714287
433.858,202.88738095238105
436.597,221.77432380952388
439.334,201.6485238095239
442.069,178.50585714285722
444.802,160.67685714285724
447.533,151.82585714285725
450.262,153.80804761904773
452.989,190.05142857142872
455.714,237.5558571428573
458.438,258.8456190476192
461.159,225.73181904761913
463.878,159.31146190476193
466.595,101.77687619047626
469.31,81.65530000000008
472.024,99.4259238095239
474.735,139.711461904762
477.444,138.75462857142864
480.152,128.51228571428578
482.857,122.13223809523816
485.561,121.00118095238103
488.262,124.17202857142865
490.962,118.46023333333339
493.659,110.68160000000006
496.355,105.27101428571434
499.048,85.80672380952387
501.74,86.67622380952386
504.43,119.93422857142865
507.118,109.58791904761914
509.804,150.5966761904763
512.488,189.01543333333342
515.17,200.80396190476202
517.85,193.77895714285725
520.528,199.75727619047626
523.204,142.0798190476191
525.878,128.13459047619054
528.551,92.92889523809528
531.221,96.80344761904769
533.89,115.33655238095247
536.556,120.24942380952386
539.221,103.2634571428572
541.883,106.2898428571429
544.544,94.3830000000001
547.203,116.16869047619058
549.86,173.55753333333345
552.515,181.65099047619054
555.168,157.21690476190483
557.819,153.49885714285725
560.469,146.02619047619058
563.116,139.85190476190488
565.761,155.55219047619056
568.405,160.98885714285723
571.047,144.0710000000001
573.687,155.75514285714294
576.324,152.9022857142858
578.96,152.46847619047628
581.594,163.93333333333345
584.227,182.7283333333334
586.857,177.23733333333345
589.485,177.41495238095249
592.112,170.072761904762
594.737,153.2601238095239
597.359,141.07402857142864
599.98,121.22977142857148
602.599,110.15711428571437
605.216,118.66610476190483
607.831,130.42366666666675
610.445,121.42971428571435
613.056,107.1603714285715
615.666,106.85302857142867
618.274,124.22094285714296
620.88,141.5014000000001
623.484,142.3122095238096
626.086,165.69900000000013
628.686,198.61266666666683
631.284,241.47947619047636
633.881,269.2493333333335
636.476,267.44366666666684
639.068,240.86923809523822
641.659,214.5704285714287
644.249,204.06809523809537
646.836,203.6920380952382
649.421,175.05805238095246
652.005,137.63868095238098
654.587,110.47775238095241
657.166,40.238123809523834
659.745,27.67767238095241
662.321,24.173379523809526
664.895,9.959387619047636
667.468,13.60304904761907
670.038,33.7193542857143
672.607,20.685208095238117
675.174,41.35373428571432
677.739,51.95900952380956
680.303,50.02089523809527
682.864,72.34466666666673
685.424,97.78388571428577
687.982,100.9058571428572
690.538,91.65906666666669
693.092,75.89683333333335
695.645,48.282047619047646
698.195,48.09648571428575
700.744,34.765466666666676
703.291,22.47568095238096
705.836,6.795085714285728
708.38,9.815547619047651
710.921,32.72429047619052
713.461,56.89908095238098
715.999,63.09872857142861
718.535,61.22502380952383
721.069,65.98931904761909
723.602,71.57930000000005
726.133,78.08749047619052
728.662,83.17788095238099
731.189,83.65738095238099
733.714,77.47586190476196
736.238,68.6308428571429
738.759,64.16759047619053
741.279,58.27423333333338
743.798,71.47247142857148
746.314,81.188480952381
748.829,96.27733333333339
751.342,98.21315238095245
753.853,112.4700952380953
756.362,132.3793238095239
758.869,123.7010547619048
761.375,90.38563333333336
763.879,69.52666428571432
766.381,42.93200952380957
768.882,54.028516666666725
771.38,70.8143904761905
773.877,61.954804761904796
776.372,60.40057142857147
778.866,58.81690952380956
781.357,45.82140000000004
783.847,63.93664761904766
786.335,79.97064761904768
788.821,91.49368095238103
791.306,102.31403333333338
793.789,110.8117571428572
796.27,97.89028571428578
798.749,123.69159523809535
801.227,164.78601904761916
803.702,176.07769523809534
806.176,186.94680952380963
808.649,192.01161904761915
811.119,169.27133333333344
813.588,183.29671428571442
816.055,187.22995238095245
818.521,166.9758095238096
820.984,148.20019047619056
823.446,120.56957142857149
825.906,105.03604761904771
828.365,132.50419047619056
830.821,148.1641428571429
833.276,147.34971428571438
835.729,142.25091428571434
838.181,117.91591428571435
840.631,101.53518095238101
843.079,99.01372380952387
845.525,101.97083809523816
847.97,96.35943809523815
850.412,104.94176190476196
852.854,94.6232666666667
855.293,86.30947619047625
857.731,93.95342380952388
860.167,79.41311190476193
862.601,67.26086666666671
865.034,66.68813095238099
867.465,62.31504285714289
869.894,48.714230952380994
872.321,71.26785714285717
874.747,52.691547619047654
877.171,51.843847619047665
879.594,60.67870952380957
882.014,79.05478571428577
884.433,99.11637142857151
886.851,129.72252380952386
889.266,138.68433333333343
891.68,135.90866666666673
894.092,138.30219047619056
896.503,123.15242857142866
898.912,156.36598095238108
901.319,162.89732857142866
903.724,154.31977619047626
906.128,132.06439047619054
908.53,106.5618047619048
910.931,87.62398095238103
913.329,105.77683333333339
915.726,112.97498571428578
918.122,124.60165714285722
920.516,142.89745714285723
922.908,127.29320476190483
925.298,128.98172380952386
927.687,116.58470952380958
930.074,96.77119523809532
932.459,95.44855714285721
934.843,100.19068095238099
937.225,104.33314285714295
939.605,109.54502857142865
941.984,121.82939047619054
944.361,116.33108095238103
946.736,123.62443809523816
949.11,112.37840476190485
951.482,138.3572857142858
953.853,143.6590476190477
956.222,143.23880952380964
958.589,139.5273238095239
960.954,124.38426666666673
963.318,95.28816190476196
965.68,88.19360952380958
968.041,97.62708571428578
970.4,98.59110476190482
972.757,99.23087619047622
975.113,82.59625714285717
977.467,58.83239523809526
979.819,46.98902857142861
982.17,34.35422857142858
984.519,31.977752380952413
986.866,46.14744761904766
989.212,56.7225571428572
991.556,77.51458571428577
993.899,98.7160428571429
996.24,98.37646666666673
998.579,90.06909047619051
1000.92,67.60523333333336
1003.25,71.41504095238099
1005.59,58.785852857142885
1007.92,51.95730571428575
1010.25,55.406951904761925
1012.58,79.23120095238102
1014.91,78.05036714285721
1017.24,108.48444095238101
1019.56,93.29642380952384
1021.88,80.82060952380957
1024.2,71.77181428571436
1026.52,85.5318333333334
1028.84,101.19651428571436
1031.16,125.43305238095246
1033.48,154.62279047619057
1035.79,185.62349047619057
1038.1,206.57808571428583
1040.41,196.53442857142866
1042.72,212.2069523809525
1045.03,183.8810476190477
1047.33,194.12804761904778
1049.64,214.80523809523822
1051.94,215.43657142857154
1054.24,202.116761904762
1056.54,179.60766666666672
1058.84,150.90809523809534
1061.13,164.160761904762
1063.43,180.41285714285726
1065.72,185.23514285714296
1068.01,172.8648571428572
1070.3,161.25409523809535
1072.59,184.25861904761916
1074.87,205.2589523809525
1077.16,212.34938095238107
1079.44,227.29033333333348
1081.72,225.60490476190492
1084.0,272.1017142857145
1086.28,326.96990476190496
1088.56,384.9702380952384
1090.84,484.19657142857176
1093.11,570.647666666667
1095.38,594.8459047619051
1097.65,580.1710000000003
1099.92,502.0976190476193
1102.19,392.3385238095241
1104.46,358.3684285714288
1106.72,335.28119047619066
1108.98,342.02709523809546
1111.24,355.08085714285744
1113.5,378.9170000000003
1115.76,414.29590476190504
1118.02,448.1681904761907
1120.28,474.5798095238098
1122.53,501.6713333333337
1124.78,486.7267619047621
1127.03,436.69661904761927
1129.28,374.9601904761907
1131.53,288.65852380952396
1133.77,210.45614285714296
1136.02,172.39852380952397
1138.26,181.19833333333344
1140.5,165.23395238095253
1142.74,181.83709523809534
1144.98,192.5295238095239
1147.22,213.40409523809538
1149.45,233.03038095238108
1151.69,253.45423809523822
1153.92,206.0542857142858
1156.15,179.9238095238096
1158.38,139.82219047619054
1160.61,137.60457142857152
1162.83,113.93550952380959
1165.06,96.33689047619052
1167.28,63.2351666666667
1169.5,40.67573333333337
1171.72,52.60873809523814
1173.94,64.79406190476195
1176.16,76.80097619047625
1178.37,83.48452380952385
1180.58,80.22353333333336
1182.8,63.49210000000004
1185.01,59.050104761904784
1187.22,39.60964761904763
1189.42,32.64491428571429
1191.63,1.9157476190476208
1193.84,2.5153047619047886
1196.04,34.39404285714289
1198.24,51.35942380952384
1200.44,62.647595238095256
1202.64,70.97100000000002
1204.84,46.7564142857143
1207.03,28.192580952380975
1209.23,37.56368571428573
1211.42,29.201480952380976
1213.61,49.58073809523813
1215.8,45.89066190476191
1217.99,37.98724285714286
1220.18,16.96470476190477
1222.36,21.203147619047648
1224.55,36.13046190476196
1226.73,70.22229047619052
1228.91,95.8593476190477
1231.09,114.99376190476197
1233.27,110.72076190476197
1235.44,113.70713809523815
1237.62,105.19129523809531
1239.79,89.64979047619055
1241.96,96.46422857142863
1244.13,100.87328571428577
1246.3,106.44963333333341
1248.47,135.24170476190486
1250.64,172.15538095238105
1252.8,193.66790476190494
1254.96,223.59019047619063
1257.13,259.82828571428587
1259.29,254.47952380952398
1261.44,243.212142857143
1263.6,232.31371428571438
1265.76,213.45261904761918
1267.91,211.9643809523811
1270.06,227.66023809523824
1272.22,196.30461904761916
1274.37,158.32838095238102
1276.51,145.44809523809533
1278.66,146.23761904761915
1280.81,170.4138857142858
1282.95,172.45529047619053
1285.09,167.84110476190486
1287.23,151.81190000000012
1289.37,165.94187619047628
1291.51,150.99591904761914
1293.65,166.73866666666677
1295.78,140.2208952380953
1297.92,127.92163809523817
1300.05,106.70110476190484
1302.18,119.89567619047628
1304.31,133.41319047619058
1306.44,157.63761904761915
1308.57,175.76285714285726
1310.69,195.9820000000001
1312.82,172.20328571428578
1314.94,168.00133333333346
1317.06,192.04614285714297
1319.18,215.4838571428573
1321.3,250.65076190476208
1323.41,298.69309523809545
1325.53,319.8522380952383
1327.64,334.13109523809544
1329.75,358.0090476190478
1331.87,347.8229047619049
1333.98,326.1944285714288
1336.08,331.6032857142859
1338.19,313.1956190476192
1340.3,281.4027619047621
1342.4,262.6086666666668
1344.5,219.53066666666678
1346.6,180.07638095238107
1348.7,167.15323809523818
1350.8,126.95514285714293
1352.9,139.7228380952382
1354.99,132.9351238095239
1357.09,145.16600952380963
1359.18,169.4656857142858
1361.27,179.4079142857144
1363.36,184.37674285714297
1365.45,211.75521904761914
1367.54,209.45038095238112
1369.62,216.55980952380966
1371.7,238.65647619047633
1373.79,243.26652380952396
1375.87,254.15404761904773
1377.95,249.13038095238113
1380.03,263.1019047619049
1382.1,263.6415714285716
1384.18,242.7032380952382
1386.25,220.95490476190486
1388.33,180.01708095238104
1390.4,126.31960476190483
1392.47,108.00612857142862
1394.54,99.36326666666672
1396.6,63.344404761904805
1398.67,74.37823809523813
1400.74,71.41795238095241
1402.8,62.94007619047623
1404.86,76.80179523809527
1406.92,74.00328095238099
1408.98,62.49657619047625
1411.04,79.42430000000006
1413.09,92.83380000000005
1415.15,91.6768571428572
1417.2,109.33378571428578
1419.25,115.04169523809531
1421.3,125.89479523809531
1423.35,117.98733333333338
1425.4,113.27055238095244
1427.45,99.21910000000005
1429.49,74.11726190476193
1431.54,69.43930952380958
1433.58,70.46943809523815
1435.62,67.39619047619054
1437.66,78.3129428571429
1439.7,96.31263333333337
1441.74,67.10736666666672
1443.77,83.02790000000006
1445.81,81.0719904761905
1447.84,72.23707142857148
1449.87,76.47280952380957
1451.9,77.91938095238098
1453.93,66.478780952381
1455.96,63.95748571428575
1457.98,85.01954285714294
1460.01,100.56643333333342
1462.03,153.45237142857155
1464.05,172.05500952380964
1466.07,211.8952666666668
1468.09,232.16047619047637
1470.11,266.276142857143
1472.13,280.00061904761924
1474.14,301.4736666666668
1476.16,276.88238095238114
1478.17,265.2713333333335
1480.18,259.7327904761906
1482.19,215.78717142857155
1484.2,169.57403333333343
1486.21,130.89965238095243
1488.21,78.1418666666667
1490.22,52.53553809523814
1492.22,58.64925238095242
1494.22,55.19412952380955
1496.22,37.35768666666669
1498.22,33.61320190476192
1500.22,37.76732761904766
1502.22,51.4839447619048
1504.21,62.18893904761908
1506.21,61.30826285714288
1508.2,42.36313809523812
1510.19,32.779728571428606
1512.18,54.60328571428576
1514.17,71.16488095238098
1516.16,57.748095238095246
1518.14,34.39851904761905
1520.13,22.542795238095252
1522.11,11.941033333333362
1524.09,35.30584380952385
1526.07,39.87378190476192
1528.05,44.83386857142861
1530.03,50.232399047619076
1532.01,47.35391619047622
1533.98,44.19726761904765
1535.96,64.85664380952385
1537.93,66.04546666666671
1539.9,79.00100000000005
1541.87,89.96062085714289
1543.84,63.92370442857145
1545.81,44.413485047619076
1547.78,24.23893414285716
1549.74,20.49513742857147
1551.7,63.99111395238103
1553.67,93.72668752380959
1555.63,127.08260476190486
1557.59,147.01136190476197
1559.55,141.607961904762
1561.5,142.4918380952382
1563.46,165.09145714285722
1565.41,144.02619047619058
1567.37,162.82004761904773
1569.32,170.42609523809534
1571.27,176.08223809523818
1573.22,170.78928571428582
1575.17,151.3096761904763
1577.11,120.21529523809531
1579.06,105.12582857142864
1581.0,100.99451428571436
1582.95,111.29778095238103
1584.89,142.2749142857144
1586.83,152.83172380952388
1588.77,156.92100000000008
1590.7,143.11523809523817
1592.64,133.8917142857144
1594.58,132.27483333333333
1596.51,130.78954761904765
1598.44,126.10352380952405
