Raman Shift,Processed Intensity
331.095,15.940003809523693
333.909,-7.562279999999975
336.721,-17.911482142857075
339.531,-18.31914761904762
342.339,-14.425734761904755
345.145,-3.2759790476190513
347.949,8.419958571428577
350.751,-4.85659809523811
353.55,-6.861372857142843
356.348,7.888972380952394
359.144,21.831276190476213
361.937,36.11784761904766
364.729,61.139942857142906
367.518,76.57615238095248
370.306,149.62946666666681
373.091,237.31404285714302
375.874,321.83552380952403
378.656,380.0194761904764
381.435,349.88344761904773
384.212,269.3984809523811
386.988,176.1080380952382
389.761,84.60496666666671
392.532,43.29263333333337
395.301,43.670729523809555
398.068,32.431177142857166
400.833,34.361944761904766
403.596,6.395503809523785
406.358,-39.48678952380955
409.117,-56.25450714285716
411.874,-39.78057238095238
414.629,-32.12702047619047
417.382,16.264583809523835
420.133,32.144544285714304
422.882,46.9310371428572
425.629,68.85326666666674
428.374,136.8082523809525
431.117,177.59847619047633
433.858,240.36158095238113
436.597,255.95023809523826
439.334,230.69409523809534
442.069,177.6860476190477
444.802,165.21038095238106
447.533,161.2183809523811
450.262,228.7579047619049
452.989,253.4968571428573
455.714,270.9602857142859
458.438,265.0077142857144
461.159,248.59485714285725
463.878,216.34438095238107
466.595,207.9745333333334
469.31,134.72841428571436
472.024,137.4678285714287
474.735,151.4845380952382
477.444,150.165661904762
480.152,168.9462238095239
482.857,170.11903333333342
485.561,137.35800000000012
488.262,153.43235714285723
490.962,181.3026380952382
493.659,141.40532857142864
496.355,130.41508571428577
499.048,106.00743333333338
501.74,98.85760952380961
504.43,132.06966190476203
507.118,171.79525714285722
509.804,188.6149523809525
512.488,198.39461904761913
515.17,198.5720476190477
517.85,165.060880952381
520.528,141.6799714285715
523.204,105.67619047619053
525.878,88.77292380952389
528.551,89.59796190476197
531.221,104.82676666666671
533.89,101.0396333333334
536.556,115.91171714285719
539.221,90.11789809523813
541.883,74.1427533333334
544.544,81.56570190476197
547.203,98.68027238095247
549.86,122.20852666666676
552.515,156.3956457142858
555.168,147.82028571428583
557.819,162.48952380952392
560.469,180.21947619047629
563.116,183.82600000000008
565.761,193.12485714285725
568.405,191.16928571428582
571.047,161.44109523809533
573.687,137.51695238095246
576.324,136.44914285714296
578.96,130.71847619047628
581.594,159.04382857142866
584.227,148.76213809523816
586.857,132.68655238095243
589.485,100.20132857142863
592.112,100.73773333333341
594.737,109.72730000000007
597.359,107.12474761904767
599.98,99.5985333333334
602.599,123.86452857142864
605.216,125.97182857142866
607.831,129.58796190476195
610.445,131.04710476190482
613.056,104.58740476190484
615.666,101.01864761904768
618.274,104.14998095238101
620.88,107.60020000000007
623.484,111.79666190476198
626.086,112.78600952380961
628.686,148.23314761904774
631.284,186.13655238095248
633.881,202.3511904761906
636.476,207.06559047619058
639.068,176.0389476190477
641.659,144.7450857142858
644.249,148.22832857142862
646.836,139.91405714285722
649.421,114.56065714285718
652.005,97.4503723809524
654.587,41.436593809523835
657.166,35.991680000000045
659.745,33.92097095238096
662.321,22.267925714285724
664.895,18.3139366666667
667.468,40.81653714285717
670.038,52.81882285714292
672.607,82.64955523809527
675.174,94.87553904761909
677.739,73.20636190476193
680.303,58.06590952380954
682.864,18.87805714285714
685.424,14.352338095238125
687.982,23.912619047619078
690.538,44.17328571428575
693.092,54.939219047619076
695.645,55.824961904761906
698.195,25.302185714285727
700.744,10.46171142857143
703.291,-7.84367666666667
705.836,-8.284891428571417
708.38,6.5148766666666855
710.921,20.694418095238117
713.461,36.773599523809544
715.999,40.224754285714305
718.535,45.47274761904767
721.069,67.51370952380958
723.602,89.29664761904768
726.133,99.05611904761909
728.662,94.12206666666671
731.189,75.01493809523814
733.714,56.68389047619051
736.238,67.74451904761912
738.759,80.47970000000007
741.279,97.17201904761909
743.798,84.8661523809524
746.314,65.79733333333337
748.829,55.010133333333386
751.342,72.40671428571434
753.853,76.7463428571429
756.362,108.59786666666672
758.869,95.05394285714289
761.375,58.68351428571432
763.879,48.00778571428574
766.381,45.548433333333364
768.882,42.969800000000056
771.38,56.69837142857145
773.877,60.636614285714316
776.372,61.78260476190481
778.866,70.181980952381
781.357,69.73755714285718
783.847,87.68577142857147
786.335,82.97705238095244
788.821,75.37153333333337
791.306,58.05825714285716
793.789,43.32113333333337
796.27,46.73055714285721
798.749,89.85652380952388
801.227,128.60239047619055
803.702,150.53842857142868
806.176,179.0444285714287
808.649,184.30933333333346
811.119,187.09480952380963
813.588,183.16161904761913
816.055,179.69957142857152
818.521,168.6600476190477
820.984,175.85187619047628
823.446,131.65542380952388
825.906,115.11841904761914
828.365,102.71638571428578
830.821,115.54432380952389
833.276,131.26832857142867
835.729,143.65054285714294
838.181,131.1669523809525
840.631,140.19895238095248
843.079,134.31766666666675
845.525,136.76157142857153
847.97,138.7214476190477
850.412,137.38858095238103
852.854,119.42977142857148
855.293,87.46498571428573
857.731,53.16136285714287
860.167,13.281660476190487
862.601,8.683959047619082
865.034,40.03593476190481
867.465,61.3863447619048
869.894,76.21261285714289
872.321,82.03983904761907
874.747,54.67896190476194
877.171,55.32189523809528
879.594,73.11308571428577
882.014,86.24463333333341
884.433,117.90889047619056
886.851,146.48867619047627
889.266,157.12871428571438
891.68,157.2592857142858
894.092,156.54914285714295
896.503,156.00033333333343
898.912,160.99614285714298
901.319,171.82480952380962
903.724,163.3455714285715
906.128,142.2750476190477
908.53,129.948761904762
910.931,136.60733333333343
913.329,130.58666666666676
915.726,143.8893333333334
918.122,146.04176190476198
920.516,160.37990476190487
922.908,156.19185714285723
925.298,174.718761904762
927.687,158.96314285714294
930.074,150.21354285714295
932.459,127.56806666666672
934.843,128.60051428571435
937.225,113.02816666666675
939.605,114.23505714285722
941.984,111.03323333333338
944.361,105.66397142857147
946.736,89.65374761904766
949.11,74.57670952380955
951.482,73.62627619047623
953.853,57.519685714285764
956.222,69.64055238095243
958.589,82.32521904761909
960.954,76.95743333333337
963.318,78.58768095238102
965.68,110.83767142857151
968.041,125.37692380952389
970.4,120.6842428571429
972.757,117.47677142857147
975.113,80.51910476190479
977.467,38.0996761904762
979.819,19.173442857142877
982.17,12.981133333333345
984.519,23.858464761904813
986.866,41.046276666666685
989.212,62.59454857142861
991.556,67.7439566666667
993.899,88.35394380952388
996.24,104.8077433333334
998.579,117.77404571428573
1000.92,87.5409047619048
1003.25,85.82446190476196
1005.59,66.4840047619048
1007.92,64.71177619047623
1010.25,68.31897142857146
1012.58,72.06919047619053
1014.91,74.67812857142863
1017.24,86.6709190476191
1019.56,69.04882857142861
1021.88,80.28916666666673
1024.2,99.7739476190477
1026.52,116.21823809523816
1028.84,136.33727619047627
1031.16,124.03608095238101
1033.48,128.98210476190488
1035.79,164.98529047619058
1038.1,200.04602857142868
1040.41,226.40252380952398
1042.72,250.00766666666678
1045.03,215.5751904761906
1047.33,205.3911904761906
1049.64,180.78847619047627
1051.94,177.67152380952393
1054.24,176.94471428571438
1056.54,171.8460476190477
1058.84,158.32719047619057
1061.13,161.530561904762
1063.43,140.0743000000001
1065.72,129.3861238095239
1068.01,117.46508095238104
1070.3,101.54850476190485
1072.59,133.15920476190487
1074.87,179.39127619047628
1077.16,208.910142857143
1079.44,219.38109523809536
1081.72,237.27923809523824
1084.0,260.46028571428593
1086.28,321.2084761904764
1088.56,410.0460476190479
1090.84,510.49519047619077
1093.11,573.0780952380956
1095.38,575.6979523809528
1097.65,544.0196190476194
1099.92,470.94614285714306
1102.19,389.71380952380974
1104.46,326.93947619047634
1106.72,281.0976190476192
1108.98,309.70995238095264
1111.24,369.155285714286
1113.5,412.57480952380973
1115.76,462.5374761904764
1118.02,430.66009523809544
1120.28,409.2740952380955
1122.53,412.66276190476214
1124.78,394.87157142857166
1127.03,357.13652380952396
1129.28,324.0739523809525
1131.53,243.30071428571443
1133.77,216.24304761904773
1136.02,187.6604285714287
1138.26,195.16957142857154
1140.5,200.14914285714298
1142.74,184.26309523809533
1144.98,174.98528571428585
1147.22,200.8370952380954
1149.45,222.43490476190487
1151.69,230.20495238095248
1153.92,218.1447238095239
1156.15,171.5849714285715
1158.38,126.28531904761913
1160.61,110.67173333333338
1162.83,91.55104761904765
1165.06,57.3496666666667
1167.28,35.35056190476192
1169.5,39.313209523809576
1171.72,63.18758095238102
1173.94,86.63789523809528
1176.16,80.2331142857143
1178.37,60.9708142857143
1180.58,20.80097619047621
1182.8,33.57837428571433
1185.01,45.157939523809546
1187.22,40.06123047619048
1189.42,33.000365238095256
1191.63,20.020842380952388
1193.84,20.64444904761909
1196.04,50.345447142857175
1198.24,58.8838904761905
1200.44,60.210418571428605
1202.64,49.94244952380952
1204.84,29.126081904761925
1207.03,23.950409904761912
1209.23,11.79515276190477
1211.42,18.183010285714307
1213.61,24.113071047619048
1215.8,3.1083650476190563
1217.99,13.406376571428584
1220.18,16.101903714285733
1222.36,24.766162857142902
1224.55,62.78000523809528
1226.73,75.66736000000004
1228.91,74.57143809523814
1231.09,88.15912857142861
1233.27,94.66936666666673
1235.44,87.43624761904768
1237.62,77.74643809523813
1239.79,74.69624285714292
1241.96,79.57248095238103
1244.13,99.51943333333342
1246.3,130.15778095238102
1248.47,140.29860000000008
1250.64,138.84861904761914
1252.8,140.19038095238102
1254.96,151.2782857142858
1257.13,163.97180952380964
1259.29,202.98728571428586
1261.44,212.8510476190477
1263.6,199.6609523809525
1265.76,188.08609523809537
1267.91,185.795761904762
1270.06,163.7925238095239
1272.22,156.9840476190477
1274.37,144.13514285714294
1276.51,122.72500000000008
1278.66,126.32823809523818
1280.81,128.9000952380953
1282.95,119.87252380952388
1285.09,115.91538095238104
1287.23,146.84152380952392
1289.37,165.082761904762
1291.51,152.9283095238096
1293.65,138.80995238095247
1295.78,137.39796666666675
1297.92,109.79106190476196
1300.05,103.46910000000007
1302.18,113.9117952380953
1304.31,96.69417142857151
1306.44,122.29582380952391
1308.57,162.7200857142858
1310.69,164.3040952380953
1312.82,149.90871428571435
1314.94,137.39490476190483
1317.06,131.0516666666668
1319.18,147.26352380952392
1321.3,177.27185714285727
1323.41,216.08057142857157
1325.53,257.55042857142877
1327.64,300.7800476190478
1329.75,347.534523809524
1331.87,346.57923809523834
1333.98,353.0128095238097
1336.08,322.5053333333335
1338.19,322.67914285714306
1340.3,297.68004761904774
1342.4,275.13028571428583
1344.5,225.7474761904763
1346.6,212.43948571428578
1348.7,161.5898571428572
1350.8,127.1063190476191
1352.9,89.2294952380953
1354.99,92.39071904761911
1357.09,98.83080000000008
1359.18,132.60007142857148
1361.27,138.79575238095245
1363.36,120.23000000000006
1365.45,116.42876190476198
1367.54,132.96533333333343
1369.62,151.22266666666678
1371.7,193.05961904761918
1373.79,194.76352380952392
1375.87,213.0028571428573
1377.95,229.58857142857156
1380.03,226.76004761904773
1382.1,217.13761904761915
1384.18,212.9600476190477
1386.25,184.99024761904772
1388.33,167.94304285714293
1390.4,133.05704285714293
1392.47,83.71368571428575
1394.54,40.62737142857144
1396.6,10.512342857142883
1398.67,23.65415238095241
1400.74,32.52865714285717
1402.8,29.5638285714286
1404.86,55.75899523809528
1406.92,62.68462380952385
1408.98,69.19662380952386
1411.04,89.19860476190482
1413.09,109.21306666666673
1415.15,96.52399047619053
1417.2,121.08196190476198
1419.25,126.36133333333342
1421.3,126.4552476190477
1423.35,127.21888571428579
1425.4,116.79290000000005
1427.45,90.03190476190483
1429.49,90.59991428571433
1431.54,73.58965714285718
1433.58,78.52230476190482
1435.62,89.20447142857148
1437.66,90.10949047619054
1439.7,86.139180952381
1441.74,89.33800952380957
1443.77,90.51230476190484
1445.81,105.2305952380953
1447.84,112.72765714285721
1449.87,109.14310952380956
1451.9,77.66406666666671
1453.93,79.23946190476197
1455.96,75.05626666666672
1457.98,84.30170476190483
1460.01,112.02005238095245
1462.03,143.82669523809534
1464.05,164.33722857142868
1466.07,193.1672761904763
1468.09,206.17066666666682
1470.11,248.05838095238113
1472.13,262.3506190476192
1474.14,274.8536190476192
1476.16,278.2781904761906
1478.17,255.43028571428587
1480.18,248.30704761904778
1482.19,235.90522857142867
1484.2,178.93572857142865
1486.21,125.63393333333342
1488.21,119.52048095238104
1490.22,85.21120952380956
1492.22,69.65587619047623
1494.22,63.280142857142884
1496.22,46.319490476190495
1498.22,33.29517904761908
1500.22,37.252410000000005
1502.22,14.807748571428588
1504.21,26.340056666666708
1506.21,45.132700952380986
1508.2,64.04075761904765
1510.19,58.87178857142859
1512.18,59.243093333333384
1514.17,50.00992190476193
1516.16,37.98031523809526
1518.14,40.057255238095266
1520.13,32.47739238095239
1522.11,10.71552857142861
1524.09,48.91338285714289
1526.07,61.54571619047622
1528.05,71.94493428571435
1530.03,95.3478504761905
1532.01,74.99159952380954
1533.98,38.16098476190478
1535.96,32.474262380952396
1537.93,22.073451428571474
1539.9,50.91059952380958
1541.87,71.8418066666667
1543.84,83.19990000000004
1545.81,82.50817142857147
1547.78,79.67102380952386
1549.74,94.64046666666674
1551.7,122.89223333333342
1553.67,131.80718571428582
1555.63,160.52780952380962
1557.59,178.7207142857144
1559.55,192.05257142857158
1561.5,214.8564761904763
1563.46,206.37038095238103
1565.41,162.26128571428578
1567.37,145.2433333333334
1569.32,127.03104761904771
1571.27,139.95819047619057
1573.22,150.8820000000001
1575.17,157.89809523809532
1577.11,132.81616666666673
1579.06,127.20800000000008
1581.0,121.5025476190477
1582.95,166.27200000000013
1584.89,182.70707142857154
1586.83,200.09419047619056
1588.77,186.86233333333342
1590.7,174.58361904761915
1592.64,170.7349047619049
1594.58,203.60264285714294
1596.51,226.9970000000001
1598.44,217.75197619047614
